host_timestamp_ns,host_timestamp_iso,pmd_timestamp,ppg0,ppg1,ppg2,ambient
1783771116065418852,2026-07-11T18:58:36.065+07:00,837086318242226764,252247,200621,227368,1331
1783771116083600670,2026-07-11T18:58:36.083+07:00,837086318242226764,251873,200332,227094,1375
1783771116101782488,2026-07-11T18:58:36.101+07:00,837086318242226764,251592,200209,226911,1350
1783771116119964306,2026-07-11T18:58:36.119+07:00,837086318242226764,251423,200037,226762,1314
1783771116138146124,2026-07-11T18:58:36.138+07:00,837086318242226764,251269,200020,226714,1343
1783771116156327942,2026-07-11T18:58:36.156+07:00,837086318242226764,251243,199939,226672,1374
1783771116174509760,2026-07-11T18:58:36.174+07:00,837086318242226764,251166,199856,226616,1321
1783771116192691578,2026-07-11T18:58:36.192+07:00,837086318242226764,251111,199811,226559,1337
1783771116210873396,2026-07-11T18:58:36.210+07:00,837086318242226764,250996,199793,226521,1350
1783771116229055214,2026-07-11T18:58:36.229+07:00,837086318242226764,250928,199751,226535,1343
1783771116247237032,2026-07-11T18:58:36.247+07:00,837086318242226764,250902,199697,226432,1325
1783771116265418850,2026-07-11T18:58:36.265+07:00,837086318242226764,250693,199536,226306,1284
1783771116283600668,2026-07-11T18:58:36.283+07:00,837086318242226764,250671,199450,226256,1327
1783771116301782486,2026-07-11T18:58:36.301+07:00,837086318242226764,250504,199371,226178,1317
1783771116319964304,2026-07-11T18:58:36.319+07:00,837086318242226764,250375,199303,226079,1343
1783771116338146122,2026-07-11T18:58:36.338+07:00,837086318242226764,250270,199233,226073,1333
1783771116356327940,2026-07-11T18:58:36.356+07:00,837086318242226764,250277,199174,226026,1335
1783771116374509758,2026-07-11T18:58:36.374+07:00,837086318242226764,250156,199161,226028,1422
1783771116392691576,2026-07-11T18:58:36.392+07:00,837086318242226764,250111,199090,225983,1366
1783771116410873394,2026-07-11T18:58:36.410+07:00,837086318242226764,250055,199052,225989,1355
1783771116429055212,2026-07-11T18:58:36.429+07:00,837086318242226764,250013,199017,225919,1338
1783771116447237030,2026-07-11T18:58:36.447+07:00,837086318242226764,249820,198867,225772,1351
1783771116465418848,2026-07-11T18:58:36.465+07:00,837086318242226764,249532,198605,225478,1380
1783771116483600666,2026-07-11T18:58:36.483+07:00,837086318242226764,249096,198180,225108,1388
1783771116501782484,2026-07-11T18:58:36.501+07:00,837086318242226764,248609,197757,224719,1369
1783771116519964302,2026-07-11T18:58:36.519+07:00,837086318242226764,248205,197374,224337,1288
1783771116538146120,2026-07-11T18:58:36.538+07:00,837086318242226764,247837,197066,223968,1318
1783771116556327938,2026-07-11T18:58:36.556+07:00,837086318242226764,247519,196873,223686,1341
1783771116574509756,2026-07-11T18:58:36.574+07:00,837086318242226764,247293,196739,223503,1350
1783771116592691574,2026-07-11T18:58:36.592+07:00,837086318242226764,247097,196605,223461,1448
1783771116610873392,2026-07-11T18:58:36.610+07:00,837086318242226764,246965,196453,223361,1357
1783771116629055210,2026-07-11T18:58:36.629+07:00,837086318242226764,246854,196392,223234,1399
1783771116647237028,2026-07-11T18:58:36.647+07:00,837086318242226764,246730,196318,223175,1351
1783771116665418846,2026-07-11T18:58:36.665+07:00,837086318242226764,246666,196249,223115,1347
1783771116683600664,2026-07-11T18:58:36.683+07:00,837086318242226764,246564,196226,223061,1356
1783771116701782482,2026-07-11T18:58:36.701+07:00,837086318242226764,246443,196129,222966,1356
1783771116719964300,2026-07-11T18:58:36.719+07:00,837086318242226764,246337,196032,222894,1376
1783771116738146118,2026-07-11T18:58:36.738+07:00,837086318242226764,246197,195916,222790,1345
1783771116756327936,2026-07-11T18:58:36.756+07:00,837086318242226764,246116,195843,222769,1372
1783771116774509754,2026-07-11T18:58:36.774+07:00,837086318242226764,245995,195750,222674,1337
1783771116792691572,2026-07-11T18:58:36.792+07:00,837086318242226764,245909,195700,222614,1352
1783771116810873390,2026-07-11T18:58:36.810+07:00,837086318242226764,245791,195653,222580,1407
1783771116829055208,2026-07-11T18:58:36.829+07:00,837086318933804318,245689,195584,222519,1347
1783771116847237026,2026-07-11T18:58:36.847+07:00,837086318933804318,245682,195612,222554,1343
1783771116865418844,2026-07-11T18:58:36.865+07:00,837086318933804318,245730,195592,222584,1386
1783771116883600662,2026-07-11T18:58:36.883+07:00,837086318933804318,245668,195542,222619,1350
1783771116901782480,2026-07-11T18:58:36.901+07:00,837086318933804318,245505,195393,222481,1357
1783771116919964298,2026-07-11T18:58:36.919+07:00,837086318933804318,245206,195170,222228,1351
1783771116938146116,2026-07-11T18:58:36.938+07:00,837086318933804318,244823,194844,221832,1389
1783771116956327934,2026-07-11T18:58:36.956+07:00,837086318933804318,244365,194483,221404,1377
1783771116974509752,2026-07-11T18:58:36.974+07:00,837086318933804318,243910,194064,220939,1386
1783771116992691570,2026-07-11T18:58:36.992+07:00,837086318933804318,243422,193765,220589,1355
1783771117010873388,2026-07-11T18:58:37.010+07:00,837086318933804318,243059,193455,220267,1386
1783771117029055206,2026-07-11T18:58:37.029+07:00,837086318933804318,242812,193245,220018,1326
1783771117047237024,2026-07-11T18:58:37.047+07:00,837086318933804318,242570,193041,219848,1419
1783771117065418842,2026-07-11T18:58:37.065+07:00,837086318933804318,242338,192836,219700,1301
1783771117083600660,2026-07-11T18:58:37.083+07:00,837086318933804318,242156,192731,219619,1319
1783771117101782478,2026-07-11T18:58:37.101+07:00,837086318933804318,242038,192679,219506,1337
1783771117119964296,2026-07-11T18:58:37.119+07:00,837086318933804318,241987,192663,219452,1275
1783771117138146114,2026-07-11T18:58:37.138+07:00,837086318933804318,241886,192595,219414,1320
1783771117156327932,2026-07-11T18:58:37.156+07:00,837086318933804318,241851,192524,219418,1385
1783771117174509750,2026-07-11T18:58:37.174+07:00,837086318933804318,241763,192512,219352,1370
1783771117192691568,2026-07-11T18:58:37.192+07:00,837086318933804318,241599,192323,219192,1331
1783771117210873386,2026-07-11T18:58:37.210+07:00,837086318933804318,241475,192315,219097,1327
1783771117229055204,2026-07-11T18:58:37.229+07:00,837086318933804318,241396,192274,219053,1294
1783771117247237022,2026-07-11T18:58:37.247+07:00,837086318933804318,241322,192230,219004,1372
1783771117265418840,2026-07-11T18:58:37.265+07:00,837086318933804318,241284,192161,218972,1379
1783771117283600658,2026-07-11T18:58:37.283+07:00,837086318933804318,241234,192150,218977,1351
1783771117301782476,2026-07-11T18:58:37.301+07:00,837086318933804318,241188,192067,218976,1371
1783771117319964294,2026-07-11T18:58:37.319+07:00,837086318933804318,241204,192111,219021,1399
1783771117338146112,2026-07-11T18:58:37.338+07:00,837086318933804318,241246,192127,219045,1366
1783771117356327930,2026-07-11T18:58:37.356+07:00,837086318933804318,241155,192160,219042,1367
1783771117374509748,2026-07-11T18:58:37.374+07:00,837086318933804318,241180,192193,219066,1379
1783771117392691566,2026-07-11T18:58:37.392+07:00,837086318933804318,241064,192116,218989,1341
1783771117410873384,2026-07-11T18:58:37.410+07:00,837086318933804318,240965,191873,218851,1371
1783771117429055202,2026-07-11T18:58:37.429+07:00,837086318933804318,240594,191609,218488,1339
1783771117447237020,2026-07-11T18:58:37.447+07:00,837086318933804318,240192,191273,218156,1431
1783771117465418838,2026-07-11T18:58:37.465+07:00,837086318933804318,239637,190770,217630,1375
1783771117483600656,2026-07-11T18:58:37.483+07:00,837086318933804318,239047,190390,217117,1375
1783771117501782474,2026-07-11T18:58:37.501+07:00,837086318933804318,238541,190000,216645,1401
1783771117519964292,2026-07-11T18:58:37.519+07:00,837086319625497838,238118,189610,216383,1327
1783771117538146110,2026-07-11T18:58:37.538+07:00,837086319625497838,237796,189360,216058,1407
1783771117556327928,2026-07-11T18:58:37.556+07:00,837086319625497838,237553,189163,215806,1345
1783771117574509746,2026-07-11T18:58:37.574+07:00,837086319625497838,237323,189049,215624,1347
1783771117592691564,2026-07-11T18:58:37.592+07:00,837086319625497838,237147,188870,215463,1366
1783771117610873382,2026-07-11T18:58:37.610+07:00,837086319625497838,236858,188655,215266,1370
1783771117629055200,2026-07-11T18:58:37.629+07:00,837086319625497838,236546,188494,215030,1378
1783771117647237018,2026-07-11T18:58:37.647+07:00,837086319625497838,236281,188226,214740,1352
1783771117665418836,2026-07-11T18:58:37.665+07:00,837086319625497838,235989,187949,214492,1373
1783771117683600654,2026-07-11T18:58:37.683+07:00,837086319625497838,235696,187810,214256,1400
1783771117701782472,2026-07-11T18:58:37.701+07:00,837086319625497838,235364,187477,213882,1384
1783771117719964290,2026-07-11T18:58:37.719+07:00,837086319625497838,234960,187122,213522,1359
1783771117738146108,2026-07-11T18:58:37.738+07:00,837086319625497838,234607,186837,213216,1360
1783771117756327926,2026-07-11T18:58:37.756+07:00,837086319625497838,234367,186610,212960,1287
1783771117774509744,2026-07-11T18:58:37.774+07:00,837086319625497838,234078,186370,212721,1317
1783771117792691562,2026-07-11T18:58:37.792+07:00,837086319625497838,233863,186179,212555,1336
1783771117810873380,2026-07-11T18:58:37.810+07:00,837086319625497838,233781,186146,212489,1368
1783771117829055198,2026-07-11T18:58:37.829+07:00,837086319625497838,233770,186118,212509,1319
1783771117847237016,2026-07-11T18:58:37.847+07:00,837086319625497838,233838,186173,212506,1327
1783771117865418834,2026-07-11T18:58:37.865+07:00,837086319625497838,233814,186222,212497,1368
1783771117883600652,2026-07-11T18:58:37.883+07:00,837086319625497838,233784,186166,212426,1372
1783771117901782470,2026-07-11T18:58:37.901+07:00,837086319625497838,233541,185988,212265,1336
1783771117919964288,2026-07-11T18:58:37.919+07:00,837086319625497838,233395,185883,212118,1358
1783771117938146106,2026-07-11T18:58:37.938+07:00,837086319625497838,233161,185699,211886,1387
1783771117956327924,2026-07-11T18:58:37.956+07:00,837086319625497838,232972,185521,211708,1354
1783771117974509742,2026-07-11T18:58:37.974+07:00,837086319625497838,232712,185346,211513,1341
1783771117992691560,2026-07-11T18:58:37.992+07:00,837086319625497838,232409,185087,211170,1338
1783771118010873378,2026-07-11T18:58:38.010+07:00,837086319625497838,232003,184757,210770,1402
1783771118029055196,2026-07-11T18:58:38.029+07:00,837086319625497838,231450,184358,210273,1350
1783771118047237014,2026-07-11T18:58:38.047+07:00,837086319625497838,230966,183942,209739,1330
1783771118065418832,2026-07-11T18:58:38.065+07:00,837086319625497838,230542,183599,209337,1389
1783771118083600650,2026-07-11T18:58:38.083+07:00,837086319625497838,230168,183389,209053,1344
1783771118101782468,2026-07-11T18:58:38.101+07:00,837086319625497838,229843,183203,208796,1345
1783771118119964286,2026-07-11T18:58:38.119+07:00,837086319625497838,229581,183027,208653,1382
1783771118138146104,2026-07-11T18:58:38.138+07:00,837086319625497838,229395,182940,208555,1402
1783771118156327922,2026-07-11T18:58:38.156+07:00,837086319625497838,229341,182832,208521,1360
1783771118174509740,2026-07-11T18:58:38.174+07:00,837086319625497838,229306,182820,208539,1335
1783771118192691558,2026-07-11T18:58:38.192+07:00,837086319625497838,229338,182906,208584,1245
1783771118210873376,2026-07-11T18:58:38.210+07:00,837086320371798743,229372,182927,208591,1319
1783771118229055194,2026-07-11T18:58:38.229+07:00,837086320371798743,229427,182895,208608,1370
1783771118247237012,2026-07-11T18:58:38.247+07:00,837086320371798743,229302,182884,208524,1385
1783771118265418830,2026-07-11T18:58:38.265+07:00,837086320371798743,229078,182710,208323,1337
1783771118283600648,2026-07-11T18:58:38.283+07:00,837086320371798743,228819,182507,208146,1403
1783771118301782466,2026-07-11T18:58:38.301+07:00,837086320371798743,228505,182292,207978,1350
1783771118319964284,2026-07-11T18:58:38.319+07:00,837086320371798743,228339,182119,207847,1387
1783771118338146102,2026-07-11T18:58:38.338+07:00,837086320371798743,228247,182002,207760,1317
1783771118356327920,2026-07-11T18:58:38.356+07:00,837086320371798743,228264,181945,207701,1367
1783771118374509738,2026-07-11T18:58:38.374+07:00,837086320371798743,228369,182009,207711,1383
1783771118392691556,2026-07-11T18:58:38.392+07:00,837086320371798743,228381,181938,207638,1338
1783771118410873374,2026-07-11T18:58:38.410+07:00,837086320371798743,228302,181945,207555,1281
1783771118429055192,2026-07-11T18:58:38.429+07:00,837086320371798743,228259,181886,207475,1309
1783771118447237010,2026-07-11T18:58:38.447+07:00,837086320371798743,228104,181793,207387,1334
1783771118465418828,2026-07-11T18:58:38.465+07:00,837086320371798743,227833,181710,207250,1248
1783771118483600646,2026-07-11T18:58:38.483+07:00,837086320371798743,227728,181661,207150,1325
1783771118501782464,2026-07-11T18:58:38.501+07:00,837086320371798743,227622,181617,207128,1310
1783771118519964282,2026-07-11T18:58:38.519+07:00,837086320371798743,227575,181645,207207,1385
1783771118538146100,2026-07-11T18:58:38.538+07:00,837086320371798743,227596,181585,207236,1311
1783771118556327918,2026-07-11T18:58:38.556+07:00,837086320371798743,227706,181618,207329,1394
1783771118574509736,2026-07-11T18:58:38.574+07:00,837086320371798743,227777,181694,207391,1349
1783771118592691554,2026-07-11T18:58:38.592+07:00,837086320371798743,227717,181573,207221,1385
1783771118610873372,2026-07-11T18:58:38.610+07:00,837086320371798743,227398,181261,206829,1368
1783771118629055190,2026-07-11T18:58:38.629+07:00,837086320371798743,226960,180890,206453,1321
1783771118647237008,2026-07-11T18:58:38.647+07:00,837086320371798743,226466,180459,205989,1286
1783771118665418826,2026-07-11T18:58:38.665+07:00,837086320371798743,226051,180174,205657,1330
1783771118683600644,2026-07-11T18:58:38.683+07:00,837086320371798743,225711,179941,205321,1344
1783771118701782462,2026-07-11T18:58:38.701+07:00,837086320371798743,225591,179824,205248,1372
1783771118719964280,2026-07-11T18:58:38.719+07:00,837086320371798743,225520,179778,205170,1399
1783771118738146098,2026-07-11T18:58:38.738+07:00,837086320371798743,225546,179754,205101,1390
1783771118756327916,2026-07-11T18:58:38.756+07:00,837086320371798743,225566,179836,205112,1307
1783771118774509734,2026-07-11T18:58:38.774+07:00,837086320371798743,225493,179845,205068,1310
1783771118792691552,2026-07-11T18:58:38.792+07:00,837086320371798743,225490,179848,205052,1343
1783771118810873370,2026-07-11T18:58:38.810+07:00,837086320371798743,225373,179806,204977,1348
1783771118829055188,2026-07-11T18:58:38.829+07:00,837086320371798743,225293,179725,205031,1344
1783771118847237006,2026-07-11T18:58:38.847+07:00,837086320371798743,225184,179635,204984,1354
1783771118865418824,2026-07-11T18:58:38.865+07:00,837086320371798743,225099,179577,204925,1355
1783771118883600642,2026-07-11T18:58:38.883+07:00,837086320371798743,224996,179570,204925,1438
1783771118901782460,2026-07-11T18:58:38.901+07:00,837086320371798743,224863,179477,204821,1394
1783771118919964278,2026-07-11T18:58:38.919+07:00,837086320371798743,224752,179353,204779,1337
1783771118938146096,2026-07-11T18:58:38.938+07:00,837086320371798743,224650,179194,204657,1289
1783771118956327914,2026-07-11T18:58:38.956+07:00,837086321136303637,224469,179060,204529,1352
1783771118974509732,2026-07-11T18:58:38.974+07:00,837086321136303637,224321,178896,204358,1321
1783771118992691550,2026-07-11T18:58:38.992+07:00,837086321136303637,224163,178720,204194,1356
1783771119010873368,2026-07-11T18:58:39.010+07:00,837086321136303637,223982,178605,204096,1296
1783771119029055186,2026-07-11T18:58:39.029+07:00,837086321136303637,223866,178494,204065,1360
1783771119047237004,2026-07-11T18:58:39.047+07:00,837086321136303637,223665,178361,203890,1250
1783771119065418822,2026-07-11T18:58:39.065+07:00,837086321136303637,223672,178315,203898,1351
1783771119083600640,2026-07-11T18:58:39.083+07:00,837086321136303637,223594,178289,203900,1396
1783771119101782458,2026-07-11T18:58:39.101+07:00,837086321136303637,223591,178195,203873,1373
1783771119119964276,2026-07-11T18:58:39.119+07:00,837086321136303637,223545,178181,203835,1339
1783771119138146094,2026-07-11T18:58:39.138+07:00,837086321136303637,223417,177998,203702,1362
1783771119156327912,2026-07-11T18:58:39.156+07:00,837086321136303637,223181,177782,203465,1365
1783771119174509730,2026-07-11T18:58:39.174+07:00,837086321136303637,222918,177582,203236,1385
1783771119192691548,2026-07-11T18:58:39.192+07:00,837086321136303637,222682,177304,202969,1395
1783771119210873366,2026-07-11T18:58:39.210+07:00,837086321136303637,222299,177041,202697,1292
1783771119229055184,2026-07-11T18:58:39.229+07:00,837086321136303637,222216,176966,202604,1332
1783771119247237002,2026-07-11T18:58:39.247+07:00,837086321136303637,222148,176830,202569,1356
1783771119265418820,2026-07-11T18:58:39.265+07:00,837086321136303637,222124,176831,202572,1338
1783771119283600638,2026-07-11T18:58:39.283+07:00,837086321136303637,222150,176836,202519,1337
1783771119301782456,2026-07-11T18:58:39.301+07:00,837086321136303637,222110,176883,202589,1318
1783771119319964274,2026-07-11T18:58:39.319+07:00,837086321136303637,222205,176890,202721,1352
1783771119338146092,2026-07-11T18:58:39.338+07:00,837086321136303637,222242,176928,202776,1297
1783771119356327910,2026-07-11T18:58:39.356+07:00,837086321136303637,222286,176922,202934,1320
1783771119374509728,2026-07-11T18:58:39.374+07:00,837086321136303637,222162,176890,202916,1313
1783771119392691546,2026-07-11T18:58:39.392+07:00,837086321136303637,222119,176880,202924,1389
1783771119410873364,2026-07-11T18:58:39.410+07:00,837086321136303637,222039,176724,202851,1280
1783771119429055182,2026-07-11T18:58:39.429+07:00,837086321136303637,222077,176769,203063,1400
1783771119447237000,2026-07-11T18:58:39.447+07:00,837086321136303637,222114,176745,203105,1331
1783771119465418818,2026-07-11T18:58:39.465+07:00,837086321136303637,222236,176841,203241,1323
1783771119483600636,2026-07-11T18:58:39.483+07:00,837086321136303637,222563,177048,203481,1399
1783771119501782454,2026-07-11T18:58:39.501+07:00,837086321136303637,222824,177250,203710,1336
1783771119519964272,2026-07-11T18:58:39.519+07:00,837086321136303637,223185,177542,204062,1331
1783771119538146090,2026-07-11T18:58:39.538+07:00,837086321136303637,223605,177768,204402,1407
1783771119556327908,2026-07-11T18:58:39.556+07:00,837086321136303637,223873,178111,204712,1350
1783771119574509726,2026-07-11T18:58:39.574+07:00,837086321136303637,224239,178354,204993,1352
1783771119592691544,2026-07-11T18:58:39.592+07:00,837086321136303637,224501,178622,205345,1410
1783771119610873362,2026-07-11T18:58:39.610+07:00,837086321136303637,224803,178816,205609,1355
1783771119629055180,2026-07-11T18:58:39.629+07:00,837086321136303637,225134,179106,205931,1385
1783771119647236998,2026-07-11T18:58:39.647+07:00,837086321136303637,225534,179457,206274,1382
1783771119665418816,2026-07-11T18:58:39.665+07:00,837086321136303637,225766,179621,206409,1341
1783771119683600634,2026-07-11T18:58:39.683+07:00,837086321136303637,225833,179663,206493,1382
1783771119701782452,2026-07-11T18:58:39.701+07:00,837086321136303637,225757,179630,206393,1382
1783771119719964270,2026-07-11T18:58:39.719+07:00,837086321900822261,225656,179591,206224,1386
1783771119738146088,2026-07-11T18:58:39.738+07:00,837086321900822261,225606,179498,206101,1374
1783771119756327906,2026-07-11T18:58:39.756+07:00,837086321900822261,225473,179465,206023,1360
1783771119774509724,2026-07-11T18:58:39.774+07:00,837086321900822261,225515,179510,206000,1321
1783771119792691542,2026-07-11T18:58:39.792+07:00,837086321900822261,225721,179698,206084,1403
1783771119810873360,2026-07-11T18:58:39.810+07:00,837086321900822261,225925,179889,206179,1382
1783771119829055178,2026-07-11T18:58:39.829+07:00,837086321900822261,226016,180036,206225,1356
1783771119847236996,2026-07-11T18:58:39.847+07:00,837086321900822261,226245,180240,206302,1375
1783771119865418814,2026-07-11T18:58:39.865+07:00,837086321900822261,226380,180331,206321,1410
1783771119883600632,2026-07-11T18:58:39.883+07:00,837086321900822261,226444,180378,206350,1458
1783771119901782450,2026-07-11T18:58:39.901+07:00,837086321900822261,226302,180375,206220,1420
1783771119919964268,2026-07-11T18:58:39.919+07:00,837086321900822261,226143,180207,206083,1394
1783771119938146086,2026-07-11T18:58:39.938+07:00,837086321900822261,225904,180090,205838,1368
1783771119956327904,2026-07-11T18:58:39.956+07:00,837086321900822261,225810,180029,205756,1372
1783771119974509722,2026-07-11T18:58:39.974+07:00,837086321900822261,225753,180001,205719,1367
1783771119992691540,2026-07-11T18:58:39.992+07:00,837086321900822261,225823,180064,205737,1359
1783771120010873358,2026-07-11T18:58:40.010+07:00,837086321900822261,225958,180133,205778,1361
1783771120029055176,2026-07-11T18:58:40.029+07:00,837086321900822261,226037,180211,205873,1372
1783771120047236994,2026-07-11T18:58:40.047+07:00,837086321900822261,225969,180180,205808,1360
1783771120065418812,2026-07-11T18:58:40.065+07:00,837086321900822261,225747,179995,205518,1360
1783771120083600630,2026-07-11T18:58:40.083+07:00,837086321900822261,225369,179707,205228,1393
1783771120101782448,2026-07-11T18:58:40.101+07:00,837086321900822261,224971,179336,204832,1347
1783771120119964266,2026-07-11T18:58:40.119+07:00,837086321900822261,224516,179000,204428,1402
1783771120138146084,2026-07-11T18:58:40.138+07:00,837086321900822261,224126,178661,204114,1337
1783771120156327902,2026-07-11T18:58:40.156+07:00,837086321900822261,223904,178461,203925,1336
1783771120174509720,2026-07-11T18:58:40.174+07:00,837086321900822261,223826,178316,203846,1342
1783771120192691538,2026-07-11T18:58:40.192+07:00,837086321900822261,223708,178254,203707,1322
1783771120210873356,2026-07-11T18:58:40.210+07:00,837086321900822261,223726,178266,203720,1340
1783771120229055174,2026-07-11T18:58:40.229+07:00,837086321900822261,223847,178325,203831,1437
1783771120247236992,2026-07-11T18:58:40.247+07:00,837086321900822261,223889,178282,203840,1370
1783771120265418810,2026-07-11T18:58:40.265+07:00,837086321900822261,223943,178384,203908,1389
1783771120283600628,2026-07-11T18:58:40.283+07:00,837086321900822261,223912,178340,203871,1368
1783771120301782446,2026-07-11T18:58:40.301+07:00,837086321900822261,223808,178252,203799,1339
1783771120319964264,2026-07-11T18:58:40.319+07:00,837086321900822261,223715,178139,203777,1383
1783771120338146082,2026-07-11T18:58:40.338+07:00,837086321900822261,223684,178061,203737,1345
1783771120356327900,2026-07-11T18:58:40.356+07:00,837086321900822261,223593,178008,203643,1352
1783771120374509718,2026-07-11T18:58:40.374+07:00,837086321900822261,223535,177880,203608,1341
1783771120392691536,2026-07-11T18:58:40.392+07:00,837086321900822261,223505,177840,203599,1404
1783771120410873354,2026-07-11T18:58:40.410+07:00,837086321900822261,223463,177785,203570,1408
1783771120429055172,2026-07-11T18:58:40.429+07:00,837086321900822261,223453,177749,203550,1399
1783771120447236990,2026-07-11T18:58:40.447+07:00,837086321900822261,223395,177677,203509,1391
1783771120465418808,2026-07-11T18:58:40.465+07:00,837086321900822261,223341,177610,203468,1340
1783771120483600626,2026-07-11T18:58:40.483+07:00,837086322665163881,223275,177456,203357,1371
1783771120501782444,2026-07-11T18:58:40.501+07:00,837086322665163881,223165,177368,203276,1389
1783771120519964262,2026-07-11T18:58:40.519+07:00,837086322665163881,223053,177279,203172,1368
1783771120538146080,2026-07-11T18:58:40.538+07:00,837086322665163881,222738,177084,202933,1345
1783771120556327898,2026-07-11T18:58:40.556+07:00,837086322665163881,222458,176764,202664,1395
1783771120574509716,2026-07-11T18:58:40.574+07:00,837086322665163881,222171,176470,202441,1394
1783771120592691534,2026-07-11T18:58:40.592+07:00,837086322665163881,221940,176130,202156,1376
1783771120610873352,2026-07-11T18:58:40.610+07:00,837086322665163881,221667,175891,201945,1377
1783771120629055170,2026-07-11T18:58:40.629+07:00,837086322665163881,221565,175790,201787,1412
1783771120647236988,2026-07-11T18:58:40.647+07:00,837086322665163881,221422,175697,201645,1332
1783771120665418806,2026-07-11T18:58:40.665+07:00,837086322665163881,221369,175598,201679,1362
1783771120683600624,2026-07-11T18:58:40.683+07:00,837086322665163881,221345,175607,201664,1326
1783771120701782442,2026-07-11T18:58:40.701+07:00,837086322665163881,221433,175611,201695,1330
1783771120719964260,2026-07-11T18:58:40.719+07:00,837086322665163881,221485,175663,201774,1384
1783771120738146078,2026-07-11T18:58:40.738+07:00,837086322665163881,221447,175720,201793,1387
1783771120756327896,2026-07-11T18:58:40.756+07:00,837086322665163881,221465,175710,201879,1360
1783771120774509714,2026-07-11T18:58:40.774+07:00,837086322665163881,221459,175679,201862,1344
1783771120792691532,2026-07-11T18:58:40.792+07:00,837086322665163881,221443,175664,201952,1372
1783771120810873350,2026-07-11T18:58:40.810+07:00,837086322665163881,221370,175544,201952,1341
1783771120829055168,2026-07-11T18:58:40.829+07:00,837086322665163881,221257,175432,201921,1376
1783771120847236986,2026-07-11T18:58:40.847+07:00,837086322665163881,221261,175455,201929,1416
1783771120865418804,2026-07-11T18:58:40.865+07:00,837086322665163881,221287,175428,201987,1404
1783771120883600622,2026-07-11T18:58:40.883+07:00,837086322665163881,221358,175433,202043,1343
1783771120901782440,2026-07-11T18:58:40.901+07:00,837086322665163881,221565,175533,202215,1383
1783771120919964258,2026-07-11T18:58:40.919+07:00,837086322665163881,221753,175768,202468,1349
1783771120938146076,2026-07-11T18:58:40.938+07:00,837086322665163881,221973,175948,202655,1344
1783771120956327894,2026-07-11T18:58:40.956+07:00,837086322665163881,222251,176081,202945,1327
1783771120974509712,2026-07-11T18:58:40.974+07:00,837086322665163881,222572,176325,203188,1352
1783771120992691530,2026-07-11T18:58:40.992+07:00,837086322665163881,222843,176575,203411,1353
1783771121010873348,2026-07-11T18:58:41.010+07:00,837086322665163881,223143,176845,203730,1326
1783771121029055166,2026-07-11T18:58:41.029+07:00,837086322665163881,223412,177105,204005,1332
1783771121047236984,2026-07-11T18:58:41.047+07:00,837086322665163881,223575,177266,204163,1336
1783771121065418802,2026-07-11T18:58:41.065+07:00,837086322665163881,223695,177332,204409,1344
1783771121083600620,2026-07-11T18:58:41.083+07:00,837086322665163881,223759,177366,204433,1289
1783771121101782438,2026-07-11T18:58:41.101+07:00,837086322665163881,223889,177474,204553,1375
1783771121119964256,2026-07-11T18:58:41.119+07:00,837086322665163881,223991,177529,204634,1332
1783771121138146074,2026-07-11T18:58:41.138+07:00,837086322665163881,224066,177588,204662,1383
1783771121156327892,2026-07-11T18:58:41.156+07:00,837086322665163881,224145,177610,204758,1369
1783771121174509710,2026-07-11T18:58:41.174+07:00,837086322665163881,224279,177713,204824,1377
1783771121192691528,2026-07-11T18:58:41.192+07:00,837086322665163881,224352,177772,204928,1331
1783771121210873346,2026-07-11T18:58:41.210+07:00,837086322665163881,224424,177849,205061,1367
1783771121229055164,2026-07-11T18:58:41.229+07:00,837086322665163881,224502,177927,205113,1359
1783771121247236982,2026-07-11T18:58:41.247+07:00,837086323429505501,224563,177935,205166,1302
1783771121265418800,2026-07-11T18:58:41.265+07:00,837086323429505501,224605,178010,205269,1347
1783771121283600618,2026-07-11T18:58:41.283+07:00,837086323429505501,224683,178057,205377,1353
1783771121301782436,2026-07-11T18:58:41.301+07:00,837086323429505501,224837,178102,205436,1349
1783771121319964254,2026-07-11T18:58:41.319+07:00,837086323429505501,224914,178127,205536,1305
1783771121338146072,2026-07-11T18:58:41.338+07:00,837086323429505501,225045,178312,205688,1375
1783771121356327890,2026-07-11T18:58:41.356+07:00,837086323429505501,225220,178431,205871,1297
1783771121374509708,2026-07-11T18:58:41.374+07:00,837086323429505501,225405,178553,206051,1306
1783771121392691526,2026-07-11T18:58:41.392+07:00,837086323429505501,225678,178750,206268,1274
1783771121410873344,2026-07-11T18:58:41.410+07:00,837086323429505501,225961,178970,206575,1377
1783771121429055162,2026-07-11T18:58:41.429+07:00,837086323429505501,226229,179148,206819,1376
1783771121447236980,2026-07-11T18:58:41.447+07:00,837086323429505501,226407,179310,207027,1348
1783771121465418798,2026-07-11T18:58:41.465+07:00,837086323429505501,226633,179446,207164,1406
1783771121483600616,2026-07-11T18:58:41.483+07:00,837086323429505501,226676,179500,207148,1349
1783771121501782434,2026-07-11T18:58:41.501+07:00,837086323429505501,226728,179551,207191,1356
1783771121519964252,2026-07-11T18:58:41.519+07:00,837086323429505501,226743,179494,207276,1353
1783771121538146070,2026-07-11T18:58:41.538+07:00,837086323429505501,226797,179571,207375,1377
1783771121556327888,2026-07-11T18:58:41.556+07:00,837086323429505501,226798,179575,207423,1303
1783771121574509706,2026-07-11T18:58:41.574+07:00,837086323429505501,226912,179695,207501,1327
1783771121592691524,2026-07-11T18:58:41.592+07:00,837086323429505501,227043,179789,207599,1321
1783771121610873342,2026-07-11T18:58:41.610+07:00,837086323429505501,227183,179954,207783,1336
1783771121629055160,2026-07-11T18:58:41.629+07:00,837086323429505501,227378,180086,207961,1343
1783771121647236978,2026-07-11T18:58:41.647+07:00,837086323429505501,227603,180202,208236,1355
1783771121665418796,2026-07-11T18:58:41.665+07:00,837086323429505501,227790,180394,208377,1328
1783771121683600614,2026-07-11T18:58:41.683+07:00,837086323429505501,228002,180556,208556,1367
1783771121701782432,2026-07-11T18:58:41.701+07:00,837086323429505501,228210,180745,208860,1320
1783771121719964250,2026-07-11T18:58:41.719+07:00,837086323429505501,228466,180920,209033,1316
1783771121738146068,2026-07-11T18:58:41.738+07:00,837086323429505501,228664,181085,209201,1380
1783771121756327886,2026-07-11T18:58:41.756+07:00,837086323429505501,228771,181166,209290,1335
1783771121774509704,2026-07-11T18:58:41.774+07:00,837086323429505501,228896,181279,209487,1359
1783771121792691522,2026-07-11T18:58:41.792+07:00,837086323429505501,229043,181351,209590,1377
1783771121810873340,2026-07-11T18:58:41.810+07:00,837086323429505501,229111,181512,209654,1306
1783771121829055158,2026-07-11T18:58:41.829+07:00,837086323429505501,229315,181601,209819,1389
1783771121847236976,2026-07-11T18:58:41.847+07:00,837086323429505501,229270,181613,209773,1333
1783771121865418794,2026-07-11T18:58:41.865+07:00,837086323429505501,229193,181476,209710,1336
1783771121883600612,2026-07-11T18:58:41.883+07:00,837086323429505501,229071,181376,209551,1323
1783771121901782430,2026-07-11T18:58:41.901+07:00,837086323429505501,228940,181268,209448,1362
1783771121919964248,2026-07-11T18:58:41.919+07:00,837086323429505501,228829,181154,209303,1388
1783771121938146066,2026-07-11T18:58:41.938+07:00,837086323429505501,228774,181092,209188,1335
1783771121956327884,2026-07-11T18:58:41.956+07:00,837086323429505501,228838,181177,209283,1429
1783771121974509702,2026-07-11T18:58:41.974+07:00,837086323429505501,228855,181136,209299,1384
1783771121992691520,2026-07-11T18:58:41.992+07:00,837086323429505501,228912,181188,209254,1326
1783771122010873338,2026-07-11T18:58:42.010+07:00,837086324193860855,229071,181280,209324,1358
1783771122029055156,2026-07-11T18:58:42.029+07:00,837086324193860855,229145,181348,209482,1362
1783771122047236974,2026-07-11T18:58:42.047+07:00,837086324193860855,229217,181442,209555,1350
1783771122065418792,2026-07-11T18:58:42.065+07:00,837086324193860855,229275,181512,209639,1339
1783771122083600610,2026-07-11T18:58:42.083+07:00,837086324193860855,229303,181537,209651,1371
1783771122101782428,2026-07-11T18:58:42.101+07:00,837086324193860855,229314,181568,209674,1393
1783771122119964246,2026-07-11T18:58:42.119+07:00,837086324193860855,229263,181503,209605,1292
1783771122138146064,2026-07-11T18:58:42.138+07:00,837086324193860855,229201,181382,209522,1399
1783771122156327882,2026-07-11T18:58:42.156+07:00,837086324193860855,229071,181307,209490,1386
1783771122174509700,2026-07-11T18:58:42.174+07:00,837086324193860855,228997,181272,209366,1367
1783771122192691518,2026-07-11T18:58:42.192+07:00,837086324193860855,228880,181142,209189,1345
1783771122210873336,2026-07-11T18:58:42.210+07:00,837086324193860855,228703,180955,209113,1286
1783771122229055154,2026-07-11T18:58:42.229+07:00,837086324193860855,228615,180854,209056,1392
1783771122247236972,2026-07-11T18:58:42.247+07:00,837086324193860855,228377,180617,208763,1378
1783771122265418790,2026-07-11T18:58:42.265+07:00,837086324193860855,228116,180337,208470,1356
1783771122283600608,2026-07-11T18:58:42.283+07:00,837086324193860855,227717,179999,208084,1356
1783771122301782426,2026-07-11T18:58:42.301+07:00,837086324193860855,227387,179676,207765,1389
1783771122319964244,2026-07-11T18:58:42.319+07:00,837086324193860855,227074,179386,207392,1348
1783771122338146062,2026-07-11T18:58:42.338+07:00,837086324193860855,226790,179190,207098,1355
1783771122356327880,2026-07-11T18:58:42.356+07:00,837086324193860855,226543,178884,206854,1365
1783771122374509698,2026-07-11T18:58:42.374+07:00,837086324193860855,226265,178759,206635,1361
1783771122392691516,2026-07-11T18:58:42.392+07:00,837086324193860855,226136,178611,206547,1299
1783771122410873334,2026-07-11T18:58:42.410+07:00,837086324193860855,226133,178564,206474,1360
1783771122429055152,2026-07-11T18:58:42.429+07:00,837086324193860855,226119,178591,206408,1357
1783771122447236970,2026-07-11T18:58:42.447+07:00,837086324193860855,226133,178580,206379,1321
1783771122465418788,2026-07-11T18:58:42.465+07:00,837086324193860855,226160,178605,206362,1309
1783771122483600606,2026-07-11T18:58:42.483+07:00,837086324193860855,226246,178681,206367,1326
1783771122501782424,2026-07-11T18:58:42.501+07:00,837086324193860855,226279,178732,206382,1367
1783771122519964242,2026-07-11T18:58:42.519+07:00,837086324193860855,226366,178743,206403,1350
1783771122538146060,2026-07-11T18:58:42.538+07:00,837086324193860855,226402,178752,206351,1334
1783771122556327878,2026-07-11T18:58:42.556+07:00,837086324193860855,226378,178786,206306,1285
1783771122574509696,2026-07-11T18:58:42.574+07:00,837086324193860855,226409,178774,206238,1326
1783771122592691514,2026-07-11T18:58:42.592+07:00,837086324193860855,226385,178806,206178,1370
1783771122610873332,2026-07-11T18:58:42.610+07:00,837086324193860855,226389,178768,206126,1390
1783771122629055150,2026-07-11T18:58:42.629+07:00,837086324193860855,226409,178852,206136,1334
1783771122647236968,2026-07-11T18:58:42.647+07:00,837086324193860855,226402,178805,206022,1308
1783771122665418786,2026-07-11T18:58:42.665+07:00,837086324193860855,226336,178753,205861,1383
1783771122683600604,2026-07-11T18:58:42.683+07:00,837086324193860855,226208,178631,205598,1388
1783771122701782422,2026-07-11T18:58:42.701+07:00,837086324193860855,226018,178466,205278,1338
1783771122719964240,2026-07-11T18:58:42.719+07:00,837086324193860855,225858,178349,205048,1343
1783771122738146058,2026-07-11T18:58:42.738+07:00,837086324193860855,225721,178293,204846,1340
1783771122756327876,2026-07-11T18:58:42.756+07:00,837086324193860855,225664,178311,204716,1299
1783771122774509694,2026-07-11T18:58:42.774+07:00,837086324958219259,225719,178454,204723,1374
1783771122792691512,2026-07-11T18:58:42.792+07:00,837086324958219259,225795,178580,204832,1322
1783771122810873330,2026-07-11T18:58:42.810+07:00,837086324958219259,226000,178863,205014,1326
1783771122829055148,2026-07-11T18:58:42.829+07:00,837086324958219259,226279,179122,205189,1358
1783771122847236966,2026-07-11T18:58:42.847+07:00,837086324958219259,226539,179439,205466,1393
1783771122865418784,2026-07-11T18:58:42.865+07:00,837086324958219259,226814,179825,205800,1353
1783771122883600602,2026-07-11T18:58:42.883+07:00,837086324958219259,227111,180219,206082,1353
1783771122901782420,2026-07-11T18:58:42.901+07:00,837086324958219259,227465,180582,206483,1389
1783771122919964238,2026-07-11T18:58:42.919+07:00,837086324958219259,227802,180889,206765,1343
1783771122938146056,2026-07-11T18:58:42.938+07:00,837086324958219259,228129,181264,207208,1397
1783771122956327874,2026-07-11T18:58:42.956+07:00,837086324958219259,228387,181675,207570,1384
1783771122974509692,2026-07-11T18:58:42.974+07:00,837086324958219259,228689,181994,207968,1350
1783771122992691510,2026-07-11T18:58:42.992+07:00,837086324958219259,228974,182330,208170,1349
1783771123010873328,2026-07-11T18:58:43.010+07:00,837086324958219259,229209,182626,208475,1335
1783771123029055146,2026-07-11T18:58:43.029+07:00,837086324958219259,229416,182863,208657,1272
1783771123047236964,2026-07-11T18:58:43.047+07:00,837086324958219259,229727,183235,209006,1304
1783771123065418782,2026-07-11T18:58:43.065+07:00,837086324958219259,230017,183530,209289,1385
1783771123083600600,2026-07-11T18:58:43.083+07:00,837086324958219259,230232,183752,209528,1324
1783771123101782418,2026-07-11T18:58:43.101+07:00,837086324958219259,230510,183998,209759,1367
1783771123119964236,2026-07-11T18:58:43.119+07:00,837086324958219259,230592,184177,209879,1349
1783771123138146054,2026-07-11T18:58:43.138+07:00,837086324958219259,230654,184294,209962,1423
1783771123156327872,2026-07-11T18:58:43.156+07:00,837086324958219259,230663,184365,210017,1301
1783771123174509690,2026-07-11T18:58:43.174+07:00,837086324958219259,230760,184507,210037,1285
1783771123192691508,2026-07-11T18:58:43.192+07:00,837086324958219259,230862,184709,210207,1332
1783771123210873326,2026-07-11T18:58:43.210+07:00,837086324958219259,231072,184970,210416,1337
1783771123229055144,2026-07-11T18:58:43.229+07:00,837086324958219259,231244,185287,210563,1317
1783771123247236962,2026-07-11T18:58:43.247+07:00,837086324958219259,231403,185583,210743,1328
1783771123265418780,2026-07-11T18:58:43.265+07:00,837086324958219259,231671,185765,210951,1353
1783771123283600598,2026-07-11T18:58:43.283+07:00,837086324958219259,231928,186108,211213,1330
1783771123301782416,2026-07-11T18:58:43.301+07:00,837086324958219259,232092,186452,211479,1377
1783771123319964234,2026-07-11T18:58:43.319+07:00,837086324958219259,232325,186687,211723,1372
1783771123338146052,2026-07-11T18:58:43.338+07:00,837086324958219259,232520,187000,212082,1365
1783771123356327870,2026-07-11T18:58:43.356+07:00,837086324958219259,232775,187215,212306,1369
1783771123374509688,2026-07-11T18:58:43.374+07:00,837086324958219259,232938,187459,212513,1405
1783771123392691506,2026-07-11T18:58:43.392+07:00,837086324958219259,233069,187665,212796,1395
1783771123410873324,2026-07-11T18:58:43.410+07:00,837086324958219259,233310,187854,213074,1350
1783771123429055142,2026-07-11T18:58:43.429+07:00,837086324958219259,233486,188071,213317,1357
1783771123447236960,2026-07-11T18:58:43.447+07:00,837086324958219259,233649,188271,213565,1348
1783771123465418778,2026-07-11T18:58:43.465+07:00,837086324958219259,233760,188385,213692,1324
1783771123483600596,2026-07-11T18:58:43.483+07:00,837086324958219259,233973,188580,213964,1313
1783771123501782414,2026-07-11T18:58:43.501+07:00,837086324958219259,234127,188753,214112,1308
1783771123519964232,2026-07-11T18:58:43.519+07:00,837086324958219259,234355,188928,214358,1338
1783771123538146050,2026-07-11T18:58:43.538+07:00,837086325722530361,234449,189114,214437,1330
1783771123556327868,2026-07-11T18:58:43.556+07:00,837086325722530361,234542,189220,214499,1287
1783771123574509686,2026-07-11T18:58:43.574+07:00,837086325722530361,234667,189336,214555,1323
1783771123592691504,2026-07-11T18:58:43.592+07:00,837086325722530361,234817,189399,214626,1293
1783771123610873322,2026-07-11T18:58:43.610+07:00,837086325722530361,234953,189543,214845,1336
1783771123629055140,2026-07-11T18:58:43.629+07:00,837086325722530361,235021,189590,214946,1365
1783771123647236958,2026-07-11T18:58:43.647+07:00,837086325722530361,235147,189694,215022,1371
1783771123665418776,2026-07-11T18:58:43.665+07:00,837086325722530361,235331,189766,215120,1326
1783771123683600594,2026-07-11T18:58:43.683+07:00,837086325722530361,235485,189892,215247,1317
1783771123701782412,2026-07-11T18:58:43.701+07:00,837086325722530361,235602,190048,215434,1353
1783771123719964230,2026-07-11T18:58:43.719+07:00,837086325722530361,235732,190035,215475,1317
1783771123738146048,2026-07-11T18:58:43.738+07:00,837086325722530361,235847,190185,215620,1369
1783771123756327866,2026-07-11T18:58:43.756+07:00,837086325722530361,235994,190291,215789,1396
1783771123774509684,2026-07-11T18:58:43.774+07:00,837086325722530361,236089,190358,215851,1394
1783771123792691502,2026-07-11T18:58:43.792+07:00,837086325722530361,236151,190448,215928,1406
1783771123810873320,2026-07-11T18:58:43.810+07:00,837086325722530361,236210,190516,215972,1387
1783771123829055138,2026-07-11T18:58:43.829+07:00,837086325722530361,236325,190658,216096,1334
1783771123847236956,2026-07-11T18:58:43.847+07:00,837086325722530361,236436,190736,216185,1342
1783771123865418774,2026-07-11T18:58:43.865+07:00,837086325722530361,236571,190838,216264,1371
1783771123883600592,2026-07-11T18:58:43.883+07:00,837086325722530361,236636,190977,216384,1362
1783771123901782410,2026-07-11T18:58:43.901+07:00,837086325722530361,236723,190982,216454,1353
1783771123919964228,2026-07-11T18:58:43.919+07:00,837086325722530361,236798,191090,216566,1331
1783771123938146046,2026-07-11T18:58:43.938+07:00,837086325722530361,236903,191108,216596,1340
1783771123956327864,2026-07-11T18:58:43.956+07:00,837086325722530361,236811,190993,216549,1313
1783771123974509682,2026-07-11T18:58:43.974+07:00,837086325722530361,236803,190953,216501,1308
1783771123992691500,2026-07-11T18:58:43.992+07:00,837086325722530361,236738,190984,216480,1308
1783771124010873318,2026-07-11T18:58:44.010+07:00,837086325722530361,236822,190957,216502,1342
1783771124029055136,2026-07-11T18:58:44.029+07:00,837086325722530361,236788,190973,216513,1317
1783771124047236954,2026-07-11T18:58:44.047+07:00,837086325722530361,236845,191124,216523,1284
1783771124065418772,2026-07-11T18:58:44.065+07:00,837086325722530361,236930,191289,216663,1337
1783771124083600590,2026-07-11T18:58:44.083+07:00,837086325722530361,236966,191314,216807,1338
1783771124101782408,2026-07-11T18:58:44.101+07:00,837086325722530361,237041,191476,216958,1351
1783771124119964226,2026-07-11T18:58:44.119+07:00,837086325722530361,237164,191661,217064,1395
1783771124138146044,2026-07-11T18:58:44.138+07:00,837086325722530361,237221,191743,217191,1344
1783771124156327862,2026-07-11T18:58:44.156+07:00,837086325722530361,237368,191887,217331,1316
1783771124174509680,2026-07-11T18:58:44.174+07:00,837086325722530361,237486,191942,217452,1313
1783771124192691498,2026-07-11T18:58:44.192+07:00,837086325722530361,237614,192067,217565,1305
1783771124210873316,2026-07-11T18:58:44.210+07:00,837086325722530361,237736,192158,217668,1354
1783771124229055134,2026-07-11T18:58:44.229+07:00,837086325722530361,237873,192328,217815,1374
1783771124247236952,2026-07-11T18:58:44.247+07:00,837086325722530361,238018,192354,217802,1300
1783771124265418770,2026-07-11T18:58:44.265+07:00,837086325722530361,238142,192441,217962,1325
1783771124283600588,2026-07-11T18:58:44.283+07:00,837086325722530361,238296,192611,218088,1397
1783771124301782406,2026-07-11T18:58:44.301+07:00,837086326486841463,238360,192619,218251,1331
1783771124319964224,2026-07-11T18:58:44.319+07:00,837086326486841463,238522,192739,218375,1367
1783771124338146042,2026-07-11T18:58:44.338+07:00,837086326486841463,238543,192804,218404,1270
1783771124356327860,2026-07-11T18:58:44.356+07:00,837086326486841463,238588,192772,218460,1314
1783771124374509678,2026-07-11T18:58:44.374+07:00,837086326486841463,238576,192770,218391,1365
1783771124392691496,2026-07-11T18:58:44.392+07:00,837086326486841463,238521,192742,218394,1367
1783771124410873314,2026-07-11T18:58:44.410+07:00,837086326486841463,238452,192718,218236,1339
1783771124429055132,2026-07-11T18:58:44.429+07:00,837086326486841463,238425,192735,218185,1325
1783771124447236950,2026-07-11T18:58:44.447+07:00,837086326486841463,238403,192696,218233,1328
1783771124465418768,2026-07-11T18:58:44.465+07:00,837086326486841463,238438,192678,218221,1297
1783771124483600586,2026-07-11T18:58:44.483+07:00,837086326486841463,238495,192860,218323,1348
1783771124501782404,2026-07-11T18:58:44.501+07:00,837086326486841463,238585,192947,218410,1342
1783771124519964222,2026-07-11T18:58:44.519+07:00,837086326486841463,238654,193055,218493,1308
1783771124538146040,2026-07-11T18:58:44.538+07:00,837086326486841463,238738,193204,218630,1325
1783771124556327858,2026-07-11T18:58:44.556+07:00,837086326486841463,238820,193221,218626,1291
1783771124574509676,2026-07-11T18:58:44.574+07:00,837086326486841463,238924,193382,218680,1299
1783771124592691494,2026-07-11T18:58:44.592+07:00,837086326486841463,239057,193463,218754,1382
1783771124610873312,2026-07-11T18:58:44.610+07:00,837086326486841463,239208,193596,218836,1353
1783771124629055130,2026-07-11T18:58:44.629+07:00,837086326486841463,239399,193761,218988,1394
1783771124647236948,2026-07-11T18:58:44.647+07:00,837086326486841463,239513,193888,219062,1370
1783771124665418766,2026-07-11T18:58:44.665+07:00,837086326486841463,239638,193993,219266,1422
1783771124683600584,2026-07-11T18:58:44.683+07:00,837086326486841463,239709,194030,219261,1405
1783771124701782402,2026-07-11T18:58:44.701+07:00,837086326486841463,239786,194134,219416,1380
1783771124719964220,2026-07-11T18:58:44.719+07:00,837086326486841463,239913,194193,219544,1391
1783771124738146038,2026-07-11T18:58:44.738+07:00,837086326486841463,240084,194277,219665,1382
1783771124756327856,2026-07-11T18:58:44.756+07:00,837086326486841463,240160,194355,219785,1326
1783771124774509674,2026-07-11T18:58:44.774+07:00,837086326486841463,240191,194356,219852,1325
1783771124792691492,2026-07-11T18:58:44.792+07:00,837086326486841463,240266,194370,219887,1390
1783771124810873310,2026-07-11T18:58:44.810+07:00,837086326486841463,240189,194293,219760,1379
1783771124829055128,2026-07-11T18:58:44.829+07:00,837086326486841463,240163,194347,219758,1382
1783771124847236946,2026-07-11T18:58:44.847+07:00,837086326486841463,240252,194315,219698,1377
1783771124865418764,2026-07-11T18:58:44.865+07:00,837086326486841463,240265,194373,219783,1409
1783771124883600582,2026-07-11T18:58:44.883+07:00,837086326486841463,240247,194405,219728,1347
1783771124901782400,2026-07-11T18:58:44.901+07:00,837086326486841463,240339,194400,219807,1379
1783771124919964218,2026-07-11T18:58:44.919+07:00,837086326486841463,240383,194468,219803,1372
1783771124938146036,2026-07-11T18:58:44.938+07:00,837086326486841463,240486,194554,219834,1333
1783771124956327854,2026-07-11T18:58:44.956+07:00,837086326486841463,240613,194703,220008,1375
1783771124974509672,2026-07-11T18:58:44.974+07:00,837086326486841463,240763,194769,220062,1344
1783771124992691490,2026-07-11T18:58:44.992+07:00,837086326486841463,240905,194865,220165,1315
1783771125010873308,2026-07-11T18:58:45.010+07:00,837086326486841463,241114,194985,220250,1282
1783771125029055126,2026-07-11T18:58:45.029+07:00,837086326486841463,241306,195172,220431,1266
1783771125047236944,2026-07-11T18:58:45.047+07:00,837086326486841463,241476,195232,220616,1298
1783771125065418762,2026-07-11T18:58:45.065+07:00,837086327251183083,241624,195416,220812,1309
1783771125083600580,2026-07-11T18:58:45.083+07:00,837086327251183083,241807,195486,220782,1370
1783771125101782398,2026-07-11T18:58:45.101+07:00,837086327251183083,241872,195610,220893,1344
1783771125119964216,2026-07-11T18:58:45.119+07:00,837086327251183083,242048,195735,220969,1355
1783771125138146034,2026-07-11T18:58:45.138+07:00,837086327251183083,242179,195832,221059,1304
1783771125156327852,2026-07-11T18:58:45.156+07:00,837086327251183083,242291,195939,221227,1339
1783771125174509670,2026-07-11T18:58:45.174+07:00,837086327251183083,242401,196085,221257,1382
1783771125192691488,2026-07-11T18:58:45.192+07:00,837086327251183083,242475,196059,221332,1360
1783771125210873306,2026-07-11T18:58:45.210+07:00,837086327251183083,242473,196103,221338,1319
1783771125229055124,2026-07-11T18:58:45.229+07:00,837086327251183083,242482,196116,221294,1320
1783771125247236942,2026-07-11T18:58:45.247+07:00,837086327251183083,242471,196155,221295,1305
1783771125265418760,2026-07-11T18:58:45.265+07:00,837086327251183083,242504,196181,221293,1359
1783771125283600578,2026-07-11T18:58:45.283+07:00,837086327251183083,242526,196241,221277,1351
1783771125301782396,2026-07-11T18:58:45.301+07:00,837086327251183083,242635,196283,221379,1341
1783771125319964214,2026-07-11T18:58:45.319+07:00,837086327251183083,242671,196380,221390,1371
1783771125338146032,2026-07-11T18:58:45.338+07:00,837086327251183083,242770,196486,221519,1348
1783771125356327850,2026-07-11T18:58:45.356+07:00,837086327251183083,242828,196615,221595,1391
1783771125374509668,2026-07-11T18:58:45.374+07:00,837086327251183083,242947,196732,221661,1369
1783771125392691486,2026-07-11T18:58:45.392+07:00,837086327251183083,243091,196817,221786,1406
1783771125410873304,2026-07-11T18:58:45.410+07:00,837086327251183083,243147,196850,221856,1313
1783771125429055122,2026-07-11T18:58:45.429+07:00,837086327251183083,243217,196902,221952,1313
1783771125447236940,2026-07-11T18:58:45.447+07:00,837086327251183083,243335,197000,222049,1324
1783771125465418758,2026-07-11T18:58:45.465+07:00,837086327251183083,243448,197071,222134,1401
1783771125483600576,2026-07-11T18:58:45.483+07:00,837086327251183083,243475,197103,222143,1336
1783771125501782394,2026-07-11T18:58:45.501+07:00,837086327251183083,243516,197085,222198,1352
1783771125519964212,2026-07-11T18:58:45.519+07:00,837086327251183083,243572,197140,222354,1349
1783771125538146030,2026-07-11T18:58:45.538+07:00,837086327251183083,243658,197269,222387,1347
1783771125556327848,2026-07-11T18:58:45.556+07:00,837086327251183083,243749,197426,222520,1379
1783771125574509666,2026-07-11T18:58:45.574+07:00,837086327251183083,243837,197519,222593,1384
1783771125592691484,2026-07-11T18:58:45.592+07:00,837086327251183083,243887,197632,222689,1368
1783771125610873302,2026-07-11T18:58:45.610+07:00,837086327251183083,243930,197654,222663,1335
1783771125629055120,2026-07-11T18:58:45.629+07:00,837086327251183083,243813,197576,222595,1326
1783771125647236938,2026-07-11T18:58:45.647+07:00,837086327251183083,243707,197521,222450,1320
1783771125665418756,2026-07-11T18:58:45.665+07:00,837086327251183083,243690,197459,222328,1373
1783771125683600574,2026-07-11T18:58:45.683+07:00,837086327251183083,243655,197488,222252,1333
1783771125701782392,2026-07-11T18:58:45.701+07:00,837086327251183083,243659,197509,222192,1337
1783771125719964210,2026-07-11T18:58:45.719+07:00,837086327251183083,243743,197507,222233,1340
1783771125738146028,2026-07-11T18:58:45.738+07:00,837086327251183083,243865,197543,222253,1349
1783771125756327846,2026-07-11T18:58:45.756+07:00,837086327251183083,243982,197676,222349,1349
1783771125774509664,2026-07-11T18:58:45.774+07:00,837086327251183083,244181,197812,222532,1378
1783771125792691482,2026-07-11T18:58:45.792+07:00,837086327251183083,244224,197884,222574,1361
1783771125810873300,2026-07-11T18:58:45.810+07:00,837086327251183083,244304,197968,222668,1336
1783771125829055118,2026-07-11T18:58:45.829+07:00,837086328033692076,244416,198011,222842,1344
1783771125847236936,2026-07-11T18:58:45.847+07:00,837086328033692076,244507,198102,222998,1395
1783771125865418754,2026-07-11T18:58:45.865+07:00,837086328033692076,244493,198160,223069,1341
1783771125883600572,2026-07-11T18:58:45.883+07:00,837086328033692076,244490,198266,223072,1354
1783771125901782390,2026-07-11T18:58:45.901+07:00,837086328033692076,244537,198279,223150,1387
1783771125919964208,2026-07-11T18:58:45.919+07:00,837086328033692076,244536,198334,223192,1350
1783771125938146026,2026-07-11T18:58:45.938+07:00,837086328033692076,244519,198348,223209,1370
1783771125956327844,2026-07-11T18:58:45.956+07:00,837086328033692076,244432,198294,223226,1353
1783771125974509662,2026-07-11T18:58:45.974+07:00,837086328033692076,244508,198280,223329,1323
1783771125992691480,2026-07-11T18:58:45.992+07:00,837086328033692076,244483,198309,223353,1322
1783771126010873298,2026-07-11T18:58:46.010+07:00,837086328033692076,244537,198291,223336,1288
1783771126029055116,2026-07-11T18:58:46.029+07:00,837086328033692076,244586,198321,223423,1332
1783771126047236934,2026-07-11T18:58:46.047+07:00,837086328033692076,244599,198311,223440,1290
1783771126065418752,2026-07-11T18:58:46.065+07:00,837086328033692076,244617,198317,223400,1344
1783771126083600570,2026-07-11T18:58:46.083+07:00,837086328033692076,244580,198263,223307,1317
1783771126101782388,2026-07-11T18:58:46.101+07:00,837086328033692076,244496,198173,223205,1324
1783771126119964206,2026-07-11T18:58:46.119+07:00,837086328033692076,244478,198107,223131,1315
1783771126138146024,2026-07-11T18:58:46.138+07:00,837086328033692076,244482,198085,223065,1336
1783771126156327842,2026-07-11T18:58:46.156+07:00,837086328033692076,244463,198035,223018,1341
1783771126174509660,2026-07-11T18:58:46.174+07:00,837086328033692076,244445,198069,223067,1318
1783771126192691478,2026-07-11T18:58:46.192+07:00,837086328033692076,244505,198126,223163,1314
1783771126210873296,2026-07-11T18:58:46.210+07:00,837086328033692076,244520,198118,223220,1272
1783771126229055114,2026-07-11T18:58:46.229+07:00,837086328033692076,244652,198215,223301,1281
1783771126247236932,2026-07-11T18:58:46.247+07:00,837086328033692076,244727,198298,223410,1284
1783771126265418750,2026-07-11T18:58:46.265+07:00,837086328033692076,244870,198465,223542,1394
1783771126283600568,2026-07-11T18:58:46.283+07:00,837086328033692076,244990,198541,223552,1314
1783771126301782386,2026-07-11T18:58:46.301+07:00,837086328033692076,245062,198619,223632,1294
1783771126319964204,2026-07-11T18:58:46.319+07:00,837086328033692076,245261,198703,223757,1385
1783771126338146022,2026-07-11T18:58:46.338+07:00,837086328033692076,245322,198801,223814,1388
1783771126356327840,2026-07-11T18:58:46.356+07:00,837086328033692076,245451,198944,223933,1393
1783771126374509658,2026-07-11T18:58:46.374+07:00,837086328033692076,245501,198900,224044,1334
1783771126392691476,2026-07-11T18:58:46.392+07:00,837086328033692076,245552,199072,224100,1382
1783771126410873294,2026-07-11T18:58:46.410+07:00,837086328033692076,245648,199061,224157,1394
1783771126429055112,2026-07-11T18:58:46.429+07:00,837086328033692076,245789,199117,224178,1356
1783771126447236930,2026-07-11T18:58:46.447+07:00,837086328033692076,245845,199258,224203,1374
1783771126465418748,2026-07-11T18:58:46.465+07:00,837086328033692076,246043,199402,224274,1402
1783771126483600566,2026-07-11T18:58:46.483+07:00,837086328033692076,246149,199496,224355,1353
1783771126501782384,2026-07-11T18:58:46.501+07:00,837086328033692076,246301,199556,224372,1379
1783771126519964202,2026-07-11T18:58:46.519+07:00,837086328033692076,246311,199543,224269,1298
1783771126538146020,2026-07-11T18:58:46.538+07:00,837086328033692076,246342,199469,224248,1322
1783771126556327838,2026-07-11T18:58:46.556+07:00,837086328033692076,246320,199415,224028,1382
1783771126574509656,2026-07-11T18:58:46.574+07:00,837086328033692076,246213,199372,224000,1393
1783771126592691474,2026-07-11T18:58:46.592+07:00,837086328033692076,246199,199313,223933,1325
1783771126610873292,2026-07-11T18:58:46.610+07:00,837086328797969608,246286,199310,223921,1347
1783771126629055110,2026-07-11T18:58:46.629+07:00,837086328797969608,246285,199322,223976,1310
1783771126647236928,2026-07-11T18:58:46.647+07:00,837086328797969608,246336,199465,224010,1342
1783771126665418746,2026-07-11T18:58:46.665+07:00,837086328797969608,246370,199503,223984,1333
1783771126683600564,2026-07-11T18:58:46.683+07:00,837086328797969608,246395,199566,224040,1313
1783771126701782382,2026-07-11T18:58:46.701+07:00,837086328797969608,246592,199644,224178,1383
1783771126719964200,2026-07-11T18:58:46.719+07:00,837086328797969608,246582,199713,224196,1323
1783771126738146018,2026-07-11T18:58:46.738+07:00,837086328797969608,246572,199810,224299,1322
1783771126756327836,2026-07-11T18:58:46.756+07:00,837086328797969608,246606,199870,224329,1359
1783771126774509654,2026-07-11T18:58:46.774+07:00,837086328797969608,246730,199984,224414,1386
1783771126792691472,2026-07-11T18:58:46.792+07:00,837086328797969608,246725,200024,224365,1366
1783771126810873290,2026-07-11T18:58:46.810+07:00,837086328797969608,246815,200105,224479,1377
1783771126829055108,2026-07-11T18:58:46.829+07:00,837086328797969608,246832,200138,224552,1373
1783771126847236926,2026-07-11T18:58:46.847+07:00,837086328797969608,246841,200161,224566,1337
1783771126865418744,2026-07-11T18:58:46.865+07:00,837086328797969608,246931,200253,224627,1377
1783771126883600562,2026-07-11T18:58:46.883+07:00,837086328797969608,247090,200361,224701,1475
1783771126901782380,2026-07-11T18:58:46.901+07:00,837086328797969608,247176,200417,224774,1397
1783771126919964198,2026-07-11T18:58:46.919+07:00,837086328797969608,247246,200446,224790,1323
1783771126938146016,2026-07-11T18:58:46.938+07:00,837086328797969608,247366,200548,224894,1370
1783771126956327834,2026-07-11T18:58:46.956+07:00,837086328797969608,247489,200665,225003,1368
1783771126974509652,2026-07-11T18:58:46.974+07:00,837086328797969608,247554,200646,225045,1354
1783771126992691470,2026-07-11T18:58:46.992+07:00,837086328797969608,247573,200632,224999,1354
1783771127010873288,2026-07-11T18:58:47.010+07:00,837086328797969608,247503,200578,224936,1358
1783771127029055106,2026-07-11T18:58:47.029+07:00,837086328797969608,247401,200523,224825,1393
1783771127047236924,2026-07-11T18:58:47.047+07:00,837086328797969608,247246,200482,224647,1336
1783771127065418742,2026-07-11T18:58:47.065+07:00,837086328797969608,247191,200457,224601,1393
1783771127083600560,2026-07-11T18:58:47.083+07:00,837086328797969608,247040,200367,224580,1334
1783771127101782378,2026-07-11T18:58:47.101+07:00,837086328797969608,247056,200410,224540,1350
1783771127119964196,2026-07-11T18:58:47.119+07:00,837086328797969608,246985,200404,224573,1303
1783771127138146014,2026-07-11T18:58:47.138+07:00,837086328797969608,247025,200447,224587,1356
1783771127156327832,2026-07-11T18:58:47.156+07:00,837086328797969608,247010,200508,224633,1351
1783771127174509650,2026-07-11T18:58:47.174+07:00,837086328797969608,247146,200556,224717,1325
1783771127192691468,2026-07-11T18:58:47.192+07:00,837086328797969608,247189,200660,224823,1326
1783771127210873286,2026-07-11T18:58:47.210+07:00,837086328797969608,247257,200685,224936,1326
1783771127229055104,2026-07-11T18:58:47.229+07:00,837086328797969608,247289,200728,225086,1318
1783771127247236922,2026-07-11T18:58:47.247+07:00,837086328797969608,247429,200880,225113,1352
1783771127265418740,2026-07-11T18:58:47.265+07:00,837086328797969608,247483,200898,225217,1396
1783771127283600558,2026-07-11T18:58:47.283+07:00,837086328797969608,247551,200989,225237,1397
1783771127301782376,2026-07-11T18:58:47.301+07:00,837086328797969608,247599,200993,225261,1362
1783771127319964194,2026-07-11T18:58:47.319+07:00,837086328797969608,247683,201072,225354,1395
1783771127338146012,2026-07-11T18:58:47.338+07:00,837086328797969608,247751,201105,225337,1337
1783771127356327830,2026-07-11T18:58:47.356+07:00,837086328797969608,247777,201137,225316,1338
1783771127374509648,2026-07-11T18:58:47.374+07:00,837086329562216622,247867,201195,225385,1305
1783771127392691466,2026-07-11T18:58:47.392+07:00,837086329562216622,247961,201223,225451,1324
1783771127410873284,2026-07-11T18:58:47.410+07:00,837086329562216622,248024,201260,225500,1348
1783771127429055102,2026-07-11T18:58:47.429+07:00,837086329562216622,248142,201365,225570,1366
1783771127447236920,2026-07-11T18:58:47.447+07:00,837086329562216622,248188,201334,225539,1343
1783771127465418738,2026-07-11T18:58:47.465+07:00,837086329562216622,248349,201425,225627,1343
1783771127483600556,2026-07-11T18:58:47.483+07:00,837086329562216622,248432,201539,225708,1434
1783771127501782374,2026-07-11T18:58:47.501+07:00,837086329562216622,248397,201474,225631,1388
1783771127519964192,2026-07-11T18:58:47.519+07:00,837086329562216622,248381,201406,225502,1327
1783771127538146010,2026-07-11T18:58:47.538+07:00,837086329562216622,248376,201392,225504,1357
1783771127556327828,2026-07-11T18:58:47.556+07:00,837086329562216622,248342,201337,225498,1393
1783771127574509646,2026-07-11T18:58:47.574+07:00,837086329562216622,248333,201405,225457,1389
1783771127592691464,2026-07-11T18:58:47.592+07:00,837086329562216622,248349,201382,225418,1357
1783771127610873282,2026-07-11T18:58:47.610+07:00,837086329562216622,248396,201437,225453,1359
1783771127629055100,2026-07-11T18:58:47.629+07:00,837086329562216622,248421,201492,225480,1321
1783771127647236918,2026-07-11T18:58:47.647+07:00,837086329562216622,248454,201547,225619,1299
1783771127665418736,2026-07-11T18:58:47.665+07:00,837086329562216622,248528,201556,225778,1357
1783771127683600554,2026-07-11T18:58:47.683+07:00,837086329562216622,248549,201549,225891,1343
1783771127701782372,2026-07-11T18:58:47.701+07:00,837086329562216622,248423,201435,225996,1382
1783771127719964190,2026-07-11T18:58:47.719+07:00,837086329562216622,248363,201301,226134,1330
1783771127738146008,2026-07-11T18:58:47.738+07:00,837086329562216622,248286,201245,226289,1314
1783771127756327826,2026-07-11T18:58:47.756+07:00,837086329562216622,248269,201279,226547,1358
1783771127774509644,2026-07-11T18:58:47.774+07:00,837086329562216622,248310,201362,226892,1384
1783771127792691462,2026-07-11T18:58:47.792+07:00,837086329562216622,248402,201492,227174,1375
1783771127810873280,2026-07-11T18:58:47.810+07:00,837086329562216622,248544,201633,227404,1359
1783771127829055098,2026-07-11T18:58:47.829+07:00,837086329562216622,248663,201783,227576,1337
1783771127847236916,2026-07-11T18:58:47.847+07:00,837086329562216622,248818,201921,227622,1347
1783771127865418734,2026-07-11T18:58:47.865+07:00,837086329562216622,248914,201983,227606,1326
1783771127883600552,2026-07-11T18:58:47.883+07:00,837086329562216622,249052,202091,227665,1360
1783771127901782370,2026-07-11T18:58:47.901+07:00,837086329562216622,249178,202157,227658,1284
1783771127919964188,2026-07-11T18:58:47.919+07:00,837086329562216622,249370,202204,227618,1289
1783771127938146006,2026-07-11T18:58:47.938+07:00,837086329562216622,249539,202252,227580,1384
1783771127956327824,2026-07-11T18:58:47.956+07:00,837086329562216622,249668,202422,227571,1359
1783771127974509642,2026-07-11T18:58:47.974+07:00,837086329562216622,249810,202483,227572,1377
1783771127992691460,2026-07-11T18:58:47.992+07:00,837086329562216622,249953,202477,227581,1370
1783771128010873278,2026-07-11T18:58:48.010+07:00,837086329562216622,250097,202514,227637,1426
1783771128029055096,2026-07-11T18:58:48.029+07:00,837086329562216622,250074,202517,227650,1374
1783771128047236914,2026-07-11T18:58:48.047+07:00,837086329562216622,249996,202397,227585,1326
1783771128065418732,2026-07-11T18:58:48.065+07:00,837086329562216622,249965,202387,227588,1291
1783771128083600550,2026-07-11T18:58:48.083+07:00,837086329562216622,250062,202402,227621,1365
1783771128101782368,2026-07-11T18:58:48.101+07:00,837086329562216622,250042,202435,227604,1307
1783771128119964186,2026-07-11T18:58:48.119+07:00,837086329562216622,250055,202403,227676,1287
1783771128138146004,2026-07-11T18:58:48.138+07:00,837086330326463636,250011,202317,227656,1258
1783771128156327822,2026-07-11T18:58:48.156+07:00,837086330326463636,250149,202418,227762,1343
1783771128174509640,2026-07-11T18:58:48.174+07:00,837086330326463636,250275,202472,227843,1370
1783771128192691458,2026-07-11T18:58:48.192+07:00,837086330326463636,250293,202529,227915,1388
1783771128210873276,2026-07-11T18:58:48.210+07:00,837086330326463636,250418,202574,227830,1342
1783771128229055094,2026-07-11T18:58:48.229+07:00,837086330326463636,250517,202664,227930,1348
1783771128247236912,2026-07-11T18:58:48.247+07:00,837086330326463636,250574,202764,227963,1340
1783771128265418730,2026-07-11T18:58:48.265+07:00,837086330326463636,250665,202809,227991,1348
1783771128283600548,2026-07-11T18:58:48.283+07:00,837086330326463636,250767,202851,228032,1288
1783771128301782366,2026-07-11T18:58:48.301+07:00,837086330326463636,250747,202856,228063,1265
1783771128319964184,2026-07-11T18:58:48.319+07:00,837086330326463636,250807,202824,228132,1331
1783771128338146002,2026-07-11T18:58:48.338+07:00,837086330326463636,250825,202804,228185,1327
1783771128356327820,2026-07-11T18:58:48.356+07:00,837086330326463636,250794,202706,228313,1324
1783771128374509638,2026-07-11T18:58:48.374+07:00,837086330326463636,250769,202678,228385,1335
1783771128392691456,2026-07-11T18:58:48.392+07:00,837086330326463636,250808,202708,228538,1327
1783771128410873274,2026-07-11T18:58:48.410+07:00,837086330326463636,250842,202702,228666,1382
1783771128429055092,2026-07-11T18:58:48.429+07:00,837086330326463636,250841,202614,228763,1316
1783771128447236910,2026-07-11T18:58:48.447+07:00,837086330326463636,250926,202767,229000,1362
1783771128465418728,2026-07-11T18:58:48.465+07:00,837086330326463636,251001,202778,229196,1316
1783771128483600546,2026-07-11T18:58:48.483+07:00,837086330326463636,251052,202913,229334,1328
1783771128501782364,2026-07-11T18:58:48.501+07:00,837086330326463636,251231,202932,229453,1316
1783771128519964182,2026-07-11T18:58:48.519+07:00,837086330326463636,251392,203078,229548,1326
1783771128538146000,2026-07-11T18:58:48.538+07:00,837086330326463636,251548,203149,229500,1272
1783771128556327818,2026-07-11T18:58:48.556+07:00,837086330326463636,251667,203141,229403,1319
1783771128574509636,2026-07-11T18:58:48.574+07:00,837086330326463636,251801,203251,229409,1357
1783771128592691454,2026-07-11T18:58:48.592+07:00,837086330326463636,251971,203367,229426,1347
1783771128610873272,2026-07-11T18:58:48.610+07:00,837086330326463636,252126,203436,229471,1349
1783771128629055090,2026-07-11T18:58:48.629+07:00,837086330326463636,252293,203587,229419,1372
1783771128647236908,2026-07-11T18:58:48.647+07:00,837086330326463636,252400,203663,229392,1311
1783771128665418726,2026-07-11T18:58:48.665+07:00,837086330326463636,252641,203890,229552,1406
1783771128683600544,2026-07-11T18:58:48.683+07:00,837086330326463636,252821,203995,229551,1401
1783771128701782362,2026-07-11T18:58:48.701+07:00,837086330326463636,253003,204126,229575,1323
1783771128719964180,2026-07-11T18:58:48.719+07:00,837086330326463636,253288,204332,229716,1396
1783771128738145998,2026-07-11T18:58:48.738+07:00,837086330326463636,253652,204442,229863,1350
1783771128756327816,2026-07-11T18:58:48.756+07:00,837086330326463636,254001,204611,229990,1348
1783771128774509634,2026-07-11T18:58:48.774+07:00,837086330326463636,254425,204735,230190,1361
1783771128792691452,2026-07-11T18:58:48.792+07:00,837086330326463636,254753,204729,230374,1331
1783771128810873270,2026-07-11T18:58:48.810+07:00,837086330326463636,255036,204760,230567,1411
1783771128829055088,2026-07-11T18:58:48.829+07:00,837086330326463636,255296,204717,230643,1326
1783771128847236906,2026-07-11T18:58:48.847+07:00,837086330326463636,255496,204709,230773,1292
1783771128865418724,2026-07-11T18:58:48.865+07:00,837086330326463636,255733,204804,230900,1313
1783771128883600542,2026-07-11T18:58:48.883+07:00,837086330326463636,255934,204887,230984,1334
1783771128901782360,2026-07-11T18:58:48.901+07:00,837086331108907007,256132,205000,231112,1334
1783771128919964178,2026-07-11T18:58:48.919+07:00,837086331108907007,256403,205142,231278,1316
1783771128938145996,2026-07-11T18:58:48.938+07:00,837086331108907007,256678,205360,231484,1336
1783771128956327814,2026-07-11T18:58:48.956+07:00,837086331108907007,256950,205497,231662,1310
1783771128974509632,2026-07-11T18:58:48.974+07:00,837086331108907007,257192,205671,231780,1316
1783771128992691450,2026-07-11T18:58:48.992+07:00,837086331108907007,257385,205788,231908,1308
1783771129010873268,2026-07-11T18:58:49.010+07:00,837086331108907007,257569,206031,231949,1326
1783771129029055086,2026-07-11T18:58:49.029+07:00,837086331108907007,257858,206125,232074,1397
1783771129047236904,2026-07-11T18:58:49.047+07:00,837086331108907007,258028,206376,232114,1333
1783771129065418722,2026-07-11T18:58:49.065+07:00,837086331108907007,258160,206525,232169,1318
1783771129083600540,2026-07-11T18:58:49.083+07:00,837086331108907007,258334,206699,232284,1320
1783771129101782358,2026-07-11T18:58:49.101+07:00,837086331108907007,258574,206946,232480,1266
1783771129119964176,2026-07-11T18:58:49.119+07:00,837086331108907007,258800,207145,232656,1316
1783771129138145994,2026-07-11T18:58:49.138+07:00,837086331108907007,259079,207454,232882,1309
1783771129156327812,2026-07-11T18:58:49.156+07:00,837086331108907007,259309,207689,233011,1321
1783771129174509630,2026-07-11T18:58:49.174+07:00,837086331108907007,259514,207866,233231,1325
1783771129192691448,2026-07-11T18:58:49.192+07:00,837086331108907007,259681,208026,233381,1333
1783771129210873266,2026-07-11T18:58:49.210+07:00,837086331108907007,259820,208146,233545,1383
1783771129229055084,2026-07-11T18:58:49.229+07:00,837086331108907007,259962,208238,233649,1354
1783771129247236902,2026-07-11T18:58:49.247+07:00,837086331108907007,260119,208365,233822,1357
1783771129265418720,2026-07-11T18:58:49.265+07:00,837086331108907007,260176,208437,233876,1310
1783771129283600538,2026-07-11T18:58:49.283+07:00,837086331108907007,260258,208511,233970,1358
1783771129301782356,2026-07-11T18:58:49.301+07:00,837086331108907007,260310,208606,234057,1335
1783771129319964174,2026-07-11T18:58:49.319+07:00,837086331108907007,260484,208722,234266,1342
1783771129338145992,2026-07-11T18:58:49.338+07:00,837086331108907007,260564,208824,234333,1322
1783771129356327810,2026-07-11T18:58:49.356+07:00,837086331108907007,260583,208914,234370,1311
1783771129374509628,2026-07-11T18:58:49.374+07:00,837086331108907007,260801,209021,234496,1341
1783771129392691446,2026-07-11T18:58:49.392+07:00,837086331108907007,260933,209113,234616,1318
1783771129410873264,2026-07-11T18:58:49.410+07:00,837086331108907007,260921,209215,234700,1277
1783771129429055082,2026-07-11T18:58:49.429+07:00,837086331108907007,261060,209269,234758,1342
1783771129447236900,2026-07-11T18:58:49.447+07:00,837086331108907007,261074,209306,234766,1284
1783771129465418718,2026-07-11T18:58:49.465+07:00,837086331108907007,261163,209352,234866,1392
1783771129483600536,2026-07-11T18:58:49.483+07:00,837086331108907007,261014,209283,234747,1340
1783771129501782354,2026-07-11T18:58:49.501+07:00,837086331108907007,260960,209262,234713,1361
1783771129519964172,2026-07-11T18:58:49.519+07:00,837086331108907007,260856,209257,234600,1361
1783771129538145990,2026-07-11T18:58:49.538+07:00,837086331108907007,260865,209237,234543,1358
1783771129556327808,2026-07-11T18:58:49.556+07:00,837086331108907007,260771,209225,234438,1341
1783771129574509626,2026-07-11T18:58:49.574+07:00,837086331108907007,260812,209207,234477,1337
1783771129592691444,2026-07-11T18:58:49.592+07:00,837086331108907007,260851,209248,234562,1394
1783771129610873262,2026-07-11T18:58:49.610+07:00,837086331108907007,260860,209264,234605,1359
1783771129629055080,2026-07-11T18:58:49.629+07:00,837086331108907007,260908,209354,234694,1334
1783771129647236898,2026-07-11T18:58:49.647+07:00,837086331108907007,260955,209359,234731,1386
1783771129665418716,2026-07-11T18:58:49.665+07:00,837086331108907007,261006,209430,234788,1386
1783771129683600534,2026-07-11T18:58:49.683+07:00,837086331873184539,261061,209481,234846,1362
1783771129701782352,2026-07-11T18:58:49.701+07:00,837086331873184539,261070,209532,234819,1327
1783771129719964170,2026-07-11T18:58:49.719+07:00,837086331873184539,261130,209455,234763,1344
1783771129738145988,2026-07-11T18:58:49.738+07:00,837086331873184539,261091,209479,234849,1296
1783771129756327806,2026-07-11T18:58:49.756+07:00,837086331873184539,261165,209588,234889,1389
1783771129774509624,2026-07-11T18:58:49.774+07:00,837086331873184539,261240,209674,234938,1344
1783771129792691442,2026-07-11T18:58:49.792+07:00,837086331873184539,261393,209754,234991,1372
1783771129810873260,2026-07-11T18:58:49.810+07:00,837086331873184539,261435,209807,235113,1372
1783771129829055078,2026-07-11T18:58:49.829+07:00,837086331873184539,261507,209881,235193,1340
1783771129847236896,2026-07-11T18:58:49.847+07:00,837086331873184539,261600,210014,235272,1385
1783771129865418714,2026-07-11T18:58:49.865+07:00,837086331873184539,261681,210064,235302,1344
1783771129883600532,2026-07-11T18:58:49.883+07:00,837086331873184539,261643,210044,235341,1299
1783771129901782350,2026-07-11T18:58:49.901+07:00,837086331873184539,261517,210005,235236,1343
1783771129919964168,2026-07-11T18:58:49.919+07:00,837086331873184539,261367,209860,235016,1322
1783771129938145986,2026-07-11T18:58:49.938+07:00,837086331873184539,261193,209679,234818,1399
1783771129956327804,2026-07-11T18:58:49.956+07:00,837086331873184539,260899,209447,234567,1376
1783771129974509622,2026-07-11T18:58:49.974+07:00,837086331873184539,260704,209281,234371,1368
1783771129992691440,2026-07-11T18:58:49.992+07:00,837086331873184539,260603,209271,234254,1406
1783771130010873258,2026-07-11T18:58:50.010+07:00,837086331873184539,260455,209089,234134,1333
1783771130029055076,2026-07-11T18:58:50.029+07:00,837086331873184539,260369,209022,234098,1320
1783771130047236894,2026-07-11T18:58:50.047+07:00,837086331873184539,260428,209033,234054,1334
1783771130065418712,2026-07-11T18:58:50.065+07:00,837086331873184539,260418,209084,234123,1340
1783771130083600530,2026-07-11T18:58:50.083+07:00,837086331873184539,260459,209085,234128,1344
1783771130101782348,2026-07-11T18:58:50.101+07:00,837086331873184539,260470,209176,234192,1327
1783771130119964166,2026-07-11T18:58:50.119+07:00,837086331873184539,260503,209181,234283,1254
1783771130138145984,2026-07-11T18:58:50.138+07:00,837086331873184539,260545,209227,234271,1268
1783771130156327802,2026-07-11T18:58:50.156+07:00,837086331873184539,260566,209204,234306,1361
1783771130174509620,2026-07-11T18:58:50.174+07:00,837086331873184539,260523,209213,234265,1348
1783771130192691438,2026-07-11T18:58:50.192+07:00,837086331873184539,260532,209221,234268,1302
1783771130210873256,2026-07-11T18:58:50.210+07:00,837086331873184539,260476,209279,234316,1299
1783771130229055074,2026-07-11T18:58:50.229+07:00,837086331873184539,260599,209335,234330,1332
1783771130247236892,2026-07-11T18:58:50.247+07:00,837086331873184539,260652,209431,234446,1375
1783771130265418710,2026-07-11T18:58:50.265+07:00,837086331873184539,260761,209462,234496,1406
1783771130283600528,2026-07-11T18:58:50.283+07:00,837086331873184539,260912,209585,234590,1416
1783771130301782346,2026-07-11T18:58:50.301+07:00,837086331873184539,261039,209717,234775,1353
1783771130319964164,2026-07-11T18:58:50.319+07:00,837086331873184539,261103,209747,234827,1339
1783771130338145982,2026-07-11T18:58:50.338+07:00,837086331873184539,261218,209837,234951,1384
1783771130356327800,2026-07-11T18:58:50.356+07:00,837086331873184539,261136,209847,234936,1408
1783771130374509618,2026-07-11T18:58:50.374+07:00,837086331873184539,261035,209767,234809,1400
1783771130392691436,2026-07-11T18:58:50.392+07:00,837086331873184539,260847,209634,234679,1382
1783771130410873254,2026-07-11T18:58:50.410+07:00,837086331873184539,260677,209500,234531,1372
1783771130429055072,2026-07-11T18:58:50.429+07:00,837086331873184539,260539,209465,234391,1418
1783771130447236890,2026-07-11T18:58:50.447+07:00,837086332655627910,260379,209307,234174,1336
1783771130465418708,2026-07-11T18:58:50.465+07:00,837086332655627910,260379,209307,234165,1387
1783771130483600526,2026-07-11T18:58:50.483+07:00,837086332655627910,260302,209332,234152,1380
1783771130501782344,2026-07-11T18:58:50.501+07:00,837086332655627910,260333,209326,234146,1360
1783771130519964162,2026-07-11T18:58:50.519+07:00,837086332655627910,260368,209371,234171,1360
1783771130538145980,2026-07-11T18:58:50.538+07:00,837086332655627910,260481,209439,234275,1371
1783771130556327798,2026-07-11T18:58:50.556+07:00,837086332655627910,260571,209534,234379,1375
1783771130574509616,2026-07-11T18:58:50.574+07:00,837086332655627910,260707,209630,234445,1356
1783771130592691434,2026-07-11T18:58:50.592+07:00,837086332655627910,260732,209705,234565,1357
1783771130610873252,2026-07-11T18:58:50.610+07:00,837086332655627910,260805,209736,234624,1331
1783771130629055070,2026-07-11T18:58:50.629+07:00,837086332655627910,260840,209805,234687,1348
1783771130647236888,2026-07-11T18:58:50.647+07:00,837086332655627910,260826,209822,234741,1397
1783771130665418706,2026-07-11T18:58:50.665+07:00,837086332655627910,260756,209812,234686,1349
1783771130683600524,2026-07-11T18:58:50.683+07:00,837086332655627910,260785,209832,234684,1308
1783771130701782342,2026-07-11T18:58:50.701+07:00,837086332655627910,260836,209880,234746,1369
1783771130719964160,2026-07-11T18:58:50.719+07:00,837086332655627910,260847,209948,234745,1394
1783771130738145978,2026-07-11T18:58:50.738+07:00,837086332655627910,260866,209941,234835,1330
1783771130756327796,2026-07-11T18:58:50.756+07:00,837086332655627910,260984,210030,234944,1397
1783771130774509614,2026-07-11T18:58:50.774+07:00,837086332655627910,260975,210032,234922,1290
1783771130792691432,2026-07-11T18:58:50.792+07:00,837086332655627910,260951,210064,234921,1412
1783771130810873250,2026-07-11T18:58:50.810+07:00,837086332655627910,260843,209963,234808,1379
1783771130829055068,2026-07-11T18:58:50.829+07:00,837086332655627910,260639,209826,234644,1407
1783771130847236886,2026-07-11T18:58:50.847+07:00,837086332655627910,260381,209676,234426,1401
1783771130865418704,2026-07-11T18:58:50.865+07:00,837086332655627910,260163,209438,234139,1372
1783771130883600522,2026-07-11T18:58:50.883+07:00,837086332655627910,259943,209311,233973,1371
1783771130901782340,2026-07-11T18:58:50.901+07:00,837086332655627910,259770,209212,233793,1395
1783771130919964158,2026-07-11T18:58:50.919+07:00,837086332655627910,259653,209128,233784,1378
1783771130938145976,2026-07-11T18:58:50.938+07:00,837086332655627910,259629,209122,233711,1425
1783771130956327794,2026-07-11T18:58:50.956+07:00,837086332655627910,259559,209076,233670,1402
1783771130974509612,2026-07-11T18:58:50.974+07:00,837086332655627910,259574,209110,233679,1377
1783771130992691430,2026-07-11T18:58:50.992+07:00,837086332655627910,259662,209143,233702,1330
1783771131010873248,2026-07-11T18:58:51.010+07:00,837086332655627910,259744,209258,233872,1342
1783771131029055066,2026-07-11T18:58:51.029+07:00,837086332655627910,259838,209351,233905,1365
1783771131047236884,2026-07-11T18:58:51.047+07:00,837086332655627910,259934,209387,233919,1367
1783771131065418702,2026-07-11T18:58:51.065+07:00,837086332655627910,259995,209540,234029,1356
1783771131083600520,2026-07-11T18:58:51.083+07:00,837086332655627910,260064,209587,234116,1416
1783771131101782338,2026-07-11T18:58:51.101+07:00,837086332655627910,260115,209702,234136,1396
1783771131119964156,2026-07-11T18:58:51.119+07:00,837086332655627910,260035,209687,234170,1361
1783771131138145974,2026-07-11T18:58:51.138+07:00,837086332655627910,260040,209620,234159,1376
1783771131156327792,2026-07-11T18:58:51.156+07:00,837086332655627910,260053,209668,234131,1396
1783771131174509610,2026-07-11T18:58:51.174+07:00,837086332655627910,260078,209698,234225,1397
1783771131192691428,2026-07-11T18:58:51.192+07:00,837086332655627910,260097,209713,234292,1336
1783771131210873246,2026-07-11T18:58:51.210+07:00,837086332655627910,260153,209741,234276,1404
1783771131229055064,2026-07-11T18:58:51.229+07:00,837086333419844406,260012,209712,234265,1332
1783771131247236882,2026-07-11T18:58:51.247+07:00,837086333419844406,259981,209648,234167,1317
1783771131265418700,2026-07-11T18:58:51.265+07:00,837086333419844406,259889,209467,233986,1352
1783771131283600518,2026-07-11T18:58:51.283+07:00,837086333419844406,259675,209413,233869,1339
1783771131301782336,2026-07-11T18:58:51.301+07:00,837086333419844406,259497,209246,233653,1354
1783771131319964154,2026-07-11T18:58:51.319+07:00,837086333419844406,259377,209153,233483,1339
1783771131338145972,2026-07-11T18:58:51.338+07:00,837086333419844406,259235,209060,233355,1336
1783771131356327790,2026-07-11T18:58:51.356+07:00,837086333419844406,259201,209035,233327,1376
1783771131374509608,2026-07-11T18:58:51.374+07:00,837086333419844406,259155,209078,233324,1342
1783771131392691426,2026-07-11T18:58:51.392+07:00,837086333419844406,259155,209154,233334,1382
1783771131410873244,2026-07-11T18:58:51.410+07:00,837086333419844406,259157,209098,233368,1356
1783771131429055062,2026-07-11T18:58:51.429+07:00,837086333419844406,259176,209208,233366,1348
1783771131447236880,2026-07-11T18:58:51.447+07:00,837086333419844406,259146,209186,233363,1349
1783771131465418698,2026-07-11T18:58:51.465+07:00,837086333419844406,259208,209284,233463,1420
1783771131483600516,2026-07-11T18:58:51.483+07:00,837086333419844406,259262,209314,233468,1402
1783771131501782334,2026-07-11T18:58:51.501+07:00,837086333419844406,259244,209331,233480,1319
1783771131519964152,2026-07-11T18:58:51.519+07:00,837086333419844406,259259,209347,233472,1383
1783771131538145970,2026-07-11T18:58:51.538+07:00,837086333419844406,259359,209415,233600,1405
1783771131556327788,2026-07-11T18:58:51.556+07:00,837086333419844406,259453,209493,233697,1400
1783771131574509606,2026-07-11T18:58:51.574+07:00,837086333419844406,259484,209520,233764,1458
1783771131592691424,2026-07-11T18:58:51.592+07:00,837086333419844406,259544,209563,233838,1390
1783771131610873242,2026-07-11T18:58:51.610+07:00,837086333419844406,259588,209675,233864,1345
1783771131629055060,2026-07-11T18:58:51.629+07:00,837086333419844406,259609,209687,233866,1393
1783771131647236878,2026-07-11T18:58:51.647+07:00,837086333419844406,259698,209780,233969,1345
1783771131665418696,2026-07-11T18:58:51.665+07:00,837086333419844406,259629,209694,233945,1359
1783771131683600514,2026-07-11T18:58:51.683+07:00,837086333419844406,259477,209558,233850,1336
1783771131701782332,2026-07-11T18:58:51.701+07:00,837086333419844406,259236,209413,233595,1332
1783771131719964150,2026-07-11T18:58:51.719+07:00,837086333419844406,258985,209231,233341,1395
1783771131738145968,2026-07-11T18:58:51.738+07:00,837086333419844406,258738,209007,233085,1392
1783771131756327786,2026-07-11T18:58:51.756+07:00,837086333419844406,258506,208838,232878,1375
1783771131774509604,2026-07-11T18:58:51.774+07:00,837086333419844406,258287,208677,232672,1357
1783771131792691422,2026-07-11T18:58:51.792+07:00,837086333419844406,258216,208590,232644,1385
1783771131810873240,2026-07-11T18:58:51.810+07:00,837086333419844406,258185,208518,232549,1367
1783771131829055058,2026-07-11T18:58:51.829+07:00,837086333419844406,258168,208564,232565,1339
1783771131847236876,2026-07-11T18:58:51.847+07:00,837086333419844406,258228,208556,232620,1333
1783771131865418694,2026-07-11T18:58:51.865+07:00,837086333419844406,258258,208671,232701,1355
1783771131883600512,2026-07-11T18:58:51.883+07:00,837086333419844406,258387,208767,232777,1379
1783771131901782330,2026-07-11T18:58:51.901+07:00,837086333419844406,258388,208819,232776,1307
1783771131919964148,2026-07-11T18:58:51.919+07:00,837086333419844406,258422,208832,232771,1333
1783771131938145966,2026-07-11T18:58:51.938+07:00,837086333419844406,258473,208915,232918,1324
1783771131956327784,2026-07-11T18:58:51.956+07:00,837086333419844406,258541,208983,232997,1370
1783771131974509602,2026-07-11T18:58:51.974+07:00,837086333419844406,258670,209018,233032,1399
1783771131992691420,2026-07-11T18:58:51.992+07:00,837086334147729224,258688,209100,233097,1385
1783771132010873238,2026-07-11T18:58:52.010+07:00,837086334147729224,258744,209115,233064,1399
1783771132029055056,2026-07-11T18:58:52.029+07:00,837086334147729224,258783,209113,233170,1356
1783771132047236874,2026-07-11T18:58:52.047+07:00,837086334147729224,258901,209307,233301,1351
1783771132065418692,2026-07-11T18:58:52.065+07:00,837086334147729224,259012,209343,233377,1340
1783771132083600510,2026-07-11T18:58:52.083+07:00,837086334147729224,259133,209483,233503,1338
1783771132101782328,2026-07-11T18:58:52.101+07:00,837086334147729224,259197,209601,233612,1374
1783771132119964146,2026-07-11T18:58:52.119+07:00,837086334147729224,259227,209528,233594,1362
1783771132138145964,2026-07-11T18:58:52.138+07:00,837086334147729224,259220,209546,233559,1353
1783771132156327782,2026-07-11T18:58:52.156+07:00,837086334147729224,259163,209406,233410,1359
1783771132174509600,2026-07-11T18:58:52.174+07:00,837086334147729224,258924,209239,233302,1353
1783771132192691418,2026-07-11T18:58:52.192+07:00,837086334147729224,258675,209043,232988,1339
1783771132210873236,2026-07-11T18:58:52.210+07:00,837086334147729224,258391,208918,232822,1334
1783771132229055054,2026-07-11T18:58:52.229+07:00,837086334147729224,258221,208811,232638,1338
1783771132247236872,2026-07-11T18:58:52.247+07:00,837086334147729224,258180,208737,232615,1367
1783771132265418690,2026-07-11T18:58:52.265+07:00,837086334147729224,258190,208783,232592,1361
1783771132283600508,2026-07-11T18:58:52.283+07:00,837086334147729224,258155,208838,232553,1356
1783771132301782326,2026-07-11T18:58:52.301+07:00,837086334147729224,258233,208985,232650,1412
1783771132319964144,2026-07-11T18:58:52.319+07:00,837086334147729224,258320,208983,232718,1375
1783771132338145962,2026-07-11T18:58:52.338+07:00,837086334147729224,258384,209070,232821,1395
1783771132356327780,2026-07-11T18:58:52.356+07:00,837086334147729224,258500,209085,232893,1352
1783771132374509598,2026-07-11T18:58:52.374+07:00,837086334147729224,258510,209121,232965,1335
1783771132392691416,2026-07-11T18:58:52.392+07:00,837086334147729224,258636,209173,233013,1327
1783771132410873234,2026-07-11T18:58:52.410+07:00,837086334147729224,258610,209230,232989,1338
1783771132429055052,2026-07-11T18:58:52.429+07:00,837086334147729224,258697,209310,233023,1373
1783771132447236870,2026-07-11T18:58:52.447+07:00,837086334147729224,258648,209350,233061,1382
1783771132465418688,2026-07-11T18:58:52.465+07:00,837086334147729224,258686,209379,233127,1324
1783771132483600506,2026-07-11T18:58:52.483+07:00,837086334147729224,258757,209433,233146,1384
1783771132501782324,2026-07-11T18:58:52.501+07:00,837086334147729224,258773,209479,233166,1358
1783771132519964142,2026-07-11T18:58:52.519+07:00,837086334147729224,258788,209541,233241,1358
1783771132538145960,2026-07-11T18:58:52.538+07:00,837086334147729224,258880,209495,233266,1352
1783771132556327778,2026-07-11T18:58:52.556+07:00,837086334147729224,258921,209590,233242,1380
1783771132574509596,2026-07-11T18:58:52.574+07:00,837086334147729224,258760,209423,233109,1380
1783771132592691414,2026-07-11T18:58:52.592+07:00,837086334147729224,258367,209067,232776,1319
1783771132610873232,2026-07-11T18:58:52.610+07:00,837086334147729224,257912,208655,232320,1338
1783771132629055050,2026-07-11T18:58:52.629+07:00,837086334147729224,257227,208044,231685,1322
1783771132647236868,2026-07-11T18:58:52.647+07:00,837086334147729224,256475,207437,231056,1366
1783771132665418686,2026-07-11T18:58:52.665+07:00,837086334147729224,255854,206876,230425,1355
1783771132683600504,2026-07-11T18:58:52.683+07:00,837086334147729224,255367,206407,229951,1335
1783771132701782322,2026-07-11T18:58:52.701+07:00,837086334147729224,254859,205937,229492,1343
1783771132719964140,2026-07-11T18:58:52.719+07:00,837086334820974615,254575,205645,229185,1378
1783771132738145958,2026-07-11T18:58:52.738+07:00,837086334820974615,254303,205372,228955,1340
1783771132756327776,2026-07-11T18:58:52.756+07:00,837086334820974615,254137,205220,228853,1359
1783771132774509594,2026-07-11T18:58:52.774+07:00,837086334820974615,254079,205131,228743,1351
1783771132792691412,2026-07-11T18:58:52.792+07:00,837086334820974615,254056,205112,228779,1361
1783771132810873230,2026-07-11T18:58:52.810+07:00,837086334820974615,254084,205177,228813,1380
1783771132829055048,2026-07-11T18:58:52.829+07:00,837086334820974615,254152,205199,228834,1334
1783771132847236866,2026-07-11T18:58:52.847+07:00,837086334820974615,254193,205238,228857,1333
1783771132865418684,2026-07-11T18:58:52.865+07:00,837086334820974615,254094,205214,228818,1358
1783771132883600502,2026-07-11T18:58:52.883+07:00,837086334820974615,253978,205062,228758,1355
1783771132901782320,2026-07-11T18:58:52.901+07:00,837086334820974615,253838,204958,228641,1416
1783771132919964138,2026-07-11T18:58:52.919+07:00,837086334820974615,253778,204878,228594,1384
1783771132938145956,2026-07-11T18:58:52.938+07:00,837086334820974615,253642,204791,228452,1387
1783771132956327774,2026-07-11T18:58:52.956+07:00,837086334820974615,253683,204762,228415,1352
1783771132974509592,2026-07-11T18:58:52.974+07:00,837086334820974615,253782,204677,228359,1408
1783771132992691410,2026-07-11T18:58:52.992+07:00,837086334820974615,253631,204526,228176,1361
1783771133010873228,2026-07-11T18:58:53.010+07:00,837086334820974615,253278,204277,227816,1315
1783771133029055046,2026-07-11T18:58:53.029+07:00,837086334820974615,252969,204018,227417,1355
1783771133047236864,2026-07-11T18:58:53.047+07:00,837086334820974615,252448,203601,226854,1365
1783771133065418682,2026-07-11T18:58:53.065+07:00,837086334820974615,251902,203235,226314,1354
1783771133083600500,2026-07-11T18:58:53.083+07:00,837086334820974615,251409,202808,225815,1320
1783771133101782318,2026-07-11T18:58:53.101+07:00,837086334820974615,250758,202302,225213,1296
1783771133119964136,2026-07-11T18:58:53.119+07:00,837086334820974615,250239,201855,224704,1323
1783771133138145954,2026-07-11T18:58:53.138+07:00,837086334820974615,249772,201450,224196,1371
1783771133156327772,2026-07-11T18:58:53.156+07:00,837086334820974615,249363,201071,223843,1301
1783771133174509590,2026-07-11T18:58:53.174+07:00,837086334820974615,248976,200759,223396,1345
1783771133192691408,2026-07-11T18:58:53.192+07:00,837086334820974615,248652,200480,223087,1349
1783771133210873226,2026-07-11T18:58:53.210+07:00,837086334820974615,248366,200246,222789,1360
1783771133229055044,2026-07-11T18:58:53.229+07:00,837086334820974615,247890,199770,222295,1419
1783771133247236862,2026-07-11T18:58:53.247+07:00,837086334820974615,247357,199321,221806,1397
1783771133265418680,2026-07-11T18:58:53.265+07:00,837086334820974615,246719,198838,221182,1395
1783771133283600498,2026-07-11T18:58:53.283+07:00,837086334820974615,246134,198362,220644,1344
1783771133301782316,2026-07-11T18:58:53.301+07:00,837086334820974615,245598,197961,220177,1356
1783771133319964134,2026-07-11T18:58:53.319+07:00,837086334820974615,245246,197556,219769,1260
1783771133338145952,2026-07-11T18:58:53.338+07:00,837086334820974615,244912,197322,219532,1330
1783771133356327770,2026-07-11T18:58:53.356+07:00,837086334820974615,244684,197132,219338,1361
1783771133374509588,2026-07-11T18:58:53.374+07:00,837086334820974615,244577,197032,219243,1367
1783771133392691406,2026-07-11T18:58:53.392+07:00,837086335457836450,244438,196988,219094,1331
1783771133410873224,2026-07-11T18:58:53.410+07:00,837086335457836450,244380,196914,219035,1331
1783771133429055042,2026-07-11T18:58:53.429+07:00,837086335457836450,244270,196868,218981,1399
1783771133447236860,2026-07-11T18:58:53.447+07:00,837086335457836450,243996,196625,218738,1399
1783771133465418678,2026-07-11T18:58:53.465+07:00,837086335457836450,243377,196117,218170,1399
1783771133483600496,2026-07-11T18:58:53.483+07:00,837086335457836450,242655,195578,217533,1366
1783771133501782314,2026-07-11T18:58:53.501+07:00,837086335457836450,241827,194860,216786,1393
1783771133519964132,2026-07-11T18:58:53.519+07:00,837086335457836450,241037,194227,216128,1287
1783771133538145950,2026-07-11T18:58:53.538+07:00,837086335457836450,240534,193796,215587,1375
1783771133556327768,2026-07-11T18:58:53.556+07:00,837086335457836450,240080,193447,215176,1361
1783771133574509586,2026-07-11T18:58:53.574+07:00,837086335457836450,239759,193122,214916,1335
1783771133592691404,2026-07-11T18:58:53.592+07:00,837086335457836450,239612,192990,214746,1386
1783771133610873222,2026-07-11T18:58:53.610+07:00,837086335457836450,239577,192953,214658,1388
1783771133629055040,2026-07-11T18:58:53.629+07:00,837086335457836450,239600,192843,214621,1315
1783771133647236858,2026-07-11T18:58:53.647+07:00,837086335457836450,239700,192914,214572,1345
1783771133665418676,2026-07-11T18:58:53.665+07:00,837086335457836450,239810,192987,214632,1337
1783771133683600494,2026-07-11T18:58:53.683+07:00,837086335457836450,239873,193072,214595,1341
1783771133701782312,2026-07-11T18:58:53.701+07:00,837086335457836450,239971,193144,214623,1326
1783771133719964130,2026-07-11T18:58:53.719+07:00,837086335457836450,239885,193070,214448,1326
1783771133738145948,2026-07-11T18:58:53.738+07:00,837086335457836450,239943,193230,214427,1374
1783771133756327766,2026-07-11T18:58:53.756+07:00,837086335457836450,239905,193225,214274,1326
1783771133774509584,2026-07-11T18:58:53.774+07:00,837086335457836450,239836,193260,214249,1313
1783771133792691402,2026-07-11T18:58:53.792+07:00,837086335457836450,239775,193275,214203,1337
1783771133810873220,2026-07-11T18:58:53.810+07:00,837086335457836450,239837,193330,214254,1341
1783771133829055038,2026-07-11T18:58:53.829+07:00,837086335457836450,239933,193376,214329,1344
1783771133847236856,2026-07-11T18:58:53.847+07:00,837086335457836450,240070,193506,214363,1365
1783771133865418674,2026-07-11T18:58:53.865+07:00,837086335457836450,240154,193618,214447,1391
1783771133883600492,2026-07-11T18:58:53.883+07:00,837086335457836450,240179,193622,214443,1340
1783771133901782310,2026-07-11T18:58:53.901+07:00,837086335457836450,240079,193601,214299,1352
1783771133919964128,2026-07-11T18:58:53.919+07:00,837086335457836450,239760,193209,213985,1342
1783771133938145946,2026-07-11T18:58:53.938+07:00,837086335457836450,239343,192926,213651,1353
1783771133956327764,2026-07-11T18:58:53.956+07:00,837086335457836450,238821,192486,213215,1369
1783771133974509582,2026-07-11T18:58:53.974+07:00,837086335457836450,238387,192153,212881,1348
1783771133992691400,2026-07-11T18:58:53.992+07:00,837086335457836450,237942,191769,212605,1281
1783771134010873218,2026-07-11T18:58:54.010+07:00,837086335457836450,237742,191511,212366,1353
1783771134029055036,2026-07-11T18:58:54.029+07:00,837086336222098724,237593,191405,212299,1337
1783771134047236854,2026-07-11T18:58:54.047+07:00,837086336222098724,237584,191330,212240,1332
1783771134065418672,2026-07-11T18:58:54.065+07:00,837086336222098724,237585,191375,212325,1372
1783771134083600490,2026-07-11T18:58:54.083+07:00,837086336222098724,237633,191347,212369,1353
1783771134101782308,2026-07-11T18:58:54.101+07:00,837086336222098724,237620,191388,212355,1345
1783771134119964126,2026-07-11T18:58:54.119+07:00,837086336222098724,237627,191247,212395,1333
1783771134138145944,2026-07-11T18:58:54.138+07:00,837086336222098724,237430,191155,212425,1399
1783771134156327762,2026-07-11T18:58:54.156+07:00,837086336222098724,237269,190908,212314,1355
1783771134174509580,2026-07-11T18:58:54.174+07:00,837086336222098724,236983,190696,212056,1349
1783771134192691398,2026-07-11T18:58:54.192+07:00,837086336222098724,236738,190392,211885,1383
1783771134210873216,2026-07-11T18:58:54.210+07:00,837086336222098724,236453,190186,211691,1407
1783771134229055034,2026-07-11T18:58:54.229+07:00,837086336222098724,236233,190043,211587,1360
1783771134247236852,2026-07-11T18:58:54.247+07:00,837086336222098724,236164,189906,211487,1370
1783771134265418670,2026-07-11T18:58:54.265+07:00,837086336222098724,236151,189832,211467,1400
1783771134283600488,2026-07-11T18:58:54.283+07:00,837086336222098724,236193,189808,211441,1348
1783771134301782306,2026-07-11T18:58:54.301+07:00,837086336222098724,236199,189874,211431,1311
1783771134319964124,2026-07-11T18:58:54.319+07:00,837086336222098724,236368,189924,211567,1397
1783771134338145942,2026-07-11T18:58:54.338+07:00,837086336222098724,236547,190095,211731,1388
1783771134356327760,2026-07-11T18:58:54.356+07:00,837086336222098724,236836,190274,211938,1414
1783771134374509578,2026-07-11T18:58:54.374+07:00,837086336222098724,237186,190522,212141,1369
1783771134392691396,2026-07-11T18:58:54.392+07:00,837086336222098724,237454,190780,212382,1389
1783771134410873214,2026-07-11T18:58:54.410+07:00,837086336222098724,237888,191023,212556,1403
1783771134429055032,2026-07-11T18:58:54.429+07:00,837086336222098724,238119,191296,212776,1402
1783771134447236850,2026-07-11T18:58:54.447+07:00,837086336222098724,238482,191561,213013,1333
1783771134465418668,2026-07-11T18:58:54.465+07:00,837086336222098724,238697,191830,213299,1378
1783771134483600486,2026-07-11T18:58:54.483+07:00,837086336222098724,239020,192163,213546,1428
1783771134501782304,2026-07-11T18:58:54.501+07:00,837086336222098724,239153,192306,213754,1310
1783771134519964122,2026-07-11T18:58:54.519+07:00,837086336222098724,239455,192607,213998,1406
1783771134538145940,2026-07-11T18:58:54.538+07:00,837086336222098724,239620,192804,214194,1273
1783771134556327758,2026-07-11T18:58:54.556+07:00,837086336222098724,239827,193001,214287,1345
1783771134574509576,2026-07-11T18:58:54.574+07:00,837086336222098724,240049,193201,214511,1344
1783771134592691394,2026-07-11T18:58:54.592+07:00,837086336222098724,240233,193388,214638,1266
1783771134610873212,2026-07-11T18:58:54.610+07:00,837086336222098724,240326,193428,214678,1298
1783771134629055030,2026-07-11T18:58:54.629+07:00,837086336222098724,240459,193614,214821,1365
1783771134647236848,2026-07-11T18:58:54.647+07:00,837086336222098724,240673,193793,214979,1324
1783771134665418666,2026-07-11T18:58:54.665+07:00,837086336222098724,240787,193902,215063,1374
1783771134683600484,2026-07-11T18:58:54.683+07:00,837086336222098724,240930,193978,215198,1428
1783771134701782302,2026-07-11T18:58:54.701+07:00,837086336222098724,240982,193953,215256,1332
1783771134719964120,2026-07-11T18:58:54.719+07:00,837086336222098724,241065,194042,215407,1347
1783771134738145938,2026-07-11T18:58:54.738+07:00,837086336222098724,241070,194063,215409,1357
1783771134756327756,2026-07-11T18:58:54.756+07:00,837086336222098724,241140,194132,215537,1356
1783771134774509574,2026-07-11T18:58:54.774+07:00,837086336222098724,241244,194178,215627,1325
1783771134792691392,2026-07-11T18:58:54.792+07:00,837086336986409826,241207,194118,215643,1276
1783771134810873210,2026-07-11T18:58:54.810+07:00,837086336986409826,241281,194172,215790,1331
1783771134829055028,2026-07-11T18:58:54.829+07:00,837086336986409826,241282,194100,215744,1387
1783771134847236846,2026-07-11T18:58:54.847+07:00,837086336986409826,241138,193973,215671,1321
1783771134865418664,2026-07-11T18:58:54.865+07:00,837086336986409826,241070,193804,215688,1334
1783771134883600482,2026-07-11T18:58:54.883+07:00,837086336986409826,240864,193610,215510,1367
1783771134901782300,2026-07-11T18:58:54.901+07:00,837086336986409826,240743,193451,215386,1354
1783771134919964118,2026-07-11T18:58:54.919+07:00,837086336986409826,240646,193421,215374,1353
1783771134938145936,2026-07-11T18:58:54.938+07:00,837086336986409826,240542,193232,215337,1332
1783771134956327754,2026-07-11T18:58:54.956+07:00,837086336986409826,240516,193082,215336,1333
1783771134974509572,2026-07-11T18:58:54.974+07:00,837086336986409826,240453,193019,215321,1339
1783771134992691390,2026-07-11T18:58:54.992+07:00,837086336986409826,240466,193081,215449,1391
1783771135010873208,2026-07-11T18:58:55.010+07:00,837086336986409826,240451,192875,215426,1279
1783771135029055026,2026-07-11T18:58:55.029+07:00,837086336986409826,240507,192903,215599,1348
1783771135047236844,2026-07-11T18:58:55.047+07:00,837086336986409826,240562,192956,215777,1369
1783771135065418662,2026-07-11T18:58:55.065+07:00,837086336986409826,240692,193074,215874,1314
1783771135083600480,2026-07-11T18:58:55.083+07:00,837086336986409826,240900,193295,216118,1298
1783771135101782298,2026-07-11T18:58:55.101+07:00,837086336986409826,241088,193347,216284,1273
1783771135119964116,2026-07-11T18:58:55.119+07:00,837086336986409826,241321,193553,216564,1291
1783771135138145934,2026-07-11T18:58:55.138+07:00,837086336986409826,241658,193795,216814,1298
1783771135156327752,2026-07-11T18:58:55.156+07:00,837086336986409826,241989,194070,217183,1348
1783771135174509570,2026-07-11T18:58:55.174+07:00,837086336986409826,242391,194431,217455,1332
1783771135192691388,2026-07-11T18:58:55.192+07:00,837086336986409826,242742,194782,217742,1361
1783771135210873206,2026-07-11T18:58:55.210+07:00,837086336986409826,243076,195076,218032,1297
1783771135229055024,2026-07-11T18:58:55.229+07:00,837086336986409826,243455,195404,218334,1277
1783771135247236842,2026-07-11T18:58:55.247+07:00,837086336986409826,243735,195768,218714,1340
1783771135265418660,2026-07-11T18:58:55.265+07:00,837086336986409826,244125,196106,219095,1345
1783771135283600478,2026-07-11T18:58:55.283+07:00,837086336986409826,244461,196390,219344,1317
1783771135301782296,2026-07-11T18:58:55.301+07:00,837086336986409826,244806,196781,219703,1339
1783771135319964114,2026-07-11T18:58:55.319+07:00,837086336986409826,245092,197043,220028,1292
1783771135338145932,2026-07-11T18:58:55.338+07:00,837086336986409826,245345,197300,220355,1302
1783771135356327750,2026-07-11T18:58:55.356+07:00,837086336986409826,245514,197566,220622,1309
1783771135374509568,2026-07-11T18:58:55.374+07:00,837086336986409826,245754,197766,220874,1334
1783771135392691386,2026-07-11T18:58:55.392+07:00,837086336986409826,245918,197999,221073,1319
1783771135410873204,2026-07-11T18:58:55.410+07:00,837086336986409826,246050,198112,221288,1324
1783771135429055022,2026-07-11T18:58:55.429+07:00,837086336986409826,246130,198250,221435,1322
1783771135447236840,2026-07-11T18:58:55.447+07:00,837086336986409826,246202,198335,221616,1336
1783771135465418658,2026-07-11T18:58:55.465+07:00,837086336986409826,246300,198501,221783,1319
1783771135483600476,2026-07-11T18:58:55.483+07:00,837086336986409826,246573,198679,221955,1304
1783771135501782294,2026-07-11T18:58:55.501+07:00,837086336986409826,246702,198815,222161,1357
1783771135519964112,2026-07-11T18:58:55.519+07:00,837086336986409826,246747,198915,222261,1383
1783771135538145930,2026-07-11T18:58:55.538+07:00,837086336986409826,246846,199038,222349,1344
1783771135556327748,2026-07-11T18:58:55.556+07:00,837086337750720928,246960,199172,222437,1325
1783771135574509566,2026-07-11T18:58:55.574+07:00,837086337750720928,247212,199396,222639,1376
1783771135592691384,2026-07-11T18:58:55.592+07:00,837086337750720928,247427,199590,222814,1336
1783771135610873202,2026-07-11T18:58:55.610+07:00,837086337750720928,247699,199759,222977,1341
1783771135629055020,2026-07-11T18:58:55.629+07:00,837086337750720928,248010,200036,223106,1376
1783771135647236838,2026-07-11T18:58:55.647+07:00,837086337750720928,248335,200337,223242,1340
1783771135665418656,2026-07-11T18:58:55.665+07:00,837086337750720928,248606,200631,223416,1370
1783771135683600474,2026-07-11T18:58:55.683+07:00,837086337750720928,248730,200750,223400,1353
1783771135701782292,2026-07-11T18:58:55.701+07:00,837086337750720928,248718,200796,223386,1410
1783771135719964110,2026-07-11T18:58:55.719+07:00,837086337750720928,248481,200697,223166,1344
1783771135738145928,2026-07-11T18:58:55.738+07:00,837086337750720928,248312,200612,223098,1351
1783771135756327746,2026-07-11T18:58:55.756+07:00,837086337750720928,248043,200368,222884,1349
1783771135774509564,2026-07-11T18:58:55.774+07:00,837086337750720928,247821,200174,222771,1322
1783771135792691382,2026-07-11T18:58:55.792+07:00,837086337750720928,247698,200041,222768,1328
1783771135810873200,2026-07-11T18:58:55.810+07:00,837086337750720928,247713,200067,222821,1382
1783771135829055018,2026-07-11T18:58:55.829+07:00,837086337750720928,247822,200137,222960,1375
1783771135847236836,2026-07-11T18:58:55.847+07:00,837086337750720928,248090,200340,223129,1391
1783771135865418654,2026-07-11T18:58:55.865+07:00,837086337750720928,248456,200620,223384,1373
1783771135883600472,2026-07-11T18:58:55.883+07:00,837086337750720928,248737,200847,223554,1342
1783771135901782290,2026-07-11T18:58:55.901+07:00,837086337750720928,249069,201193,223865,1355
1783771135919964108,2026-07-11T18:58:55.919+07:00,837086337750720928,249339,201453,224127,1330
1783771135938145926,2026-07-11T18:58:55.938+07:00,837086337750720928,249651,201737,224451,1354
1783771135956327744,2026-07-11T18:58:55.956+07:00,837086337750720928,249882,201994,224685,1300
1783771135974509562,2026-07-11T18:58:55.974+07:00,837086337750720928,250108,202266,224934,1371
1783771135992691380,2026-07-11T18:58:55.992+07:00,837086337750720928,250354,202495,225220,1340
1783771136010873198,2026-07-11T18:58:56.010+07:00,837086337750720928,250484,202746,225541,1320
1783771136029055016,2026-07-11T18:58:56.029+07:00,837086337750720928,250720,202983,225793,1435
1783771136047236834,2026-07-11T18:58:56.047+07:00,837086337750720928,250900,203049,225973,1371
1783771136065418652,2026-07-11T18:58:56.065+07:00,837086337750720928,251100,203242,226198,1351
1783771136083600470,2026-07-11T18:58:56.083+07:00,837086337750720928,251225,203374,226407,1334
1783771136101782288,2026-07-11T18:58:56.101+07:00,837086337750720928,251438,203586,226616,1341
1783771136119964106,2026-07-11T18:58:56.119+07:00,837086337750720928,251679,203737,226801,1369
1783771136138145924,2026-07-11T18:58:56.138+07:00,837086337750720928,251851,203941,226898,1385
1783771136156327742,2026-07-11T18:58:56.156+07:00,837086337750720928,251922,204166,226876,1351
1783771136174509560,2026-07-11T18:58:56.174+07:00,837086337750720928,251976,204398,226917,1339
1783771136192691378,2026-07-11T18:58:56.192+07:00,837086337750720928,251903,204422,226868,1338
1783771136210873196,2026-07-11T18:58:56.210+07:00,837086337750720928,251723,204534,226876,1355
1783771136229055014,2026-07-11T18:58:56.229+07:00,837086337750720928,251531,204549,226770,1338
1783771136247236832,2026-07-11T18:58:56.247+07:00,837086337750720928,251408,204545,226778,1355
1783771136265418650,2026-07-11T18:58:56.265+07:00,837086337750720928,251353,204627,226791,1389
1783771136283600468,2026-07-11T18:58:56.283+07:00,837086337750720928,251239,204671,226860,1407
1783771136301782286,2026-07-11T18:58:56.301+07:00,837086337750720928,251166,204669,226875,1335
1783771136319964104,2026-07-11T18:58:56.319+07:00,837086338515007614,251080,204655,226927,1308
1783771136338145922,2026-07-11T18:58:56.338+07:00,837086338515007614,251116,204668,227037,1367
1783771136356327740,2026-07-11T18:58:56.356+07:00,837086338515007614,251011,204730,227140,1396
1783771136374509558,2026-07-11T18:58:56.374+07:00,837086338515007614,250929,204660,227196,1402
1783771136392691376,2026-07-11T18:58:56.392+07:00,837086338515007614,250840,204594,227150,1343
1783771136410873194,2026-07-11T18:58:56.410+07:00,837086338515007614,250792,204620,227214,1348
1783771136429055012,2026-07-11T18:58:56.429+07:00,837086338515007614,250827,204601,227308,1366
1783771136447236830,2026-07-11T18:58:56.447+07:00,837086338515007614,250838,204549,227285,1367
1783771136465418648,2026-07-11T18:58:56.465+07:00,837086338515007614,250874,204507,227341,1338
1783771136483600466,2026-07-11T18:58:56.483+07:00,837086338515007614,250859,204469,227410,1306
1783771136501782284,2026-07-11T18:58:56.501+07:00,837086338515007614,250792,204405,227402,1343
1783771136519964102,2026-07-11T18:58:56.519+07:00,837086338515007614,250702,204364,227399,1282
1783771136538145920,2026-07-11T18:58:56.538+07:00,837086338515007614,250611,204241,227383,1333
1783771136556327738,2026-07-11T18:58:56.556+07:00,837086338515007614,250515,204093,227324,1300
1783771136574509556,2026-07-11T18:58:56.574+07:00,837086338515007614,250379,203953,227206,1367
1783771136592691374,2026-07-11T18:58:56.592+07:00,837086338515007614,250299,203884,227210,1368
1783771136610873192,2026-07-11T18:58:56.610+07:00,837086338515007614,250179,203745,227167,1338
1783771136629055010,2026-07-11T18:58:56.629+07:00,837086338515007614,250175,203680,227219,1325
1783771136647236828,2026-07-11T18:58:56.647+07:00,837086338515007614,250208,203585,227294,1393
1783771136665418646,2026-07-11T18:58:56.665+07:00,837086338515007614,250207,203582,227331,1376
1783771136683600464,2026-07-11T18:58:56.683+07:00,837086338515007614,250153,203502,227466,1306
1783771136701782282,2026-07-11T18:58:56.701+07:00,837086338515007614,250236,203515,227564,1380
1783771136719964100,2026-07-11T18:58:56.719+07:00,837086338515007614,250296,203582,227672,1382
1783771136738145918,2026-07-11T18:58:56.738+07:00,837086338515007614,250329,203619,227809,1352
1783771136756327736,2026-07-11T18:58:56.756+07:00,837086338515007614,250379,203675,228014,1372
1783771136774509554,2026-07-11T18:58:56.774+07:00,837086338515007614,250418,203633,228188,1370
1783771136792691372,2026-07-11T18:58:56.792+07:00,837086338515007614,250471,203538,228338,1337
1783771136810873190,2026-07-11T18:58:56.810+07:00,837086338515007614,250514,203596,228461,1371
1783771136829055008,2026-07-11T18:58:56.829+07:00,837086338515007614,250517,203587,228649,1360
1783771136847236826,2026-07-11T18:58:56.847+07:00,837086338515007614,250609,203632,228763,1324
1783771136865418644,2026-07-11T18:58:56.865+07:00,837086338515007614,250686,203638,228949,1324
1783771136883600462,2026-07-11T18:58:56.883+07:00,837086338515007614,250763,203667,228995,1332
1783771136901782280,2026-07-11T18:58:56.901+07:00,837086338515007614,250901,203713,229188,1348
1783771136919964098,2026-07-11T18:58:56.919+07:00,837086338515007614,250931,203801,229278,1317
1783771136938145916,2026-07-11T18:58:56.938+07:00,837086338515007614,251047,203850,229307,1310
1783771136956327734,2026-07-11T18:58:56.956+07:00,837086338515007614,251196,203857,229189,1347
1783771136974509552,2026-07-11T18:58:56.974+07:00,837086338515007614,251275,203904,229129,1406
1783771136992691370,2026-07-11T18:58:56.992+07:00,837086338515007614,251254,203867,228908,1404
1783771137010873188,2026-07-11T18:58:57.010+07:00,837086338515007614,251240,203795,228793,1374
1783771137029055006,2026-07-11T18:58:57.029+07:00,837086338515007614,251252,203756,228762,1380
1783771137047236824,2026-07-11T18:58:57.047+07:00,837086338515007614,251294,203737,228754,1367
1783771137065418642,2026-07-11T18:58:57.065+07:00,837086338515007614,251310,203721,228766,1361
1783771137083600460,2026-07-11T18:58:57.083+07:00,837086339279312614,251298,203710,228806,1351
1783771137101782278,2026-07-11T18:58:57.101+07:00,837086339279312614,251369,203683,228863,1340
1783771137119964096,2026-07-11T18:58:57.119+07:00,837086339279312614,251402,203688,228947,1376
1783771137138145914,2026-07-11T18:58:57.138+07:00,837086339279312614,251409,203634,229084,1369
1783771137156327732,2026-07-11T18:58:57.156+07:00,837086339279312614,251391,203662,229153,1380
1783771137174509550,2026-07-11T18:58:57.174+07:00,837086339279312614,251402,203672,229286,1414
1783771137192691368,2026-07-11T18:58:57.192+07:00,837086339279312614,251441,203600,229458,1352
1783771137210873186,2026-07-11T18:58:57.210+07:00,837086339279312614,251489,203664,229573,1368
1783771137229055004,2026-07-11T18:58:57.229+07:00,837086339279312614,251470,203642,229664,1316
1783771137247236822,2026-07-11T18:58:57.247+07:00,837086339279312614,251458,203666,229785,1369
1783771137265418640,2026-07-11T18:58:57.265+07:00,837086339279312614,251590,203717,229928,1361
1783771137283600458,2026-07-11T18:58:57.283+07:00,837086339279312614,251646,203794,230070,1314
1783771137301782276,2026-07-11T18:58:57.301+07:00,837086339279312614,251785,203847,230162,1376
1783771137319964094,2026-07-11T18:58:57.319+07:00,837086339279312614,251906,203962,230270,1359
1783771137338145912,2026-07-11T18:58:57.338+07:00,837086339279312614,251987,204000,230261,1341
1783771137356327730,2026-07-11T18:58:57.356+07:00,837086339279312614,252058,204029,230268,1296
1783771137374509548,2026-07-11T18:58:57.374+07:00,837086339279312614,252104,204051,230286,1361
1783771137392691366,2026-07-11T18:58:57.392+07:00,837086339279312614,252147,204043,230193,1378
1783771137410873184,2026-07-11T18:58:57.410+07:00,837086339279312614,252147,203971,230168,1315
1783771137429055002,2026-07-11T18:58:57.429+07:00,837086339279312614,252130,203931,230083,1330
1783771137447236820,2026-07-11T18:58:57.447+07:00,837086339279312614,252211,203894,230034,1348
1783771137465418638,2026-07-11T18:58:57.465+07:00,837086339279312614,252202,203971,230037,1361
1783771137483600456,2026-07-11T18:58:57.483+07:00,837086339279312614,252253,203982,230117,1318
1783771137501782274,2026-07-11T18:58:57.501+07:00,837086339279312614,252249,203907,230139,1300
1783771137519964092,2026-07-11T18:58:57.519+07:00,837086339279312614,252368,204060,230230,1354
1783771137538145910,2026-07-11T18:58:57.538+07:00,837086339279312614,252400,204061,230249,1349
1783771137556327728,2026-07-11T18:58:57.556+07:00,837086339279312614,252500,204092,230286,1341
1783771137574509546,2026-07-11T18:58:57.574+07:00,837086339279312614,252522,204088,230254,1323
1783771137592691364,2026-07-11T18:58:57.592+07:00,837086339279312614,252653,204112,230354,1337
1783771137610873182,2026-07-11T18:58:57.610+07:00,837086339279312614,252726,204188,230394,1354
1783771137629055000,2026-07-11T18:58:57.629+07:00,837086339279312614,252747,204233,230414,1382
1783771137647236818,2026-07-11T18:58:57.647+07:00,837086339279312614,252802,204228,230523,1410
1783771137665418636,2026-07-11T18:58:57.665+07:00,837086339279312614,252868,204265,230435,1338
1783771137683600454,2026-07-11T18:58:57.683+07:00,837086339279312614,253015,204298,230480,1370
1783771137701782272,2026-07-11T18:58:57.701+07:00,837086339279312614,253082,204374,230553,1377
1783771137719964090,2026-07-11T18:58:57.719+07:00,837086339279312614,253143,204464,230610,1384
1783771137738145908,2026-07-11T18:58:57.738+07:00,837086339279312614,253208,204521,230611,1325
1783771137756327726,2026-07-11T18:58:57.756+07:00,837086339279312614,253306,204568,230595,1391
1783771137774509544,2026-07-11T18:58:57.774+07:00,837086339279312614,253248,204550,230504,1325
1783771137792691362,2026-07-11T18:58:57.792+07:00,837086339279312614,253285,204587,230412,1344
1783771137810873180,2026-07-11T18:58:57.810+07:00,837086339279312614,253213,204519,230282,1352
1783771137829054998,2026-07-11T18:58:57.829+07:00,837086339279312614,253231,204467,230199,1433
1783771137847236816,2026-07-11T18:58:57.847+07:00,837086340061821607,253085,204450,230075,1327
1783771137865418634,2026-07-11T18:58:57.865+07:00,837086340061821607,253118,204489,230047,1342
1783771137883600452,2026-07-11T18:58:57.883+07:00,837086340061821607,253041,204380,229978,1314
1783771137901782270,2026-07-11T18:58:57.901+07:00,837086340061821607,253016,204462,229976,1351
1783771137919964088,2026-07-11T18:58:57.919+07:00,837086340061821607,253028,204469,229960,1334
1783771137938145906,2026-07-11T18:58:57.938+07:00,837086340061821607,253039,204489,230048,1323
1783771137956327724,2026-07-11T18:58:57.956+07:00,837086340061821607,253051,204497,230088,1328
1783771137974509542,2026-07-11T18:58:57.974+07:00,837086340061821607,253125,204547,230149,1384
1783771137992691360,2026-07-11T18:58:57.992+07:00,837086340061821607,253106,204569,230214,1325
1783771138010873178,2026-07-11T18:58:58.010+07:00,837086340061821607,253180,204643,230283,1351
1783771138029054996,2026-07-11T18:58:58.029+07:00,837086340061821607,253179,204645,230317,1341
1783771138047236814,2026-07-11T18:58:58.047+07:00,837086340061821607,253205,204582,230387,1333
1783771138065418632,2026-07-11T18:58:58.065+07:00,837086340061821607,253196,204634,230403,1343
1783771138083600450,2026-07-11T18:58:58.083+07:00,837086340061821607,253209,204607,230318,1325
1783771138101782268,2026-07-11T18:58:58.101+07:00,837086340061821607,253214,204645,230358,1309
1783771138119964086,2026-07-11T18:58:58.119+07:00,837086340061821607,253239,204704,230399,1384
1783771138138145904,2026-07-11T18:58:58.138+07:00,837086340061821607,253285,204698,230474,1366
1783771138156327722,2026-07-11T18:58:58.156+07:00,837086340061821607,253282,204757,230556,1383
1783771138174509540,2026-07-11T18:58:58.174+07:00,837086340061821607,253314,204704,230637,1383
1783771138192691358,2026-07-11T18:58:58.192+07:00,837086340061821607,253209,204631,230600,1348
1783771138210873176,2026-07-11T18:58:58.210+07:00,837086340061821607,253197,204577,230579,1382
1783771138229054994,2026-07-11T18:58:58.229+07:00,837086340061821607,253061,204480,230531,1383
1783771138247236812,2026-07-11T18:58:58.247+07:00,837086340061821607,253003,204340,230465,1382
1783771138265418630,2026-07-11T18:58:58.265+07:00,837086340061821607,252878,204257,230364,1391
1783771138283600448,2026-07-11T18:58:58.283+07:00,837086340061821607,252803,204090,230312,1351
1783771138301782266,2026-07-11T18:58:58.301+07:00,837086340061821607,252804,204110,230400,1310
1783771138319964084,2026-07-11T18:58:58.319+07:00,837086340061821607,252784,204010,230373,1377
1783771138338145902,2026-07-11T18:58:58.338+07:00,837086340061821607,252754,203974,230392,1332
1783771138356327720,2026-07-11T18:58:58.356+07:00,837086340061821607,252903,203948,230518,1375
1783771138374509538,2026-07-11T18:58:58.374+07:00,837086340061821607,253013,203984,230583,1339
1783771138392691356,2026-07-11T18:58:58.392+07:00,837086340061821607,253106,204156,230644,1355
1783771138410873174,2026-07-11T18:58:58.410+07:00,837086340061821607,253296,204221,230715,1339
1783771138429054992,2026-07-11T18:58:58.429+07:00,837086340061821607,253477,204417,230745,1371
1783771138447236810,2026-07-11T18:58:58.447+07:00,837086340061821607,253588,204478,230753,1375
1783771138465418628,2026-07-11T18:58:58.465+07:00,837086340061821607,253688,204553,230805,1443
1783771138483600446,2026-07-11T18:58:58.483+07:00,837086340061821607,253746,204712,230796,1385
1783771138501782264,2026-07-11T18:58:58.501+07:00,837086340061821607,253824,204809,230809,1328
1783771138519964082,2026-07-11T18:58:58.519+07:00,837086340061821607,254006,204906,230831,1361
1783771138538145900,2026-07-11T18:58:58.538+07:00,837086340061821607,254038,204968,230851,1311
1783771138556327718,2026-07-11T18:58:58.556+07:00,837086340061821607,254245,205098,230978,1338
1783771138574509536,2026-07-11T18:58:58.574+07:00,837086340061821607,254386,205224,231046,1386
1783771138592691354,2026-07-11T18:58:58.592+07:00,837086340061821607,254419,205326,231067,1337
1783771138610873172,2026-07-11T18:58:58.610+07:00,837086340061821607,254516,205394,231125,1372
1783771138629054990,2026-07-11T18:58:58.629+07:00,837086340826202901,254504,205417,231052,1357
1783771138647236808,2026-07-11T18:58:58.647+07:00,837086340826202901,254421,205305,230894,1292
1783771138665418626,2026-07-11T18:58:58.665+07:00,837086340826202901,254415,205353,230810,1284
1783771138683600444,2026-07-11T18:58:58.683+07:00,837086340826202901,254443,205323,230690,1371
1783771138701782262,2026-07-11T18:58:58.701+07:00,837086340826202901,254416,205348,230634,1352
1783771138719964080,2026-07-11T18:58:58.719+07:00,837086340826202901,254512,205374,230662,1406
1783771138738145898,2026-07-11T18:58:58.738+07:00,837086340826202901,254549,205404,230708,1299
1783771138756327716,2026-07-11T18:58:58.756+07:00,837086340826202901,254715,205545,230736,1404
1783771138774509534,2026-07-11T18:58:58.774+07:00,837086340826202901,254892,205686,230855,1333
1783771138792691352,2026-07-11T18:58:58.792+07:00,837086340826202901,255187,205868,231070,1417
1783771138810873170,2026-07-11T18:58:58.810+07:00,837086340826202901,255430,206063,231289,1388
1783771138829054988,2026-07-11T18:58:58.829+07:00,837086340826202901,255681,206287,231464,1375
1783771138847236806,2026-07-11T18:58:58.847+07:00,837086340826202901,255915,206410,231600,1297
1783771138865418624,2026-07-11T18:58:58.865+07:00,837086340826202901,256177,206580,231767,1297
1783771138883600442,2026-07-11T18:58:58.883+07:00,837086340826202901,256453,206799,231992,1372
1783771138901782260,2026-07-11T18:58:58.901+07:00,837086340826202901,256736,206891,232071,1342
1783771138919964078,2026-07-11T18:58:58.919+07:00,837086340826202901,256923,206948,232221,1345
1783771138938145896,2026-07-11T18:58:58.938+07:00,837086340826202901,257229,207162,232422,1375
1783771138956327714,2026-07-11T18:58:58.956+07:00,837086340826202901,257531,207327,232589,1347
1783771138974509532,2026-07-11T18:58:58.974+07:00,837086340826202901,257818,207404,232698,1338
1783771138992691350,2026-07-11T18:58:58.992+07:00,837086340826202901,258132,207667,232903,1413
