host_timestamp_ns,host_timestamp_iso,pmd_timestamp,ppg0,ppg1,ppg2,ambient
1784137623248415200,2026-07-16T00:47:03.248+07:00,837452823242012881,382155,488741,464510,172729
1784137623266597018,2026-07-16T00:47:03.266+07:00,837452823242012881,382255,488865,464642,172777
1784137623284778836,2026-07-16T00:47:03.284+07:00,837452823242012881,382265,488867,464686,172787
1784137623302960654,2026-07-16T00:47:03.302+07:00,837452823242012881,382312,488863,464770,172810
1784137623321142472,2026-07-16T00:47:03.321+07:00,837452823242012881,382358,489058,464835,172732
1784137623339324290,2026-07-16T00:47:03.339+07:00,837452823242012881,382428,489087,464812,172691
1784137623357506108,2026-07-16T00:47:03.357+07:00,837452823242012881,382419,489084,464854,172692
1784137623375687926,2026-07-16T00:47:03.375+07:00,837452823242012881,382474,489161,464947,172699
1784137623393869744,2026-07-16T00:47:03.393+07:00,837452823242012881,382450,489165,464912,172742
1784137623412051562,2026-07-16T00:47:03.412+07:00,837452823242012881,382390,489064,464868,172713
1784137623430233380,2026-07-16T00:47:03.430+07:00,837452823242012881,382416,489035,464906,172782
1784137623448415198,2026-07-16T00:47:03.448+07:00,837452823242012881,382374,488945,464788,172708
1784137623466597016,2026-07-16T00:47:03.466+07:00,837452823242012881,382300,488879,464695,172734
1784137623484778834,2026-07-16T00:47:03.484+07:00,837452823242012881,382288,488830,464699,172740
1784137623502960652,2026-07-16T00:47:03.502+07:00,837452823242012881,382237,488790,464675,172758
1784137623521142470,2026-07-16T00:47:03.521+07:00,837452823242012881,382263,488758,464666,172753
1784137623539324288,2026-07-16T00:47:03.539+07:00,837452823242012881,382223,488608,464609,172736
1784137623557506106,2026-07-16T00:47:03.557+07:00,837452823242012881,382213,488625,464581,172713
1784137623575687924,2026-07-16T00:47:03.575+07:00,837452823242012881,382166,488594,464545,172702
1784137623593869742,2026-07-16T00:47:03.593+07:00,837452823242012881,382171,488585,464571,172733
1784137623612051560,2026-07-16T00:47:03.612+07:00,837452823242012881,382210,488619,464573,172784
1784137623630233378,2026-07-16T00:47:03.630+07:00,837452823242012881,382204,488592,464535,172748
1784137623648415196,2026-07-16T00:47:03.648+07:00,837452823242012881,382167,488608,464553,172736
1784137623666597014,2026-07-16T00:47:03.666+07:00,837452823242012881,382208,488608,464611,172751
1784137623684778832,2026-07-16T00:47:03.684+07:00,837452823242012881,382212,488579,464554,172718
1784137623702960650,2026-07-16T00:47:03.702+07:00,837452823242012881,382228,488578,464553,172741
1784137623721142468,2026-07-16T00:47:03.721+07:00,837452823242012881,382245,488626,464648,172768
1784137623739324286,2026-07-16T00:47:03.739+07:00,837452823242012881,382165,488630,464630,172703
1784137623757506104,2026-07-16T00:47:03.757+07:00,837452823242012881,382259,488742,464715,172738
1784137623775687922,2026-07-16T00:47:03.775+07:00,837452823242012881,382292,488707,464743,172728
1784137623793869740,2026-07-16T00:47:03.793+07:00,837452823242012881,382339,488772,464744,172780
1784137623812051558,2026-07-16T00:47:03.812+07:00,837452823242012881,382360,488806,464801,172736
1784137623830233376,2026-07-16T00:47:03.830+07:00,837452823242012881,382367,488866,464804,172738
1784137623848415194,2026-07-16T00:47:03.848+07:00,837452823242012881,382398,488944,464889,172730
1784137623866597012,2026-07-16T00:47:03.866+07:00,837452823242012881,382481,489014,464924,172734
1784137623884778830,2026-07-16T00:47:03.884+07:00,837452823242012881,382503,489101,464991,172751
1784137623902960648,2026-07-16T00:47:03.902+07:00,837452823242012881,382631,489143,465052,172777
1784137623921142466,2026-07-16T00:47:03.921+07:00,837452823242012881,382551,489159,465075,172696
1784137623939324284,2026-07-16T00:47:03.939+07:00,837452823242012881,382618,489286,465178,172714
1784137623957506102,2026-07-16T00:47:03.957+07:00,837452823242012881,382628,489431,465287,172726
1784137623975687920,2026-07-16T00:47:03.975+07:00,837452823242012881,382688,489421,465268,172696
1784137623993869738,2026-07-16T00:47:03.993+07:00,837452823242012881,382689,489489,465331,172749
1784137624012051556,2026-07-16T00:47:04.012+07:00,837452823242012881,382714,489544,465425,172826
1784137624030233374,2026-07-16T00:47:04.030+07:00,837452824079056007,382785,489686,465475,172729
1784137624048415192,2026-07-16T00:47:04.048+07:00,837452824079056007,382801,489713,465510,172687
1784137624066597010,2026-07-16T00:47:04.066+07:00,837452824079056007,382868,489809,465579,172692
1784137624084778828,2026-07-16T00:47:04.084+07:00,837452824079056007,382925,489816,465601,172757
1784137624102960646,2026-07-16T00:47:04.102+07:00,837452824079056007,382982,489892,465627,172766
1784137624121142464,2026-07-16T00:47:04.121+07:00,837452824079056007,382943,489883,465699,172760
1784137624139324282,2026-07-16T00:47:04.139+07:00,837452824079056007,382999,489974,465722,172801
1784137624157506100,2026-07-16T00:47:04.157+07:00,837452824079056007,382937,489956,465671,172742
1784137624175687918,2026-07-16T00:47:04.175+07:00,837452824079056007,382981,489980,465671,172728
1784137624193869736,2026-07-16T00:47:04.193+07:00,837452824079056007,383009,489899,465700,172718
1784137624212051554,2026-07-16T00:47:04.212+07:00,837452824079056007,382975,489898,465654,172730
1784137624230233372,2026-07-16T00:47:04.230+07:00,837452824079056007,382995,489878,465699,172762
1784137624248415190,2026-07-16T00:47:04.248+07:00,837452824079056007,382995,489928,465746,172775
1784137624266597008,2026-07-16T00:47:04.266+07:00,837452824079056007,382977,489911,465717,172750
1784137624284778826,2026-07-16T00:47:04.284+07:00,837452824079056007,382968,489963,465785,172784
1784137624302960644,2026-07-16T00:47:04.302+07:00,837452824079056007,383054,490035,465793,172804
1784137624321142462,2026-07-16T00:47:04.321+07:00,837452824079056007,382972,490064,465773,172690
1784137624339324280,2026-07-16T00:47:04.339+07:00,837452824079056007,383078,490105,465848,172757
1784137624357506098,2026-07-16T00:47:04.357+07:00,837452824079056007,383002,490093,465918,172737
1784137624375687916,2026-07-16T00:47:04.375+07:00,837452824079056007,383012,490213,465882,172720
1784137624393869734,2026-07-16T00:47:04.393+07:00,837452824079056007,383030,490196,465870,172718
1784137624412051552,2026-07-16T00:47:04.412+07:00,837452824079056007,383088,490248,465905,172731
1784137624430233370,2026-07-16T00:47:04.430+07:00,837452824079056007,383076,490206,465892,172703
1784137624448415188,2026-07-16T00:47:04.448+07:00,837452824079056007,383062,490283,465969,172755
1784137624466597006,2026-07-16T00:47:04.466+07:00,837452824079056007,383060,490345,465964,172780
1784137624484778824,2026-07-16T00:47:04.484+07:00,837452824079056007,383098,490372,465967,172731
1784137624502960642,2026-07-16T00:47:04.502+07:00,837452824079056007,383110,490429,466029,172761
1784137624521142460,2026-07-16T00:47:04.521+07:00,837452824079056007,383143,490510,466057,172765
1784137624539324278,2026-07-16T00:47:04.539+07:00,837452824079056007,383134,490509,466087,172799
1784137624557506096,2026-07-16T00:47:04.557+07:00,837452824079056007,383220,490660,466103,172824
1784137624575687914,2026-07-16T00:47:04.575+07:00,837452824079056007,383270,490707,466217,172782
1784137624593869732,2026-07-16T00:47:04.593+07:00,837452824079056007,383274,490789,466232,172768
1784137624612051550,2026-07-16T00:47:04.612+07:00,837452824079056007,383355,490845,466304,172748
1784137624630233368,2026-07-16T00:47:04.630+07:00,837452824079056007,383369,490943,466429,172802
1784137624648415186,2026-07-16T00:47:04.648+07:00,837452824079056007,383420,490945,466386,172764
1784137624666597004,2026-07-16T00:47:04.666+07:00,837452824079056007,383477,491082,466514,172763
1784137624684778822,2026-07-16T00:47:04.684+07:00,837452824079056007,383556,491110,466549,172796
1784137624702960640,2026-07-16T00:47:04.702+07:00,837452824079056007,383575,491247,466597,172764
1784137624721142458,2026-07-16T00:47:04.721+07:00,837452824079056007,383634,491374,466699,172802
1784137624739324276,2026-07-16T00:47:04.739+07:00,837452824079056007,383624,491436,466754,172747
1784137624757506094,2026-07-16T00:47:04.757+07:00,837452824079056007,383671,491492,466803,172776
1784137624775687912,2026-07-16T00:47:04.775+07:00,837452824079056007,383755,491584,466927,172810
1784137624793869730,2026-07-16T00:47:04.793+07:00,837452824079056007,383704,491735,466973,172781
1784137624812051548,2026-07-16T00:47:04.812+07:00,837452824079056007,383820,491804,467029,172796
1784137624830233366,2026-07-16T00:47:04.830+07:00,837452824079056007,383859,491883,467124,172771
1784137624848415184,2026-07-16T00:47:04.848+07:00,837452824079056007,383898,491995,467144,172811
1784137624866597002,2026-07-16T00:47:04.866+07:00,837452824934390092,383940,492063,467192,172802
1784137624884778820,2026-07-16T00:47:04.884+07:00,837452824934390092,383966,492029,467177,172833
1784137624902960638,2026-07-16T00:47:04.902+07:00,837452824934390092,383937,492079,467155,172805
1784137624921142456,2026-07-16T00:47:04.921+07:00,837452824934390092,383958,492039,467169,172799
1784137624939324274,2026-07-16T00:47:04.939+07:00,837452824934390092,383917,492089,467139,172777
1784137624957506092,2026-07-16T00:47:04.957+07:00,837452824934390092,383949,492077,467160,172748
1784137624975687910,2026-07-16T00:47:04.975+07:00,837452824934390092,383917,492067,467123,172708
1784137624993869728,2026-07-16T00:47:04.993+07:00,837452824934390092,383937,492096,467165,172745
1784137625012051546,2026-07-16T00:47:05.012+07:00,837452824934390092,383872,492122,467197,172771
1784137625030233364,2026-07-16T00:47:05.030+07:00,837452824934390092,383896,492151,467248,172816
1784137625048415182,2026-07-16T00:47:05.048+07:00,837452824934390092,383944,492199,467233,172771
1784137625066597000,2026-07-16T00:47:05.066+07:00,837452824934390092,383908,492170,467155,172761
1784137625084778818,2026-07-16T00:47:05.084+07:00,837452824934390092,383899,492189,467195,172768
1784137625102960636,2026-07-16T00:47:05.102+07:00,837452824934390092,383893,492204,467217,172749
1784137625121142454,2026-07-16T00:47:05.121+07:00,837452824934390092,383964,492278,467229,172815
1784137625139324272,2026-07-16T00:47:05.139+07:00,837452824934390092,383931,492312,467205,172727
1784137625157506090,2026-07-16T00:47:05.157+07:00,837452824934390092,383975,492367,467274,172780
1784137625175687908,2026-07-16T00:47:05.175+07:00,837452824934390092,384022,492418,467329,172829
1784137625193869726,2026-07-16T00:47:05.193+07:00,837452824934390092,383955,492442,467296,172786
1784137625212051544,2026-07-16T00:47:05.212+07:00,837452824934390092,383978,492516,467329,172758
1784137625230233362,2026-07-16T00:47:05.230+07:00,837452824934390092,384017,492566,467386,172744
1784137625248415180,2026-07-16T00:47:05.248+07:00,837452824934390092,384060,492603,467390,172762
1784137625266596998,2026-07-16T00:47:05.266+07:00,837452824934390092,384107,492608,467438,172735
1784137625284778816,2026-07-16T00:47:05.284+07:00,837452824934390092,384070,492652,467482,172732
1784137625302960634,2026-07-16T00:47:05.302+07:00,837452824934390092,384069,492755,467503,172757
1784137625321142452,2026-07-16T00:47:05.321+07:00,837452824934390092,384120,492820,467578,172711
1784137625339324270,2026-07-16T00:47:05.339+07:00,837452824934390092,384143,492853,467546,172730
1784137625357506088,2026-07-16T00:47:05.357+07:00,837452824934390092,384196,492948,467603,172724
1784137625375687906,2026-07-16T00:47:05.375+07:00,837452824934390092,384244,493073,467692,172755
1784137625393869724,2026-07-16T00:47:05.393+07:00,837452824934390092,384247,493072,467683,172741
1784137625412051542,2026-07-16T00:47:05.412+07:00,837452824934390092,384319,493187,467742,172784
1784137625430233360,2026-07-16T00:47:05.430+07:00,837452824934390092,384355,493254,467853,172777
1784137625448415178,2026-07-16T00:47:05.448+07:00,837452824934390092,384380,493301,467905,172760
1784137625466596996,2026-07-16T00:47:05.466+07:00,837452824934390092,384410,493334,467930,172764
1784137625484778814,2026-07-16T00:47:05.484+07:00,837452824934390092,384483,493469,467976,172803
1784137625502960632,2026-07-16T00:47:05.502+07:00,837452824934390092,384542,493519,468060,172783
1784137625521142450,2026-07-16T00:47:05.521+07:00,837452824934390092,384540,493619,468169,172785
1784137625539324268,2026-07-16T00:47:05.539+07:00,837452824934390092,384513,493614,468191,172762
1784137625557506086,2026-07-16T00:47:05.557+07:00,837452824934390092,384585,493707,468195,172698
1784137625575687904,2026-07-16T00:47:05.575+07:00,837452824934390092,384674,493797,468276,172711
1784137625593869722,2026-07-16T00:47:05.593+07:00,837452824934390092,384650,493987,468352,172743
1784137625612051540,2026-07-16T00:47:05.612+07:00,837452824934390092,384708,493956,468367,172684
1784137625630233358,2026-07-16T00:47:05.630+07:00,837452824934390092,384751,494178,468486,172748
1784137625648415176,2026-07-16T00:47:05.648+07:00,837452824934390092,384807,494147,468494,172718
1784137625666596994,2026-07-16T00:47:05.666+07:00,837452824934390092,384837,494264,468505,172700
1784137625684778812,2026-07-16T00:47:05.684+07:00,837452824934390092,384886,494332,468560,172778
1784137625702960630,2026-07-16T00:47:05.702+07:00,837452824934390092,384944,494349,468609,172742
1784137625721142448,2026-07-16T00:47:05.721+07:00,837452825735066450,384919,494353,468618,172776
1784137625739324266,2026-07-16T00:47:05.739+07:00,837452825735066450,384912,494383,468599,172761
1784137625757506084,2026-07-16T00:47:05.757+07:00,837452825735066450,384855,494361,468594,172728
1784137625775687902,2026-07-16T00:47:05.775+07:00,837452825735066450,384801,494349,468513,172747
1784137625793869720,2026-07-16T00:47:05.793+07:00,837452825735066450,384839,494364,468566,172735
1784137625812051538,2026-07-16T00:47:05.812+07:00,837452825735066450,384872,494385,468536,172731
1784137625830233356,2026-07-16T00:47:05.830+07:00,837452825735066450,384790,494358,468498,172755
1784137625848415174,2026-07-16T00:47:05.848+07:00,837452825735066450,384814,494389,468475,172800
1784137625866596992,2026-07-16T00:47:05.866+07:00,837452825735066450,384804,494329,468512,172743
1784137625884778810,2026-07-16T00:47:05.884+07:00,837452825735066450,384753,494336,468428,172741
1784137625902960628,2026-07-16T00:47:05.902+07:00,837452825735066450,384764,494343,468424,172746
1784137625921142446,2026-07-16T00:47:05.921+07:00,837452825735066450,384796,494376,468476,172763
1784137625939324264,2026-07-16T00:47:05.939+07:00,837452825735066450,384746,494290,468476,172780
1784137625957506082,2026-07-16T00:47:05.957+07:00,837452825735066450,384708,494357,468425,172729
1784137625975687900,2026-07-16T00:47:05.975+07:00,837452825735066450,384688,494348,468490,172761
1784137625993869718,2026-07-16T00:47:05.993+07:00,837452825735066450,384709,494354,468455,172755
1784137626012051536,2026-07-16T00:47:06.012+07:00,837452825735066450,384756,494440,468537,172779
1784137626030233354,2026-07-16T00:47:06.030+07:00,837452825735066450,384760,494459,468477,172767
1784137626048415172,2026-07-16T00:47:06.048+07:00,837452825735066450,384782,494460,468414,172769
1784137626066596990,2026-07-16T00:47:06.066+07:00,837452825735066450,384790,494527,468410,172759
1784137626084778808,2026-07-16T00:47:06.084+07:00,837452825735066450,384851,494492,468479,172813
1784137626102960626,2026-07-16T00:47:06.102+07:00,837452825735066450,384745,494532,468504,172754
1784137626121142444,2026-07-16T00:47:06.121+07:00,837452825735066450,384770,494554,468539,172741
1784137626139324262,2026-07-16T00:47:06.139+07:00,837452825735066450,384830,494634,468534,172748
1784137626157506080,2026-07-16T00:47:06.157+07:00,837452825735066450,384888,494649,468595,172789
1784137626175687898,2026-07-16T00:47:06.175+07:00,837452825735066450,384839,494710,468574,172718
1784137626193869716,2026-07-16T00:47:06.193+07:00,837452825735066450,384864,494730,468623,172792
1784137626212051534,2026-07-16T00:47:06.212+07:00,837452825735066450,384935,494833,468662,172824
1784137626230233352,2026-07-16T00:47:06.230+07:00,837452825735066450,384909,494813,468697,172768
1784137626248415170,2026-07-16T00:47:06.248+07:00,837452825735066450,384941,494875,468681,172730
1784137626266596988,2026-07-16T00:47:06.266+07:00,837452825735066450,384954,494912,468803,172736
1784137626284778806,2026-07-16T00:47:06.284+07:00,837452825735066450,384967,494925,468760,172724
1784137626302960624,2026-07-16T00:47:06.302+07:00,837452825735066450,384956,494942,468818,172716
1784137626321142442,2026-07-16T00:47:06.321+07:00,837452825735066450,385056,495081,468863,172819
1784137626339324260,2026-07-16T00:47:06.339+07:00,837452825735066450,385021,495088,468853,172779
1784137626357506078,2026-07-16T00:47:06.357+07:00,837452825735066450,385074,495151,468904,172799
1784137626375687896,2026-07-16T00:47:06.375+07:00,837452825735066450,385108,495145,468940,172762
1784137626393869714,2026-07-16T00:47:06.393+07:00,837452825735066450,385122,495213,468981,172733
1784137626412051532,2026-07-16T00:47:06.412+07:00,837452825735066450,385144,495300,469005,172749
1784137626430233350,2026-07-16T00:47:06.430+07:00,837452825735066450,385113,495342,469020,172749
1784137626448415168,2026-07-16T00:47:06.448+07:00,837452825735066450,385214,495332,469101,172752
1784137626466596986,2026-07-16T00:47:06.466+07:00,837452825735066450,385275,495456,469161,172779
1784137626484778804,2026-07-16T00:47:06.484+07:00,837452825735066450,385229,495522,469133,172762
1784137626502960622,2026-07-16T00:47:06.502+07:00,837452825735066450,385333,495548,469208,172741
1784137626521142440,2026-07-16T00:47:06.521+07:00,837452826553963571,385330,495590,469196,172696
1784137626539324258,2026-07-16T00:47:06.539+07:00,837452826553963571,385386,495711,469229,172758
1784137626557506076,2026-07-16T00:47:06.557+07:00,837452826553963571,385374,495697,469214,172803
1784137626575687894,2026-07-16T00:47:06.575+07:00,837452826553963571,385349,495639,469206,172736
1784137626593869712,2026-07-16T00:47:06.593+07:00,837452826553963571,385325,495665,469209,172752
1784137626612051530,2026-07-16T00:47:06.612+07:00,837452826553963571,385257,495623,469128,172737
1784137626630233348,2026-07-16T00:47:06.630+07:00,837452826553963571,385235,495586,469011,172720
1784137626648415166,2026-07-16T00:47:06.648+07:00,837452826553963571,385205,495527,469000,172710
1784137626666596984,2026-07-16T00:47:06.666+07:00,837452826553963571,385172,495440,468935,172709
1784137626684778802,2026-07-16T00:47:06.684+07:00,837452826553963571,385194,495449,468899,172742
1784137626702960620,2026-07-16T00:47:06.702+07:00,837452826553963571,385096,495341,468870,172706
1784137626721142438,2026-07-16T00:47:06.721+07:00,837452826553963571,385106,495296,468864,172786
1784137626739324256,2026-07-16T00:47:06.739+07:00,837452826553963571,385071,495233,468830,172796
1784137626757506074,2026-07-16T00:47:06.757+07:00,837452826553963571,385024,495229,468684,172740
1784137626775687892,2026-07-16T00:47:06.775+07:00,837452826553963571,385002,495153,468638,172738
1784137626793869710,2026-07-16T00:47:06.793+07:00,837452826553963571,384935,495129,468584,172737
1784137626812051528,2026-07-16T00:47:06.812+07:00,837452826553963571,384967,495085,468602,172740
1784137626830233346,2026-07-16T00:47:06.830+07:00,837452826553963571,384885,495055,468474,172716
1784137626848415164,2026-07-16T00:47:06.848+07:00,837452826553963571,384882,495064,468532,172749
1784137626866596982,2026-07-16T00:47:06.866+07:00,837452826553963571,384880,495024,468469,172759
1784137626884778800,2026-07-16T00:47:06.884+07:00,837452826553963571,384847,495006,468426,172742
1784137626902960618,2026-07-16T00:47:06.902+07:00,837452826553963571,384821,494933,468395,172767
1784137626921142436,2026-07-16T00:47:06.921+07:00,837452826553963571,384805,494919,468349,172813
1784137626939324254,2026-07-16T00:47:06.939+07:00,837452826553963571,384827,494916,468301,172791
1784137626957506072,2026-07-16T00:47:06.957+07:00,837452826553963571,384818,494929,468299,172786
1784137626975687890,2026-07-16T00:47:06.975+07:00,837452826553963571,384761,494915,468307,172830
1784137626993869708,2026-07-16T00:47:06.993+07:00,837452826553963571,384821,494954,468311,172788
1784137627012051526,2026-07-16T00:47:07.012+07:00,837452826553963571,384835,494935,468329,172750
1784137627030233344,2026-07-16T00:47:07.030+07:00,837452826553963571,384891,494997,468334,172813
1784137627048415162,2026-07-16T00:47:07.048+07:00,837452826553963571,384901,494989,468383,172821
1784137627066596980,2026-07-16T00:47:07.066+07:00,837452826553963571,384811,494950,468256,172760
1784137627084778798,2026-07-16T00:47:07.084+07:00,837452826553963571,384886,495002,468251,172730
1784137627102960616,2026-07-16T00:47:07.102+07:00,837452826553963571,384902,495025,468323,172744
1784137627121142434,2026-07-16T00:47:07.121+07:00,837452826553963571,384913,495001,468252,172711
1784137627139324252,2026-07-16T00:47:07.139+07:00,837452826553963571,384959,495080,468268,172793
1784137627157506070,2026-07-16T00:47:07.157+07:00,837452826553963571,384981,495162,468301,172766
1784137627175687888,2026-07-16T00:47:07.175+07:00,837452826553963571,384957,495263,468367,172792
1784137627193869706,2026-07-16T00:47:07.193+07:00,837452826553963571,385108,495280,468434,172794
1784137627212051524,2026-07-16T00:47:07.212+07:00,837452826553963571,385098,495344,468445,172762
1784137627230233342,2026-07-16T00:47:07.230+07:00,837452826553963571,385029,495355,468368,172690
1784137627248415160,2026-07-16T00:47:07.248+07:00,837452826553963571,385092,495345,468425,172747
1784137627266596978,2026-07-16T00:47:07.266+07:00,837452826553963571,385144,495325,468461,172786
1784137627284778796,2026-07-16T00:47:07.284+07:00,837452826553963571,385187,495416,468481,172763
1784137627302960614,2026-07-16T00:47:07.302+07:00,837452826553963571,385227,495395,468419,172765
1784137627321142432,2026-07-16T00:47:07.321+07:00,837452826553963571,385238,495473,468489,172765
1784137627339324250,2026-07-16T00:47:07.339+07:00,837452827336419150,385359,495583,468522,172776
1784137627357506068,2026-07-16T00:47:07.357+07:00,837452827336419150,385359,495642,468541,172755
1784137627375687886,2026-07-16T00:47:07.375+07:00,837452827336419150,385393,495672,468626,172793
1784137627393869704,2026-07-16T00:47:07.393+07:00,837452827336419150,385356,495704,468588,172772
1784137627412051522,2026-07-16T00:47:07.412+07:00,837452827336419150,385410,495709,468598,172780
1784137627430233340,2026-07-16T00:47:07.430+07:00,837452827336419150,385437,495731,468572,172752
1784137627448415158,2026-07-16T00:47:07.448+07:00,837452827336419150,385354,495672,468495,172778
1784137627466596976,2026-07-16T00:47:07.466+07:00,837452827336419150,385302,495582,468393,172734
1784137627484778794,2026-07-16T00:47:07.484+07:00,837452827336419150,385301,495515,468319,172792
1784137627502960612,2026-07-16T00:47:07.502+07:00,837452827336419150,385221,495395,468204,172743
1784137627521142430,2026-07-16T00:47:07.521+07:00,837452827336419150,385143,495331,468173,172753
1784137627539324248,2026-07-16T00:47:07.539+07:00,837452827336419150,385074,495196,468012,172717
1784137627557506066,2026-07-16T00:47:07.557+07:00,837452827336419150,385064,495136,467943,172737
1784137627575687884,2026-07-16T00:47:07.575+07:00,837452827336419150,385040,495062,467825,172775
1784137627593869702,2026-07-16T00:47:07.593+07:00,837452827336419150,385017,495005,467709,172730
1784137627612051520,2026-07-16T00:47:07.612+07:00,837452827336419150,384921,494976,467664,172744
1784137627630233338,2026-07-16T00:47:07.630+07:00,837452827336419150,384890,494887,467620,172745
1784137627648415156,2026-07-16T00:47:07.648+07:00,837452827336419150,384803,494856,467561,172727
1784137627666596974,2026-07-16T00:47:07.666+07:00,837452827336419150,384721,494757,467458,172772
1784137627684778792,2026-07-16T00:47:07.684+07:00,837452827336419150,384743,494746,467388,172772
1784137627702960610,2026-07-16T00:47:07.702+07:00,837452827336419150,384686,494650,467342,172783
1784137627721142428,2026-07-16T00:47:07.721+07:00,837452827336419150,384626,494548,467250,172750
1784137627739324246,2026-07-16T00:47:07.739+07:00,837452827336419150,384549,494484,467070,172743
1784137627757506064,2026-07-16T00:47:07.757+07:00,837452827336419150,384454,494469,466945,172711
1784137627775687882,2026-07-16T00:47:07.775+07:00,837452827336419150,384377,494331,466856,172745
1784137627793869700,2026-07-16T00:47:07.793+07:00,837452827336419150,384270,494208,466750,172736
1784137627812051518,2026-07-16T00:47:07.812+07:00,837452827336419150,384244,494141,466679,172760
1784137627830233336,2026-07-16T00:47:07.830+07:00,837452827336419150,384191,494095,466601,172740
1784137627848415154,2026-07-16T00:47:07.848+07:00,837452827336419150,384099,494138,466551,172796
1784137627866596972,2026-07-16T00:47:07.866+07:00,837452827336419150,384030,494055,466428,172745
1784137627884778790,2026-07-16T00:47:07.884+07:00,837452827336419150,384040,493976,466420,172745
1784137627902960608,2026-07-16T00:47:07.902+07:00,837452827336419150,383921,493807,466243,172759
1784137627921142426,2026-07-16T00:47:07.921+07:00,837452827336419150,383866,493758,466175,172749
1784137627939324244,2026-07-16T00:47:07.939+07:00,837452827336419150,383823,493807,466045,172732
1784137627957506062,2026-07-16T00:47:07.957+07:00,837452827336419150,383676,493718,465892,172685
1784137627975687880,2026-07-16T00:47:07.975+07:00,837452827336419150,383693,493721,465885,172761
1784137627993869698,2026-07-16T00:47:07.993+07:00,837452827336419150,383608,493669,465747,172755
1784137628012051516,2026-07-16T00:47:08.012+07:00,837452827336419150,383511,493599,465674,172749
1784137628030233334,2026-07-16T00:47:08.030+07:00,837452827336419150,383462,493512,465601,172747
1784137628048415152,2026-07-16T00:47:08.048+07:00,837452827336419150,383404,493411,465564,172770
1784137628066596970,2026-07-16T00:47:08.066+07:00,837452827336419150,383387,493407,465496,172762
1784137628084778788,2026-07-16T00:47:08.084+07:00,837452827336419150,383397,493359,465468,172766
1784137628102960606,2026-07-16T00:47:08.102+07:00,837452827336419150,383323,493319,465413,172715
1784137628121142424,2026-07-16T00:47:08.121+07:00,837452828155323901,383315,493289,465387,172733
1784137628139324242,2026-07-16T00:47:08.139+07:00,837452828155323901,383221,493279,465304,172723
1784137628157506060,2026-07-16T00:47:08.157+07:00,837452828155323901,383248,493215,465299,172755
1784137628175687878,2026-07-16T00:47:08.175+07:00,837452828155323901,383229,493212,465262,172771
1784137628193869696,2026-07-16T00:47:08.193+07:00,837452828155323901,383150,493160,465199,172740
1784137628212051514,2026-07-16T00:47:08.212+07:00,837452828155323901,383065,492990,465016,172735
1784137628230233332,2026-07-16T00:47:08.230+07:00,837452828155323901,383076,492903,464985,172747
1784137628248415150,2026-07-16T00:47:08.248+07:00,837452828155323901,383075,492821,464868,172812
1784137628266596968,2026-07-16T00:47:08.266+07:00,837452828155323901,382943,492683,464715,172738
1784137628284778786,2026-07-16T00:47:08.284+07:00,837452828155323901,382893,492598,464604,172776
1784137628302960604,2026-07-16T00:47:08.302+07:00,837452828155323901,382965,492507,464563,172813
1784137628321142422,2026-07-16T00:47:08.321+07:00,837452828155323901,382947,492392,464514,172742
1784137628339324240,2026-07-16T00:47:08.339+07:00,837452828155323901,382940,492341,464512,172776
1784137628357506058,2026-07-16T00:47:08.357+07:00,837452828155323901,382992,492299,464421,172793
1784137628375687876,2026-07-16T00:47:08.375+07:00,837452828155323901,383009,492273,464398,172779
1784137628393869694,2026-07-16T00:47:08.393+07:00,837452828155323901,383065,492384,464413,172727
1784137628412051512,2026-07-16T00:47:08.412+07:00,837452828155323901,383080,492293,464445,172723
1784137628430233330,2026-07-16T00:47:08.430+07:00,837452828155323901,383193,492379,464562,172740
1784137628448415148,2026-07-16T00:47:08.448+07:00,837452828155323901,383173,492398,464537,172723
1784137628466596966,2026-07-16T00:47:08.466+07:00,837452828155323901,383263,492425,464591,172730
1784137628484778784,2026-07-16T00:47:08.484+07:00,837452828155323901,383314,492419,464633,172737
1784137628502960602,2026-07-16T00:47:08.502+07:00,837452828155323901,383415,492476,464678,172721
1784137628521142420,2026-07-16T00:47:08.521+07:00,837452828155323901,383382,492533,464725,172757
1784137628539324238,2026-07-16T00:47:08.539+07:00,837452828155323901,383477,492601,464755,172752
1784137628557506056,2026-07-16T00:47:08.557+07:00,837452828155323901,383597,492598,464859,172723
1784137628575687874,2026-07-16T00:47:08.575+07:00,837452828155323901,383616,492667,464924,172777
1784137628593869692,2026-07-16T00:47:08.593+07:00,837452828155323901,383688,492666,465004,172696
1784137628612051510,2026-07-16T00:47:08.612+07:00,837452828155323901,383761,492739,465099,172755
1784137628630233328,2026-07-16T00:47:08.630+07:00,837452828155323901,383844,492774,465138,172800
1784137628648415146,2026-07-16T00:47:08.648+07:00,837452828155323901,383823,492804,465177,172737
1784137628666596964,2026-07-16T00:47:08.666+07:00,837452828155323901,383855,492835,465219,172810
1784137628684778782,2026-07-16T00:47:08.684+07:00,837452828155323901,383878,492865,465216,172771
1784137628702960600,2026-07-16T00:47:08.702+07:00,837452828155323901,383899,492937,465206,172752
1784137628721142418,2026-07-16T00:47:08.721+07:00,837452828155323901,383889,492884,465217,172740
1784137628739324236,2026-07-16T00:47:08.739+07:00,837452828155323901,383934,493015,465328,172782
1784137628757506054,2026-07-16T00:47:08.757+07:00,837452828155323901,383942,493031,465380,172721
1784137628775687872,2026-07-16T00:47:08.775+07:00,837452828155323901,383907,492998,465365,172733
1784137628793869690,2026-07-16T00:47:08.793+07:00,837452828155323901,383897,492967,465325,172702
1784137628812051508,2026-07-16T00:47:08.812+07:00,837452828155323901,383809,493068,465373,172719
1784137628830233326,2026-07-16T00:47:08.830+07:00,837452828155323901,383898,493148,465437,172729
1784137628848415144,2026-07-16T00:47:08.848+07:00,837452828155323901,383813,493046,465323,172728
1784137628866596962,2026-07-16T00:47:08.866+07:00,837452828155323901,383863,493062,465375,172728
1784137628884778780,2026-07-16T00:47:08.884+07:00,837452828155323901,383838,493079,465405,172755
1784137628902960598,2026-07-16T00:47:08.902+07:00,837452828155323901,383869,493042,465320,172769
1784137628921142416,2026-07-16T00:47:08.921+07:00,837452828155323901,383816,493015,465282,172721
1784137628939324234,2026-07-16T00:47:08.939+07:00,837452828974228652,383789,492952,465193,172661
1784137628957506052,2026-07-16T00:47:08.957+07:00,837452828974228652,383764,492988,465206,172776
1784137628975687870,2026-07-16T00:47:08.975+07:00,837452828974228652,383643,492891,465077,172701
1784137628993869688,2026-07-16T00:47:08.993+07:00,837452828974228652,383555,492740,464978,172726
1784137629012051506,2026-07-16T00:47:09.012+07:00,837452828974228652,383476,492596,464802,172765
1784137629030233324,2026-07-16T00:47:09.030+07:00,837452828974228652,383403,492440,464746,172751
1784137629048415142,2026-07-16T00:47:09.048+07:00,837452828974228652,383302,492255,464578,172761
1784137629066596960,2026-07-16T00:47:09.066+07:00,837452828974228652,383173,492074,464340,172764
1784137629084778778,2026-07-16T00:47:09.084+07:00,837452828974228652,383042,491960,464245,172734
1784137629102960596,2026-07-16T00:47:09.102+07:00,837452828974228652,382933,491863,464112,172760
1784137629121142414,2026-07-16T00:47:09.121+07:00,837452828974228652,382875,491725,463971,172742
1784137629139324232,2026-07-16T00:47:09.139+07:00,837452828974228652,382741,491581,463817,172704
1784137629157506050,2026-07-16T00:47:09.157+07:00,837452828974228652,382751,491489,463725,172723
1784137629175687868,2026-07-16T00:47:09.175+07:00,837452828974228652,382596,491359,463592,172735
1784137629193869686,2026-07-16T00:47:09.193+07:00,837452828974228652,382590,491287,463471,172788
1784137629212051504,2026-07-16T00:47:09.212+07:00,837452828974228652,382510,491217,463405,172788
1784137629230233322,2026-07-16T00:47:09.230+07:00,837452828974228652,382479,491149,463275,172762
1784137629248415140,2026-07-16T00:47:09.248+07:00,837452828974228652,382368,491002,463227,172729
1784137629266596958,2026-07-16T00:47:09.266+07:00,837452828974228652,382356,490980,463188,172814
1784137629284778776,2026-07-16T00:47:09.284+07:00,837452828974228652,382296,490864,463074,172804
1784137629302960594,2026-07-16T00:47:09.302+07:00,837452828974228652,382279,490799,462978,172844
1784137629321142412,2026-07-16T00:47:09.321+07:00,837452828974228652,382204,490789,462962,172762
1784137629339324230,2026-07-16T00:47:09.339+07:00,837452828974228652,382221,490704,462852,172758
1784137629357506048,2026-07-16T00:47:09.357+07:00,837452828974228652,382220,490706,462860,172755
1784137629375687866,2026-07-16T00:47:09.375+07:00,837452828974228652,382180,490668,462852,172768
1784137629393869684,2026-07-16T00:47:09.393+07:00,837452828974228652,382175,490640,462871,172745
1784137629412051502,2026-07-16T00:47:09.412+07:00,837452828974228652,382137,490671,462814,172753
1784137629430233320,2026-07-16T00:47:09.430+07:00,837452828974228652,382133,490646,462820,172738
1784137629448415138,2026-07-16T00:47:09.448+07:00,837452828974228652,382080,490617,462762,172794
1784137629466596956,2026-07-16T00:47:09.466+07:00,837452828974228652,382035,490578,462712,172704
1784137629484778774,2026-07-16T00:47:09.484+07:00,837452828974228652,382090,490629,462801,172791
1784137629502960592,2026-07-16T00:47:09.502+07:00,837452828974228652,382063,490655,462749,172713
1784137629521142410,2026-07-16T00:47:09.521+07:00,837452828974228652,382127,490595,462725,172765
1784137629539324228,2026-07-16T00:47:09.539+07:00,837452828974228652,382053,490606,462736,172724
1784137629557506046,2026-07-16T00:47:09.557+07:00,837452828974228652,382108,490635,462707,172759
1784137629575687864,2026-07-16T00:47:09.575+07:00,837452828974228652,382033,490601,462688,172753
1784137629593869682,2026-07-16T00:47:09.593+07:00,837452828974228652,382024,490658,462696,172784
1784137629612051500,2026-07-16T00:47:09.612+07:00,837452828974228652,382008,490650,462687,172751
1784137629630233318,2026-07-16T00:47:09.630+07:00,837452828974228652,382035,490647,462708,172769
1784137629648415136,2026-07-16T00:47:09.648+07:00,837452828974228652,382064,490685,462705,172747
1784137629666596954,2026-07-16T00:47:09.666+07:00,837452828974228652,382053,490649,462708,172710
1784137629684778772,2026-07-16T00:47:09.684+07:00,837452828974228652,382084,490695,462773,172775
1784137629702960590,2026-07-16T00:47:09.702+07:00,837452828974228652,382186,490773,462759,172821
1784137629721142408,2026-07-16T00:47:09.721+07:00,837452828974228652,382121,490684,462693,172754
1784137629739324226,2026-07-16T00:47:09.739+07:00,837452828974228652,382071,490707,462689,172801
1784137629757506044,2026-07-16T00:47:09.757+07:00,837452829720372389,382099,490656,462632,172780
1784137629775687862,2026-07-16T00:47:09.775+07:00,837452829720372389,381988,490553,462533,172774
1784137629793869680,2026-07-16T00:47:09.793+07:00,837452829720372389,381885,490480,462418,172751
1784137629812051498,2026-07-16T00:47:09.812+07:00,837452829720372389,381839,490293,462259,172768
1784137629830233316,2026-07-16T00:47:09.830+07:00,837452829720372389,381665,490105,462086,172710
1784137629848415134,2026-07-16T00:47:09.848+07:00,837452829720372389,381610,489963,461918,172786
1784137629866596952,2026-07-16T00:47:09.866+07:00,837452829720372389,381495,489732,461688,172741
1784137629884778770,2026-07-16T00:47:09.884+07:00,837452829720372389,381428,489680,461597,172771
1784137629902960588,2026-07-16T00:47:09.902+07:00,837452829720372389,381276,489446,461498,172746
1784137629921142406,2026-07-16T00:47:09.921+07:00,837452829720372389,381236,489354,461342,172806
1784137629939324224,2026-07-16T00:47:09.939+07:00,837452829720372389,381049,489160,461167,172781
1784137629957506042,2026-07-16T00:47:09.957+07:00,837452829720372389,380948,489016,461064,172784
1784137629975687860,2026-07-16T00:47:09.975+07:00,837452829720372389,380894,488905,460988,172799
1784137629993869678,2026-07-16T00:47:09.993+07:00,837452829720372389,380864,488814,460882,172751
1784137630012051496,2026-07-16T00:47:10.012+07:00,837452829720372389,380822,488770,460768,172789
1784137630030233314,2026-07-16T00:47:10.030+07:00,837452829720372389,380669,488588,460681,172764
1784137630048415132,2026-07-16T00:47:10.048+07:00,837452829720372389,380686,488603,460623,172690
1784137630066596950,2026-07-16T00:47:10.066+07:00,837452829720372389,380726,488559,460617,172826
1784137630084778768,2026-07-16T00:47:10.084+07:00,837452829720372389,380643,488455,460463,172785
1784137630102960586,2026-07-16T00:47:10.102+07:00,837452829720372389,380642,488369,460461,172812
1784137630121142404,2026-07-16T00:47:10.121+07:00,837452829720372389,380550,488314,460324,172785
1784137630139324222,2026-07-16T00:47:10.139+07:00,837452829720372389,380491,488257,460247,172763
1784137630157506040,2026-07-16T00:47:10.157+07:00,837452829720372389,380500,488223,460235,172680
1784137630175687858,2026-07-16T00:47:10.175+07:00,837452829720372389,380477,488230,460172,172813
1784137630193869676,2026-07-16T00:47:10.193+07:00,837452829720372389,380487,488176,460134,172780
1784137630212051494,2026-07-16T00:47:10.212+07:00,837452829720372389,380516,488182,460115,172770
1784137630230233312,2026-07-16T00:47:10.230+07:00,837452829720372389,380514,488153,460119,172766
1784137630248415130,2026-07-16T00:47:10.248+07:00,837452829720372389,380489,488175,460131,172744
1784137630266596948,2026-07-16T00:47:10.266+07:00,837452829720372389,380512,488215,460185,172733
1784137630284778766,2026-07-16T00:47:10.284+07:00,837452829720372389,380565,488212,460180,172734
1784137630302960584,2026-07-16T00:47:10.302+07:00,837452829720372389,380565,488186,460130,172735
1784137630321142402,2026-07-16T00:47:10.321+07:00,837452829720372389,380584,488219,460180,172774
1784137630339324220,2026-07-16T00:47:10.339+07:00,837452829720372389,380546,488198,460130,172758
1784137630357506038,2026-07-16T00:47:10.357+07:00,837452829720372389,380606,488167,460169,172765
1784137630375687856,2026-07-16T00:47:10.375+07:00,837452829720372389,380623,488246,460164,172763
1784137630393869674,2026-07-16T00:47:10.393+07:00,837452829720372389,380640,488290,460184,172749
1784137630412051492,2026-07-16T00:47:10.412+07:00,837452829720372389,380647,488326,460192,172785
1784137630430233310,2026-07-16T00:47:10.430+07:00,837452829720372389,380673,488331,460254,172796
1784137630448415128,2026-07-16T00:47:10.448+07:00,837452829720372389,380669,488359,460229,172800
1784137630466596946,2026-07-16T00:47:10.466+07:00,837452829720372389,380740,488461,460254,172786
1784137630484778764,2026-07-16T00:47:10.484+07:00,837452829720372389,380768,488550,460267,172769
1784137630502960582,2026-07-16T00:47:10.502+07:00,837452830484652981,380773,488458,460385,172780
1784137630521142400,2026-07-16T00:47:10.521+07:00,837452830484652981,380819,488563,460438,172786
1784137630539324218,2026-07-16T00:47:10.539+07:00,837452830484652981,380858,488552,460388,172791
1784137630557506036,2026-07-16T00:47:10.557+07:00,837452830484652981,380855,488647,460440,172761
1784137630575687854,2026-07-16T00:47:10.575+07:00,837452830484652981,380906,488691,460461,172759
1784137630593869672,2026-07-16T00:47:10.593+07:00,837452830484652981,380986,488730,460544,172757
1784137630612051490,2026-07-16T00:47:10.612+07:00,837452830484652981,381008,488821,460591,172788
1784137630630233308,2026-07-16T00:47:10.630+07:00,837452830484652981,381002,488786,460560,172742
1784137630648415126,2026-07-16T00:47:10.648+07:00,837452830484652981,380963,488765,460495,172760
1784137630666596944,2026-07-16T00:47:10.666+07:00,837452830484652981,380905,488653,460395,172726
1784137630684778762,2026-07-16T00:47:10.684+07:00,837452830484652981,380821,488513,460283,172712
1784137630702960580,2026-07-16T00:47:10.702+07:00,837452830484652981,380724,488391,460143,172733
1784137630721142398,2026-07-16T00:47:10.721+07:00,837452830484652981,380634,488231,460000,172733
1784137630739324216,2026-07-16T00:47:10.739+07:00,837452830484652981,380632,488110,459957,172800
1784137630757506034,2026-07-16T00:47:10.757+07:00,837452830484652981,380514,488018,459845,172740
1784137630775687852,2026-07-16T00:47:10.775+07:00,837452830484652981,380438,487814,459726,172764
1784137630793869670,2026-07-16T00:47:10.793+07:00,837452830484652981,380383,487721,459586,172748
1784137630812051488,2026-07-16T00:47:10.812+07:00,837452830484652981,380299,487614,459542,172758
1784137630830233306,2026-07-16T00:47:10.830+07:00,837452830484652981,380255,487588,459427,172783
1784137630848415124,2026-07-16T00:47:10.848+07:00,837452830484652981,380209,487467,459349,172775
1784137630866596942,2026-07-16T00:47:10.866+07:00,837452830484652981,380176,487392,459267,172712
1784137630884778760,2026-07-16T00:47:10.884+07:00,837452830484652981,380172,487288,459198,172743
1784137630902960578,2026-07-16T00:47:10.902+07:00,837452830484652981,380186,487344,459235,172766
1784137630921142396,2026-07-16T00:47:10.921+07:00,837452830484652981,380111,487244,459199,172724
1784137630939324214,2026-07-16T00:47:10.939+07:00,837452830484652981,380179,487255,459228,172770
1784137630957506032,2026-07-16T00:47:10.957+07:00,837452830484652981,380077,487181,459090,172663
1784137630975687850,2026-07-16T00:47:10.975+07:00,837452830484652981,380056,487171,459061,172664
1784137630993869668,2026-07-16T00:47:10.993+07:00,837452830484652981,380152,487211,459100,172766
1784137631012051486,2026-07-16T00:47:11.012+07:00,837452830484652981,380126,487248,459079,172726
1784137631030233304,2026-07-16T00:47:11.030+07:00,837452830484652981,380152,487212,459111,172690
1784137631048415122,2026-07-16T00:47:11.048+07:00,837452830484652981,380132,487161,459103,172713
1784137631066596940,2026-07-16T00:47:11.066+07:00,837452830484652981,380158,487284,459140,172724
1784137631084778758,2026-07-16T00:47:11.084+07:00,837452830484652981,380238,487284,459177,172751
1784137631102960576,2026-07-16T00:47:11.102+07:00,837452830484652981,380208,487318,459266,172721
1784137631121142394,2026-07-16T00:47:11.121+07:00,837452830484652981,380291,487381,459210,172729
1784137631139324212,2026-07-16T00:47:11.139+07:00,837452830484652981,380338,487401,459296,172770
1784137631157506030,2026-07-16T00:47:11.157+07:00,837452830484652981,380421,487438,459300,172805
1784137631175687848,2026-07-16T00:47:11.175+07:00,837452830484652981,380519,487544,459466,172829
1784137631193869666,2026-07-16T00:47:11.193+07:00,837452830484652981,380486,487558,459470,172777
1784137631212051484,2026-07-16T00:47:11.212+07:00,837452830484652981,380494,487666,459576,172831
1784137631230233302,2026-07-16T00:47:11.230+07:00,837452830484652981,380535,487653,459587,172819
1784137631248415120,2026-07-16T00:47:11.248+07:00,837452830484652981,380545,487811,459643,172803
1784137631266596938,2026-07-16T00:47:11.266+07:00,837452831376303486,380661,487877,459694,172810
1784137631284778756,2026-07-16T00:47:11.284+07:00,837452831376303486,380687,487934,459760,172780
1784137631302960574,2026-07-16T00:47:11.302+07:00,837452831376303486,380724,487996,459840,172777
1784137631321142392,2026-07-16T00:47:11.321+07:00,837452831376303486,380754,488014,459834,172777
1784137631339324210,2026-07-16T00:47:11.339+07:00,837452831376303486,380815,488110,459890,172787
1784137631357506028,2026-07-16T00:47:11.357+07:00,837452831376303486,380843,488203,459960,172755
1784137631375687846,2026-07-16T00:47:11.375+07:00,837452831376303486,380930,488298,460058,172863
1784137631393869664,2026-07-16T00:47:11.393+07:00,837452831376303486,380944,488289,460101,172781
1784137631412051482,2026-07-16T00:47:11.412+07:00,837452831376303486,380991,488374,460217,172767
1784137631430233300,2026-07-16T00:47:11.430+07:00,837452831376303486,381020,488472,460232,172796
1784137631448415118,2026-07-16T00:47:11.448+07:00,837452831376303486,381025,488494,460272,172816
1784137631466596936,2026-07-16T00:47:11.466+07:00,837452831376303486,381019,488439,460240,172755
1784137631484778754,2026-07-16T00:47:11.484+07:00,837452831376303486,380972,488422,460158,172710
1784137631502960572,2026-07-16T00:47:11.502+07:00,837452831376303486,380962,488334,460164,172740
1784137631521142390,2026-07-16T00:47:11.521+07:00,837452831376303486,380960,488308,460108,172721
1784137631539324208,2026-07-16T00:47:11.539+07:00,837452831376303486,380939,488204,460043,172743
1784137631557506026,2026-07-16T00:47:11.557+07:00,837452831376303486,380897,488234,460032,172743
1784137631575687844,2026-07-16T00:47:11.575+07:00,837452831376303486,380866,488113,459949,172748
1784137631593869662,2026-07-16T00:47:11.593+07:00,837452831376303486,380788,488029,459895,172731
1784137631612051480,2026-07-16T00:47:11.612+07:00,837452831376303486,380775,487928,459820,172729
1784137631630233298,2026-07-16T00:47:11.630+07:00,837452831376303486,380754,487987,459835,172736
1784137631648415116,2026-07-16T00:47:11.648+07:00,837452831376303486,380720,487895,459819,172751
1784137631666596934,2026-07-16T00:47:11.666+07:00,837452831376303486,380716,487987,459827,172759
1784137631684778752,2026-07-16T00:47:11.684+07:00,837452831376303486,380726,487870,459717,172730
1784137631702960570,2026-07-16T00:47:11.702+07:00,837452831376303486,380768,487921,459790,172732
1784137631721142388,2026-07-16T00:47:11.721+07:00,837452831376303486,380769,487811,459772,172762
1784137631739324206,2026-07-16T00:47:11.739+07:00,837452831376303486,380802,487931,459784,172717
1784137631757506024,2026-07-16T00:47:11.757+07:00,837452831376303486,380773,487909,459838,172779
1784137631775687842,2026-07-16T00:47:11.775+07:00,837452831376303486,380826,487944,459848,172786
1784137631793869660,2026-07-16T00:47:11.793+07:00,837452831376303486,380880,488004,459883,172724
1784137631812051478,2026-07-16T00:47:11.812+07:00,837452831376303486,380820,488001,459907,172724
1784137631830233296,2026-07-16T00:47:11.830+07:00,837452831376303486,380818,488059,459892,172720
1784137631848415114,2026-07-16T00:47:11.848+07:00,837452831376303486,380855,488046,459855,172789
1784137631866596932,2026-07-16T00:47:11.866+07:00,837452831376303486,380846,488092,459936,172760
1784137631884778750,2026-07-16T00:47:11.884+07:00,837452831376303486,380906,488127,459966,172767
1784137631902960568,2026-07-16T00:47:11.902+07:00,837452831376303486,380956,488210,460008,172783
1784137631921142386,2026-07-16T00:47:11.921+07:00,837452831376303486,380968,488251,460036,172704
1784137631939324204,2026-07-16T00:47:11.939+07:00,837452831376303486,380989,488274,460063,172769
1784137631957506022,2026-07-16T00:47:11.957+07:00,837452831376303486,380980,488301,460135,172745
1784137631975687840,2026-07-16T00:47:11.975+07:00,837452831376303486,381057,488411,460214,172838
1784137631993869658,2026-07-16T00:47:11.993+07:00,837452831376303486,381109,488443,460293,172743
1784137632012051476,2026-07-16T00:47:12.012+07:00,837452831376303486,381148,488484,460326,172783
1784137632030233294,2026-07-16T00:47:12.030+07:00,837452831376303486,381201,488537,460375,172791
1784137632048415112,2026-07-16T00:47:12.048+07:00,837452831376303486,381256,488691,460486,172775
1784137632066596930,2026-07-16T00:47:12.066+07:00,837452831376303486,381270,488785,460539,172724
1784137632084778748,2026-07-16T00:47:12.084+07:00,837452831376303486,381310,488855,460589,172717
1784137632102960566,2026-07-16T00:47:12.102+07:00,837452831376303486,381391,488992,460636,172748
1784137632121142384,2026-07-16T00:47:12.121+07:00,837452831376303486,381415,488962,460673,172712
1784137632139324202,2026-07-16T00:47:12.139+07:00,837452831376303486,381488,489071,460791,172762
1784137632157506020,2026-07-16T00:47:12.157+07:00,837452832195170089,381556,489097,460828,172711
1784137632175687838,2026-07-16T00:47:12.175+07:00,837452832195170089,381638,489241,460938,172763
1784137632193869656,2026-07-16T00:47:12.193+07:00,837452832195170089,381692,489293,461022,172777
1784137632212051474,2026-07-16T00:47:12.212+07:00,837452832195170089,381700,489398,461094,172766
1784137632230233292,2026-07-16T00:47:12.230+07:00,837452832195170089,381763,489477,461141,172738
1784137632248415110,2026-07-16T00:47:12.248+07:00,837452832195170089,381773,489509,461176,172827
1784137632266596928,2026-07-16T00:47:12.266+07:00,837452832195170089,381736,489516,461144,172732
1784137632284778746,2026-07-16T00:47:12.284+07:00,837452832195170089,381832,489445,461127,172752
1784137632302960564,2026-07-16T00:47:12.302+07:00,837452832195170089,381793,489443,461139,172759
1784137632321142382,2026-07-16T00:47:12.321+07:00,837452832195170089,381701,489369,461059,172776
1784137632339324200,2026-07-16T00:47:12.339+07:00,837452832195170089,381672,489290,460999,172740
1784137632357506018,2026-07-16T00:47:12.357+07:00,837452832195170089,381727,489261,461072,172826
1784137632375687836,2026-07-16T00:47:12.375+07:00,837452832195170089,381683,489219,461022,172781
1784137632393869654,2026-07-16T00:47:12.393+07:00,837452832195170089,381588,489159,460970,172707
1784137632412051472,2026-07-16T00:47:12.412+07:00,837452832195170089,381537,489120,460946,172684
1784137632430233290,2026-07-16T00:47:12.430+07:00,837452832195170089,381596,489149,460999,172736
1784137632448415108,2026-07-16T00:47:12.448+07:00,837452832195170089,381556,489082,460921,172656
1784137632466596926,2026-07-16T00:47:12.466+07:00,837452832195170089,381648,489143,461036,172735
1784137632484778744,2026-07-16T00:47:12.484+07:00,837452832195170089,381621,489113,461014,172713
1784137632502960562,2026-07-16T00:47:12.502+07:00,837452832195170089,381633,489223,461032,172744
1784137632521142380,2026-07-16T00:47:12.521+07:00,837452832195170089,381678,489192,461002,172698
1784137632539324198,2026-07-16T00:47:12.539+07:00,837452832195170089,381680,489239,461048,172732
1784137632557506016,2026-07-16T00:47:12.557+07:00,837452832195170089,381744,489253,461042,172708
1784137632575687834,2026-07-16T00:47:12.575+07:00,837452832195170089,381712,489224,461080,172693
1784137632593869652,2026-07-16T00:47:12.593+07:00,837452832195170089,381666,489263,460991,172706
1784137632612051470,2026-07-16T00:47:12.612+07:00,837452832195170089,381702,489277,461036,172703
1784137632630233288,2026-07-16T00:47:12.630+07:00,837452832195170089,381760,489329,461108,172753
1784137632648415106,2026-07-16T00:47:12.648+07:00,837452832195170089,381765,489379,461143,172716
1784137632666596924,2026-07-16T00:47:12.666+07:00,837452832195170089,381768,489378,461176,172753
1784137632684778742,2026-07-16T00:47:12.684+07:00,837452832195170089,381742,489389,461163,172685
1784137632702960560,2026-07-16T00:47:12.702+07:00,837452832195170089,381763,489461,461201,172725
1784137632721142378,2026-07-16T00:47:12.721+07:00,837452832195170089,381829,489506,461284,172735
1784137632739324196,2026-07-16T00:47:12.739+07:00,837452832195170089,381851,489540,461285,172721
1784137632757506014,2026-07-16T00:47:12.757+07:00,837452832195170089,381897,489608,461337,172693
1784137632775687832,2026-07-16T00:47:12.775+07:00,837452832195170089,381791,489608,461383,172695
1784137632793869650,2026-07-16T00:47:12.793+07:00,837452832195170089,381930,489687,461444,172706
1784137632812051468,2026-07-16T00:47:12.812+07:00,837452832195170089,381972,489785,461452,172679
1784137632830233286,2026-07-16T00:47:12.830+07:00,837452832195170089,381972,489858,461478,172713
1784137632848415104,2026-07-16T00:47:12.848+07:00,837452832195170089,382040,489872,461527,172762
1784137632866596922,2026-07-16T00:47:12.866+07:00,837452832195170089,382066,489962,461598,172728
1784137632884778740,2026-07-16T00:47:12.884+07:00,837452832195170089,382117,490001,461637,172760
1784137632902960558,2026-07-16T00:47:12.902+07:00,837452832195170089,382138,490070,461671,172757
1784137632921142376,2026-07-16T00:47:12.921+07:00,837452832195170089,382172,490156,461740,172772
1784137632939324194,2026-07-16T00:47:12.939+07:00,837452832195170089,382264,490234,461835,172749
1784137632957506012,2026-07-16T00:47:12.957+07:00,837452832195170089,382280,490344,461877,172721
1784137632975687830,2026-07-16T00:47:12.975+07:00,837452832977643978,382334,490304,461858,172723
1784137632993869648,2026-07-16T00:47:12.993+07:00,837452832977643978,382391,490417,461933,172745
1784137633012051466,2026-07-16T00:47:13.012+07:00,837452832977643978,382446,490485,462023,172718
1784137633030233284,2026-07-16T00:47:13.030+07:00,837452832977643978,382460,490592,462076,172785
1784137633048415102,2026-07-16T00:47:13.048+07:00,837452832977643978,382553,490698,462160,172772
1784137633066596920,2026-07-16T00:47:13.066+07:00,837452832977643978,382491,490618,462072,172724
1784137633084778738,2026-07-16T00:47:13.084+07:00,837452832977643978,382519,490640,462124,172745
1784137633102960556,2026-07-16T00:47:13.102+07:00,837452832977643978,382443,490630,462095,172694
1784137633121142374,2026-07-16T00:47:13.121+07:00,837452832977643978,382502,490592,462112,172752
1784137633139324192,2026-07-16T00:47:13.139+07:00,837452832977643978,382439,490509,461981,172770
1784137633157506010,2026-07-16T00:47:13.157+07:00,837452832977643978,382380,490408,461933,172746
1784137633175687828,2026-07-16T00:47:13.175+07:00,837452832977643978,382385,490400,461883,172711
1784137633193869646,2026-07-16T00:47:13.193+07:00,837452832977643978,382371,490318,461828,172763
1784137633212051464,2026-07-16T00:47:13.212+07:00,837452832977643978,382299,490327,461783,172731
1784137633230233282,2026-07-16T00:47:13.230+07:00,837452832977643978,382315,490325,461757,172741
1784137633248415100,2026-07-16T00:47:13.248+07:00,837452832977643978,382282,490260,461696,172781
1784137633266596918,2026-07-16T00:47:13.266+07:00,837452832977643978,382234,490275,461721,172724
1784137633284778736,2026-07-16T00:47:13.284+07:00,837452832977643978,382230,490201,461691,172693
1784137633302960554,2026-07-16T00:47:13.302+07:00,837452832977643978,382178,490165,461718,172765
1784137633321142372,2026-07-16T00:47:13.321+07:00,837452832977643978,382226,490146,461691,172715
1784137633339324190,2026-07-16T00:47:13.339+07:00,837452832977643978,382260,490135,461767,172692
1784137633357506008,2026-07-16T00:47:13.357+07:00,837452832977643978,382223,490190,461706,172731
1784137633375687826,2026-07-16T00:47:13.375+07:00,837452832977643978,382145,490164,461667,172691
1784137633393869644,2026-07-16T00:47:13.393+07:00,837452832977643978,382140,490152,461656,172740
1784137633412051462,2026-07-16T00:47:13.412+07:00,837452832977643978,382178,490148,461677,172732
1784137633430233280,2026-07-16T00:47:13.430+07:00,837452832977643978,382272,490157,461651,172775
1784137633448415098,2026-07-16T00:47:13.448+07:00,837452832977643978,382178,490132,461598,172680
1784137633466596916,2026-07-16T00:47:13.466+07:00,837452832977643978,382219,490173,461656,172744
1784137633484778734,2026-07-16T00:47:13.484+07:00,837452832977643978,382231,490165,461606,172717
1784137633502960552,2026-07-16T00:47:13.502+07:00,837452832977643978,382259,490133,461587,172672
1784137633521142370,2026-07-16T00:47:13.521+07:00,837452832977643978,382273,490217,461616,172692
1784137633539324188,2026-07-16T00:47:13.539+07:00,837452832977643978,382257,490237,461705,172725
1784137633557506006,2026-07-16T00:47:13.557+07:00,837452832977643978,382283,490316,461757,172758
1784137633575687824,2026-07-16T00:47:13.575+07:00,837452832977643978,382283,490348,461730,172753
1784137633593869642,2026-07-16T00:47:13.593+07:00,837452832977643978,382402,490370,461816,172769
1784137633612051460,2026-07-16T00:47:13.612+07:00,837452832977643978,382426,490476,461883,172761
1784137633630233278,2026-07-16T00:47:13.630+07:00,837452832977643978,382468,490476,461902,172750
1784137633648415096,2026-07-16T00:47:13.648+07:00,837452832977643978,382521,490502,461906,172692
1784137633666596914,2026-07-16T00:47:13.666+07:00,837452832977643978,382549,490572,461982,172766
1784137633684778732,2026-07-16T00:47:13.684+07:00,837452832977643978,382578,490591,462128,172745
1784137633702960550,2026-07-16T00:47:13.702+07:00,837452832977643978,382614,490683,462163,172752
1784137633721142368,2026-07-16T00:47:13.721+07:00,837452832977643978,382660,490797,462168,172772
1784137633739324186,2026-07-16T00:47:13.739+07:00,837452832977643978,382717,490829,462266,172730
1784137633757506004,2026-07-16T00:47:13.757+07:00,837452833814749674,382722,490856,462316,172754
1784137633775687822,2026-07-16T00:47:13.775+07:00,837452833814749674,382757,490948,462386,172762
1784137633793869640,2026-07-16T00:47:13.793+07:00,837452833814749674,382772,491007,462401,172667
1784137633812051458,2026-07-16T00:47:13.812+07:00,837452833814749674,382833,491083,462430,172760
1784137633830233276,2026-07-16T00:47:13.830+07:00,837452833814749674,382816,491095,462455,172735
1784137633848415094,2026-07-16T00:47:13.848+07:00,837452833814749674,382763,491144,462518,172762
1784137633866596912,2026-07-16T00:47:13.866+07:00,837452833814749674,382743,491035,462430,172743
1784137633884778730,2026-07-16T00:47:13.884+07:00,837452833814749674,382792,491061,462413,172697
1784137633902960548,2026-07-16T00:47:13.902+07:00,837452833814749674,382714,491007,462390,172760
1784137633921142366,2026-07-16T00:47:13.921+07:00,837452833814749674,382647,490948,462362,172800
1784137633939324184,2026-07-16T00:47:13.939+07:00,837452833814749674,382589,490824,462201,172781
1784137633957506002,2026-07-16T00:47:13.957+07:00,837452833814749674,382560,490744,462164,172709
1784137633975687820,2026-07-16T00:47:13.975+07:00,837452833814749674,382477,490652,462092,172750
1784137633993869638,2026-07-16T00:47:13.993+07:00,837452833814749674,382463,490549,462037,172772
1784137634012051456,2026-07-16T00:47:14.012+07:00,837452833814749674,382368,490549,461991,172764
1784137634030233274,2026-07-16T00:47:14.030+07:00,837452833814749674,382349,490396,461872,172772
1784137634048415092,2026-07-16T00:47:14.048+07:00,837452833814749674,382290,490407,461767,172737
1784137634066596910,2026-07-16T00:47:14.066+07:00,837452833814749674,382205,490298,461709,172729
1784137634084778728,2026-07-16T00:47:14.084+07:00,837452833814749674,382235,490319,461691,172734
1784137634102960546,2026-07-16T00:47:14.102+07:00,837452833814749674,382234,490248,461664,172746
1784137634121142364,2026-07-16T00:47:14.121+07:00,837452833814749674,382215,490220,461608,172734
1784137634139324182,2026-07-16T00:47:14.139+07:00,837452833814749674,382218,490172,461600,172772
1784137634157506000,2026-07-16T00:47:14.157+07:00,837452833814749674,382204,490193,461675,172783
1784137634175687818,2026-07-16T00:47:14.175+07:00,837452833814749674,382196,490209,461660,172714
1784137634193869636,2026-07-16T00:47:14.193+07:00,837452833814749674,382162,490161,461581,172752
1784137634212051454,2026-07-16T00:47:14.212+07:00,837452833814749674,382195,490133,461583,172700
1784137634230233272,2026-07-16T00:47:14.230+07:00,837452833814749674,382140,490137,461565,172700
1784137634248415090,2026-07-16T00:47:14.248+07:00,837452833814749674,382131,490087,461526,172731
1784137634266596908,2026-07-16T00:47:14.266+07:00,837452833814749674,382137,490055,461540,172759
1784137634284778726,2026-07-16T00:47:14.284+07:00,837452833814749674,382093,490099,461524,172737
1784137634302960544,2026-07-16T00:47:14.302+07:00,837452833814749674,382161,490135,461530,172748
1784137634321142362,2026-07-16T00:47:14.321+07:00,837452833814749674,382139,490098,461490,172719
1784137634339324180,2026-07-16T00:47:14.339+07:00,837452833814749674,382153,490147,461549,172704
1784137634357505998,2026-07-16T00:47:14.357+07:00,837452833814749674,382197,490202,461562,172709
1784137634375687816,2026-07-16T00:47:14.375+07:00,837452833814749674,382195,490222,461603,172725
1784137634393869634,2026-07-16T00:47:14.393+07:00,837452833814749674,382232,490247,461618,172717
1784137634412051452,2026-07-16T00:47:14.412+07:00,837452833814749674,382300,490331,461677,172793
1784137634430233270,2026-07-16T00:47:14.430+07:00,837452833814749674,382298,490370,461754,172817
1784137634448415088,2026-07-16T00:47:14.448+07:00,837452833814749674,382277,490397,461728,172726
1784137634466596906,2026-07-16T00:47:14.466+07:00,837452833814749674,382354,490441,461777,172794
1784137634484778724,2026-07-16T00:47:14.484+07:00,837452833814749674,382303,490411,461787,172748
1784137634502960542,2026-07-16T00:47:14.502+07:00,837452833814749674,382401,490479,461833,172754
1784137634521142360,2026-07-16T00:47:14.521+07:00,837452833814749674,382404,490479,461835,172764
1784137634539324178,2026-07-16T00:47:14.539+07:00,837452833814749674,382422,490595,461864,172748
1784137634557505996,2026-07-16T00:47:14.557+07:00,837452833814749674,382438,490617,461895,172727
1784137634575687814,2026-07-16T00:47:14.575+07:00,837452833814749674,382414,490641,461950,172779
1784137634593869632,2026-07-16T00:47:14.593+07:00,837452834597241873,382409,490670,461935,172723
1784137634612051450,2026-07-16T00:47:14.612+07:00,837452834597241873,382498,490710,462014,172753
1784137634630233268,2026-07-16T00:47:14.630+07:00,837452834597241873,382491,490723,462082,172760
1784137634648415086,2026-07-16T00:47:14.648+07:00,837452834597241873,382513,490777,462024,172753
1784137634666596904,2026-07-16T00:47:14.666+07:00,837452834597241873,382513,490789,461997,172803
1784137634684778722,2026-07-16T00:47:14.684+07:00,837452834597241873,382487,490794,461968,172753
1784137634702960540,2026-07-16T00:47:14.702+07:00,837452834597241873,382395,490691,461850,172778
1784137634721142358,2026-07-16T00:47:14.721+07:00,837452834597241873,382309,490521,461753,172714
1784137634739324176,2026-07-16T00:47:14.739+07:00,837452834597241873,382274,490455,461686,172754
1784137634757505994,2026-07-16T00:47:14.757+07:00,837452834597241873,382204,490383,461613,172759
1784137634775687812,2026-07-16T00:47:14.775+07:00,837452834597241873,382122,490177,461516,172775
1784137634793869630,2026-07-16T00:47:14.793+07:00,837452834597241873,381996,490133,461363,172731
1784137634812051448,2026-07-16T00:47:14.812+07:00,837452834597241873,381971,490015,461324,172749
1784137634830233266,2026-07-16T00:47:14.830+07:00,837452834597241873,381834,489871,461242,172758
1784137634848415084,2026-07-16T00:47:14.848+07:00,837452834597241873,381769,489792,461146,172683
1784137634866596902,2026-07-16T00:47:14.866+07:00,837452834597241873,381769,489723,461053,172709
1784137634884778720,2026-07-16T00:47:14.884+07:00,837452834597241873,381598,489547,460815,172638
1784137634902960538,2026-07-16T00:47:14.902+07:00,837452834597241873,381529,489492,460756,172725
1784137634921142356,2026-07-16T00:47:14.921+07:00,837452834597241873,381491,489433,460719,172733
1784137634939324174,2026-07-16T00:47:14.939+07:00,837452834597241873,381394,489341,460678,172733
1784137634957505992,2026-07-16T00:47:14.957+07:00,837452834597241873,381382,489360,460656,172697
1784137634975687810,2026-07-16T00:47:14.975+07:00,837452834597241873,381339,489250,460492,172708
1784137634993869628,2026-07-16T00:47:14.993+07:00,837452834597241873,381305,489205,460395,172753
1784137635012051446,2026-07-16T00:47:15.012+07:00,837452834597241873,381252,489138,460327,172733
1784137635030233264,2026-07-16T00:47:15.030+07:00,837452834597241873,381084,489002,460170,172680
1784137635048415082,2026-07-16T00:47:15.048+07:00,837452834597241873,381140,488987,460196,172762
1784137635066596900,2026-07-16T00:47:15.066+07:00,837452834597241873,381133,488969,460162,172753
1784137635084778718,2026-07-16T00:47:15.084+07:00,837452834597241873,381100,488967,460114,172737
1784137635102960536,2026-07-16T00:47:15.102+07:00,837452834597241873,381131,488973,460132,172737
1784137635121142354,2026-07-16T00:47:15.121+07:00,837452834597241873,381151,488864,460112,172755
1784137635139324172,2026-07-16T00:47:15.139+07:00,837452834597241873,381193,488996,460214,172805
1784137635157505990,2026-07-16T00:47:15.157+07:00,837452834597241873,381206,488978,460198,172780
1784137635175687808,2026-07-16T00:47:15.175+07:00,837452834597241873,381182,488983,460200,172723
1784137635193869626,2026-07-16T00:47:15.193+07:00,837452834597241873,381123,489046,460240,172714
1784137635212051444,2026-07-16T00:47:15.212+07:00,837452834597241873,381097,489031,460209,172725
1784137635230233262,2026-07-16T00:47:15.230+07:00,837452834597241873,381181,489042,460202,172778
1784137635248415080,2026-07-16T00:47:15.248+07:00,837452834597241873,381188,489023,460186,172785
1784137635266596898,2026-07-16T00:47:15.266+07:00,837452834597241873,381227,489050,460166,172753
1784137635284778716,2026-07-16T00:47:15.284+07:00,837452834597241873,381165,488998,460207,172771
1784137635302960534,2026-07-16T00:47:15.302+07:00,837452834597241873,381217,489035,460213,172766
1784137635321142352,2026-07-16T00:47:15.321+07:00,837452834597241873,381144,489039,460167,172761
1784137635339324170,2026-07-16T00:47:15.339+07:00,837452834597241873,381199,489113,460218,172803
1784137635357505988,2026-07-16T00:47:15.357+07:00,837452834597241873,381189,489110,460178,172701
1784137635375687806,2026-07-16T00:47:15.375+07:00,837452835379776800,381136,489149,460202,172698
1784137635393869624,2026-07-16T00:47:15.393+07:00,837452835379776800,381171,489192,460243,172731
1784137635412051442,2026-07-16T00:47:15.412+07:00,837452835379776800,381196,489199,460235,172744
1784137635430233260,2026-07-16T00:47:15.430+07:00,837452835379776800,381196,489139,460292,172720
1784137635448415078,2026-07-16T00:47:15.448+07:00,837452835379776800,381164,489141,460248,172732
1784137635466596896,2026-07-16T00:47:15.466+07:00,837452835379776800,381113,489164,460254,172785
1784137635484778714,2026-07-16T00:47:15.484+07:00,837452835379776800,381134,489135,460143,172809
1784137635502960532,2026-07-16T00:47:15.502+07:00,837452835379776800,381073,489014,460048,172765
1784137635521142350,2026-07-16T00:47:15.521+07:00,837452835379776800,380978,488895,459975,172770
1784137635539324168,2026-07-16T00:47:15.539+07:00,837452835379776800,380832,488721,459772,172742
1784137635557505986,2026-07-16T00:47:15.557+07:00,837452835379776800,380769,488593,459667,172758
1784137635575687804,2026-07-16T00:47:15.575+07:00,837452835379776800,380643,488420,459564,172777
1784137635593869622,2026-07-16T00:47:15.593+07:00,837452835379776800,380564,488328,459485,172779
1784137635612051440,2026-07-16T00:47:15.612+07:00,837452835379776800,380438,488189,459305,172679
1784137635630233258,2026-07-16T00:47:15.630+07:00,837452835379776800,380410,488005,459163,172668
1784137635648415076,2026-07-16T00:47:15.648+07:00,837452835379776800,380327,487905,459089,172716
1784137635666596894,2026-07-16T00:47:15.666+07:00,837452835379776800,380292,487858,459022,172727
1784137635684778712,2026-07-16T00:47:15.684+07:00,837452835379776800,380262,487770,458917,172844
1784137635702960530,2026-07-16T00:47:15.702+07:00,837452835379776800,380174,487676,458782,172774
1784137635721142348,2026-07-16T00:47:15.721+07:00,837452835379776800,380139,487627,458765,172746
1784137635739324166,2026-07-16T00:47:15.739+07:00,837452835379776800,379993,487574,458757,172750
1784137635757505984,2026-07-16T00:47:15.757+07:00,837452835379776800,379976,487467,458652,172767
1784137635775687802,2026-07-16T00:47:15.775+07:00,837452835379776800,379931,487354,458562,172744
1784137635793869620,2026-07-16T00:47:15.793+07:00,837452835379776800,379886,487308,458437,172706
1784137635812051438,2026-07-16T00:47:15.812+07:00,837452835379776800,379815,487213,458398,172704
1784137635830233256,2026-07-16T00:47:15.830+07:00,837452835379776800,379766,487193,458346,172743
1784137635848415074,2026-07-16T00:47:15.848+07:00,837452835379776800,379723,487094,458266,172784
1784137635866596892,2026-07-16T00:47:15.866+07:00,837452835379776800,379667,487059,458235,172763
1784137635884778710,2026-07-16T00:47:15.884+07:00,837452835379776800,379694,487046,458171,172731
1784137635902960528,2026-07-16T00:47:15.902+07:00,837452835379776800,379609,487001,458103,172777
1784137635921142346,2026-07-16T00:47:15.921+07:00,837452835379776800,379595,486932,458087,172731
1784137635939324164,2026-07-16T00:47:15.939+07:00,837452835379776800,379529,486927,458060,172710
1784137635957505982,2026-07-16T00:47:15.957+07:00,837452835379776800,379500,486936,458081,172780
1784137635975687800,2026-07-16T00:47:15.975+07:00,837452835379776800,379509,486901,458022,172774
1784137635993869618,2026-07-16T00:47:15.993+07:00,837452835379776800,379489,486872,458004,172724
1784137636012051436,2026-07-16T00:47:16.012+07:00,837452835379776800,379508,486851,458022,172726
1784137636030233254,2026-07-16T00:47:16.030+07:00,837452835379776800,379519,486867,458021,172753
1784137636048415072,2026-07-16T00:47:16.048+07:00,837452835379776800,379494,486866,458034,172775
1784137636066596890,2026-07-16T00:47:16.066+07:00,837452835379776800,379535,486865,458056,172832
1784137636084778708,2026-07-16T00:47:16.084+07:00,837452835379776800,379478,486885,458057,172767
1784137636102960526,2026-07-16T00:47:16.102+07:00,837452835379776800,379479,486840,458019,172727
1784137636121142344,2026-07-16T00:47:16.121+07:00,837452835379776800,379497,486899,458054,172770
1784137636139324162,2026-07-16T00:47:16.139+07:00,837452835379776800,379416,486863,458018,172776
1784137636157505980,2026-07-16T00:47:16.157+07:00,837452836216937422,379452,486804,457986,172832
1784137636175687798,2026-07-16T00:47:16.175+07:00,837452836216937422,379454,486803,457925,172788
1784137636193869616,2026-07-16T00:47:16.193+07:00,837452836216937422,379348,486787,457907,172788
1784137636212051434,2026-07-16T00:47:16.212+07:00,837452836216937422,379361,486834,457900,172774
1784137636230233252,2026-07-16T00:47:16.230+07:00,837452836216937422,379401,486882,457946,172774
1784137636248415070,2026-07-16T00:47:16.248+07:00,837452836216937422,379375,486891,457977,172778
1784137636266596888,2026-07-16T00:47:16.266+07:00,837452836216937422,379405,486867,457993,172759
1784137636284778706,2026-07-16T00:47:16.284+07:00,837452836216937422,379381,486763,457949,172764
1784137636302960524,2026-07-16T00:47:16.302+07:00,837452836216937422,379310,486690,457883,172775
1784137636321142342,2026-07-16T00:47:16.321+07:00,837452836216937422,379306,486684,457790,172800
1784137636339324160,2026-07-16T00:47:16.339+07:00,837452836216937422,379210,486489,457673,172767
1784137636357505978,2026-07-16T00:47:16.357+07:00,837452836216937422,379089,486298,457563,172709
1784137636375687796,2026-07-16T00:47:16.375+07:00,837452836216937422,378968,486150,457362,172718
1784137636393869614,2026-07-16T00:47:16.393+07:00,837452836216937422,378928,486004,457251,172800
1784137636412051432,2026-07-16T00:47:16.412+07:00,837452836216937422,378828,485905,457140,172781
1784137636430233250,2026-07-16T00:47:16.430+07:00,837452836216937422,378653,485668,456905,172718
1784137636448415068,2026-07-16T00:47:16.448+07:00,837452836216937422,378552,485554,456866,172766
1784137636466596886,2026-07-16T00:47:16.466+07:00,837452836216937422,378519,485467,456771,172734
1784137636484778704,2026-07-16T00:47:16.484+07:00,837452836216937422,378480,485300,456675,172803
1784137636502960522,2026-07-16T00:47:16.502+07:00,837452836216937422,378320,485268,456570,172762
1784137636521142340,2026-07-16T00:47:16.521+07:00,837452836216937422,378288,485183,456539,172759
1784137636539324158,2026-07-16T00:47:16.539+07:00,837452836216937422,378276,485157,456491,172795
1784137636557505976,2026-07-16T00:47:16.557+07:00,837452836216937422,378261,485109,456471,172791
1784137636575687794,2026-07-16T00:47:16.575+07:00,837452836216937422,378209,485025,456444,172795
1784137636593869612,2026-07-16T00:47:16.593+07:00,837452836216937422,378184,484972,456345,172783
1784137636612051430,2026-07-16T00:47:16.612+07:00,837452836216937422,378044,484862,456255,172728
1784137636630233248,2026-07-16T00:47:16.630+07:00,837452836216937422,378110,484822,456237,172812
1784137636648415066,2026-07-16T00:47:16.648+07:00,837452836216937422,378048,484851,456225,172783
1784137636666596884,2026-07-16T00:47:16.666+07:00,837452836216937422,377995,484733,456142,172697
1784137636684778702,2026-07-16T00:47:16.684+07:00,837452836216937422,378002,484718,456125,172777
1784137636702960520,2026-07-16T00:47:16.702+07:00,837452836216937422,377980,484695,456131,172770
1784137636721142338,2026-07-16T00:47:16.721+07:00,837452836216937422,377985,484672,456093,172783
1784137636739324156,2026-07-16T00:47:16.739+07:00,837452836216937422,377910,484631,456065,172793
1784137636757505974,2026-07-16T00:47:16.757+07:00,837452836216937422,377825,484605,455955,172736
1784137636775687792,2026-07-16T00:47:16.775+07:00,837452836216937422,377740,484478,455920,172713
1784137636793869610,2026-07-16T00:47:16.793+07:00,837452836216937422,377751,484496,455876,172744
1784137636812051428,2026-07-16T00:47:16.812+07:00,837452836216937422,377798,484532,455911,172738
1784137636830233246,2026-07-16T00:47:16.830+07:00,837452836216937422,377782,484544,455888,172729
1784137636848415064,2026-07-16T00:47:16.848+07:00,837452836216937422,377797,484533,455939,172726
1784137636866596882,2026-07-16T00:47:16.866+07:00,837452836216937422,377784,484635,456000,172734
1784137636884778700,2026-07-16T00:47:16.884+07:00,837452836216937422,377797,484599,456002,172724
1784137636902960518,2026-07-16T00:47:16.902+07:00,837452836216937422,377767,484697,456108,172735
1784137636921142336,2026-07-16T00:47:16.921+07:00,837452836216937422,377704,484636,456030,172731
1784137636939324154,2026-07-16T00:47:16.939+07:00,837452836216937422,377709,484692,456025,172737
1784137636957505972,2026-07-16T00:47:16.957+07:00,837452836216937422,377738,484692,456051,172748
1784137636975687790,2026-07-16T00:47:16.975+07:00,837452836216937422,377674,484671,456053,172802
1784137636993869608,2026-07-16T00:47:16.993+07:00,837452837054125510,377639,484616,456009,172762
1784137637012051426,2026-07-16T00:47:17.012+07:00,837452837054125510,377621,484567,456022,172750
1784137637030233244,2026-07-16T00:47:17.030+07:00,837452837054125510,377650,484572,456032,172724
1784137637048415062,2026-07-16T00:47:17.048+07:00,837452837054125510,377530,484517,455951,172696
1784137637066596880,2026-07-16T00:47:17.066+07:00,837452837054125510,377573,484590,456016,172735
1784137637084778698,2026-07-16T00:47:17.084+07:00,837452837054125510,377509,484542,455957,172775
1784137637102960516,2026-07-16T00:47:17.102+07:00,837452837054125510,377541,484554,455967,172784
1784137637121142334,2026-07-16T00:47:17.121+07:00,837452837054125510,377512,484524,455919,172767
1784137637139324152,2026-07-16T00:47:17.139+07:00,837452837054125510,377483,484462,455856,172730
1784137637157505970,2026-07-16T00:47:17.157+07:00,837452837054125510,377435,484345,455825,172728
1784137637175687788,2026-07-16T00:47:17.175+07:00,837452837054125510,377343,484211,455660,172770
1784137637193869606,2026-07-16T00:47:17.193+07:00,837452837054125510,377170,484063,455531,172732
1784137637212051424,2026-07-16T00:47:17.212+07:00,837452837054125510,377116,483913,455392,172733
1784137637230233242,2026-07-16T00:47:17.230+07:00,837452837054125510,377056,483732,455250,172791
1784137637248415060,2026-07-16T00:47:17.248+07:00,837452837054125510,376972,483604,455112,172725
1784137637266596878,2026-07-16T00:47:17.266+07:00,837452837054125510,376821,483494,454986,172745
1784137637284778696,2026-07-16T00:47:17.284+07:00,837452837054125510,376661,483349,454871,172704
1784137637302960514,2026-07-16T00:47:17.302+07:00,837452837054125510,376695,483332,454858,172763
1784137637321142332,2026-07-16T00:47:17.321+07:00,837452837054125510,376676,483270,454809,172810
1784137637339324150,2026-07-16T00:47:17.339+07:00,837452837054125510,376616,483198,454730,172746
1784137637357505968,2026-07-16T00:47:17.357+07:00,837452837054125510,376598,483139,454718,172753
1784137637375687786,2026-07-16T00:47:17.375+07:00,837452837054125510,376610,483128,454745,172810
1784137637393869604,2026-07-16T00:47:17.393+07:00,837452837054125510,376603,483092,454720,172742
1784137637412051422,2026-07-16T00:47:17.412+07:00,837452837054125510,376558,483066,454735,172743
1784137637430233240,2026-07-16T00:47:17.430+07:00,837452837054125510,376538,483114,454682,172782
1784137637448415058,2026-07-16T00:47:17.448+07:00,837452837054125510,376513,483063,454631,172776
1784137637466596876,2026-07-16T00:47:17.466+07:00,837452837054125510,376459,482992,454649,172776
1784137637484778694,2026-07-16T00:47:17.484+07:00,837452837054125510,376453,482934,454596,172771
1784137637502960512,2026-07-16T00:47:17.502+07:00,837452837054125510,376438,482934,454552,172761
1784137637521142330,2026-07-16T00:47:17.521+07:00,837452837054125510,376385,482925,454481,172771
1784137637539324148,2026-07-16T00:47:17.539+07:00,837452837054125510,376342,482880,454483,172763
1784137637557505966,2026-07-16T00:47:17.557+07:00,837452837054125510,376373,482874,454577,172822
1784137637575687784,2026-07-16T00:47:17.575+07:00,837452837054125510,376290,482925,454518,172827
1784137637593869602,2026-07-16T00:47:17.593+07:00,837452837054125510,376320,482849,454514,172749
1784137637612051420,2026-07-16T00:47:17.612+07:00,837452837054125510,376343,482878,454514,172742
1784137637630233238,2026-07-16T00:47:17.630+07:00,837452837054125510,376357,482903,454473,172794
1784137637648415056,2026-07-16T00:47:17.648+07:00,837452837054125510,376313,482914,454493,172785
1784137637666596874,2026-07-16T00:47:17.666+07:00,837452837054125510,376393,482934,454529,172743
1784137637684778692,2026-07-16T00:47:17.684+07:00,837452837054125510,376355,482946,454495,172737
1784137637702960510,2026-07-16T00:47:17.702+07:00,837452837054125510,376383,483003,454576,172796
1784137637721142328,2026-07-16T00:47:17.721+07:00,837452837054125510,376443,483070,454654,172803
1784137637739324146,2026-07-16T00:47:17.739+07:00,837452837054125510,376439,483053,454627,172769
1784137637757505964,2026-07-16T00:47:17.757+07:00,837452837054125510,376504,483104,454747,172823
1784137637775687782,2026-07-16T00:47:17.775+07:00,837452837054125510,376510,483116,454763,172793
1784137637793869600,2026-07-16T00:47:17.793+07:00,837452837054125510,376570,483184,454811,172812
1784137637812051418,2026-07-16T00:47:17.812+07:00,837452837054125510,376552,483252,454883,172799
1784137637830233236,2026-07-16T00:47:17.830+07:00,837452837836727575,376584,483280,454937,172809
1784137637848415054,2026-07-16T00:47:17.848+07:00,837452837836727575,376560,483387,454941,172768
1784137637866596872,2026-07-16T00:47:17.866+07:00,837452837836727575,376629,483329,454972,172754
1784137637884778690,2026-07-16T00:47:17.884+07:00,837452837836727575,376650,483393,455023,172740
1784137637902960508,2026-07-16T00:47:17.902+07:00,837452837836727575,376686,483443,455034,172709
1784137637921142326,2026-07-16T00:47:17.921+07:00,837452837836727575,376694,483439,455071,172775
1784137637939324144,2026-07-16T00:47:17.939+07:00,837452837836727575,376603,483428,454995,172731
1784137637957505962,2026-07-16T00:47:17.957+07:00,837452837836727575,376574,483319,454934,172742
1784137637975687780,2026-07-16T00:47:17.975+07:00,837452837836727575,376549,483271,454915,172786
1784137637993869598,2026-07-16T00:47:17.993+07:00,837452837836727575,376547,483158,454757,172717
1784137638012051416,2026-07-16T00:47:18.012+07:00,837452837836727575,376419,483100,454761,172769
1784137638030233234,2026-07-16T00:47:18.030+07:00,837452837836727575,376392,483042,454749,172823
1784137638048415052,2026-07-16T00:47:18.048+07:00,837452837836727575,376370,482957,454756,172809
1784137638066596870,2026-07-16T00:47:18.066+07:00,837452837836727575,376306,482922,454662,172782
1784137638084778688,2026-07-16T00:47:18.084+07:00,837452837836727575,376198,482808,454580,172742
1784137638102960506,2026-07-16T00:47:18.102+07:00,837452837836727575,376218,482829,454559,172741
1784137638121142324,2026-07-16T00:47:18.121+07:00,837452837836727575,376177,482804,454514,172743
1784137638139324142,2026-07-16T00:47:18.139+07:00,837452837836727575,376171,482844,454469,172729
1784137638157505960,2026-07-16T00:47:18.157+07:00,837452837836727575,376117,482721,454395,172728
1784137638175687778,2026-07-16T00:47:18.175+07:00,837452837836727575,376155,482692,454464,172791
1784137638193869596,2026-07-16T00:47:18.193+07:00,837452837836727575,376094,482682,454412,172724
1784137638212051414,2026-07-16T00:47:18.212+07:00,837452837836727575,376032,482650,454375,172729
1784137638230233232,2026-07-16T00:47:18.230+07:00,837452837836727575,375979,482648,454380,172736
1784137638248415050,2026-07-16T00:47:18.248+07:00,837452837836727575,376096,482650,454477,172791
1784137638266596868,2026-07-16T00:47:18.266+07:00,837452837836727575,376038,482585,454368,172759
1784137638284778686,2026-07-16T00:47:18.284+07:00,837452837836727575,376076,482658,454418,172774
1784137638302960504,2026-07-16T00:47:18.302+07:00,837452837836727575,376020,482614,454402,172709
1784137638321142322,2026-07-16T00:47:18.321+07:00,837452837836727575,376075,482660,454431,172742
1784137638339324140,2026-07-16T00:47:18.339+07:00,837452837836727575,376105,482729,454420,172766
1784137638357505958,2026-07-16T00:47:18.357+07:00,837452837836727575,376161,482733,454498,172846
1784137638375687776,2026-07-16T00:47:18.375+07:00,837452837836727575,376125,482688,454493,172759
1784137638393869594,2026-07-16T00:47:18.393+07:00,837452837836727575,376127,482807,454534,172766
1784137638412051412,2026-07-16T00:47:18.412+07:00,837452837836727575,376170,482863,454603,172787
1784137638430233230,2026-07-16T00:47:18.430+07:00,837452837836727575,376172,482854,454676,172735
1784137638448415048,2026-07-16T00:47:18.448+07:00,837452837836727575,376247,482982,454702,172803
1784137638466596866,2026-07-16T00:47:18.466+07:00,837452837836727575,376260,482965,454705,172750
1784137638484778684,2026-07-16T00:47:18.484+07:00,837452837836727575,376294,483001,454756,172752
1784137638502960502,2026-07-16T00:47:18.502+07:00,837452837836727575,376328,483076,454848,172747
1784137638521142320,2026-07-16T00:47:18.521+07:00,837452837836727575,376345,483114,454873,172716
1784137638539324138,2026-07-16T00:47:18.539+07:00,837452837836727575,376379,483126,454898,172748
1784137638557505956,2026-07-16T00:47:18.557+07:00,837452837836727575,376426,483109,454942,172720
1784137638575687774,2026-07-16T00:47:18.575+07:00,837452837836727575,376403,483213,454957,172799
1784137638593869592,2026-07-16T00:47:18.593+07:00,837452837836727575,376381,483258,454942,172789
1784137638612051410,2026-07-16T00:47:18.612+07:00,837452838601072247,376372,483347,455036,172766
1784137638630233228,2026-07-16T00:47:18.630+07:00,837452838601072247,376408,483269,454968,172751
1784137638648415046,2026-07-16T00:47:18.648+07:00,837452838601072247,376315,483180,454996,172743
1784137638666596864,2026-07-16T00:47:18.666+07:00,837452838601072247,376241,483182,454923,172740
1784137638684778682,2026-07-16T00:47:18.684+07:00,837452838601072247,376086,483014,454743,172697
1784137638702960500,2026-07-16T00:47:18.702+07:00,837452838601072247,376027,482857,454666,172727
1784137638721142318,2026-07-16T00:47:18.721+07:00,837452838601072247,375967,482701,454567,172721
1784137638739324136,2026-07-16T00:47:18.739+07:00,837452838601072247,375859,482633,454457,172740
1784137638757505954,2026-07-16T00:47:18.757+07:00,837452838601072247,375762,482506,454316,172696
1784137638775687772,2026-07-16T00:47:18.775+07:00,837452838601072247,375635,482408,454210,172717
1784137638793869590,2026-07-16T00:47:18.793+07:00,837452838601072247,375641,482316,454152,172713
1784137638812051408,2026-07-16T00:47:18.812+07:00,837452838601072247,375567,482252,454110,172751
1784137638830233226,2026-07-16T00:47:18.830+07:00,837452838601072247,375524,482186,453994,172724
1784137638848415044,2026-07-16T00:47:18.848+07:00,837452838601072247,375529,482149,453911,172770
1784137638866596862,2026-07-16T00:47:18.866+07:00,837452838601072247,375495,482072,453887,172730
1784137638884778680,2026-07-16T00:47:18.884+07:00,837452838601072247,375512,482028,453876,172789
1784137638902960498,2026-07-16T00:47:18.902+07:00,837452838601072247,375458,481992,453823,172743
1784137638921142316,2026-07-16T00:47:18.921+07:00,837452838601072247,375396,482016,453831,172719
1784137638939324134,2026-07-16T00:47:18.939+07:00,837452838601072247,375348,481920,453778,172763
1784137638957505952,2026-07-16T00:47:18.957+07:00,837452838601072247,375360,481894,453745,172746
1784137638975687770,2026-07-16T00:47:18.975+07:00,837452838601072247,375290,481840,453614,172707
1784137638993869588,2026-07-16T00:47:18.993+07:00,837452838601072247,375318,481867,453642,172777
1784137639012051406,2026-07-16T00:47:19.012+07:00,837452838601072247,375316,481871,453700,172736
1784137639030233224,2026-07-16T00:47:19.030+07:00,837452838601072247,375265,481793,453674,172755
1784137639048415042,2026-07-16T00:47:19.048+07:00,837452838601072247,375294,481836,453619,172732
1784137639066596860,2026-07-16T00:47:19.066+07:00,837452838601072247,375275,481801,453620,172714
1784137639084778678,2026-07-16T00:47:19.084+07:00,837452838601072247,375329,481870,453702,172699
1784137639102960496,2026-07-16T00:47:19.102+07:00,837452838601072247,375332,481882,453700,172666
1784137639121142314,2026-07-16T00:47:19.121+07:00,837452838601072247,375353,481896,453739,172787
1784137639139324132,2026-07-16T00:47:19.139+07:00,837452838601072247,375424,481896,453705,172752
1784137639157505950,2026-07-16T00:47:19.157+07:00,837452838601072247,375415,481981,453765,172777
1784137639175687768,2026-07-16T00:47:19.175+07:00,837452838601072247,375414,481944,453752,172738
1784137639193869586,2026-07-16T00:47:19.193+07:00,837452838601072247,375392,481983,453801,172703
1784137639212051404,2026-07-16T00:47:19.212+07:00,837452838601072247,375419,482037,453894,172728
1784137639230233222,2026-07-16T00:47:19.230+07:00,837452838601072247,375481,482062,453907,172775
1784137639248415040,2026-07-16T00:47:19.248+07:00,837452838601072247,375497,482102,453928,172780
1784137639266596858,2026-07-16T00:47:19.266+07:00,837452838601072247,375513,482154,453954,172763
1784137639284778676,2026-07-16T00:47:19.284+07:00,837452838601072247,375577,482250,454028,172789
1784137639302960494,2026-07-16T00:47:19.302+07:00,837452838601072247,375626,482199,454050,172731
1784137639321142312,2026-07-16T00:47:19.321+07:00,837452838601072247,375599,482224,454045,172744
1784137639339324130,2026-07-16T00:47:19.339+07:00,837452838601072247,375567,482302,454053,172744
1784137639357505948,2026-07-16T00:47:19.357+07:00,837452838601072247,375588,482348,454064,172785
1784137639375687766,2026-07-16T00:47:19.375+07:00,837452839365416919,375555,482211,453977,172746
1784137639393869584,2026-07-16T00:47:19.393+07:00,837452839365416919,375446,482087,453870,172672
1784137639412051402,2026-07-16T00:47:19.412+07:00,837452839365416919,375477,481952,453896,172762
1784137639430233220,2026-07-16T00:47:19.430+07:00,837452839365416919,375328,481818,453731,172794
1784137639448415038,2026-07-16T00:47:19.448+07:00,837452839365416919,375228,481699,453626,172775
1784137639466596856,2026-07-16T00:47:19.466+07:00,837452839365416919,375124,481614,453527,172751
1784137639484778674,2026-07-16T00:47:19.484+07:00,837452839365416919,375058,481495,453420,172737
1784137639502960492,2026-07-16T00:47:19.502+07:00,837452839365416919,374928,481343,453291,172776
1784137639521142310,2026-07-16T00:47:19.521+07:00,837452839365416919,374929,481292,453159,172740
1784137639539324128,2026-07-16T00:47:19.539+07:00,837452839365416919,374837,481210,453069,172720
1784137639557505946,2026-07-16T00:47:19.557+07:00,837452839365416919,374766,481109,453032,172748
1784137639575687764,2026-07-16T00:47:19.575+07:00,837452839365416919,374764,480993,452962,172799
1784137639593869582,2026-07-16T00:47:19.593+07:00,837452839365416919,374736,481013,452907,172824
1784137639612051400,2026-07-16T00:47:19.612+07:00,837452839365416919,374683,480967,452898,172777
1784137639630233218,2026-07-16T00:47:19.630+07:00,837452839365416919,374580,480890,452828,172766
1784137639648415036,2026-07-16T00:47:19.648+07:00,837452839365416919,374484,480840,452689,172762
1784137639666596854,2026-07-16T00:47:19.666+07:00,837452839365416919,374540,480840,452710,172749
1784137639684778672,2026-07-16T00:47:19.684+07:00,837452839365416919,374468,480720,452587,172725
1784137639702960490,2026-07-16T00:47:19.702+07:00,837452839365416919,374419,480656,452589,172734
1784137639721142308,2026-07-16T00:47:19.721+07:00,837452839365416919,374398,480674,452474,172725
1784137639739324126,2026-07-16T00:47:19.739+07:00,837452839365416919,374380,480593,452453,172717
1784137639757505944,2026-07-16T00:47:19.757+07:00,837452839365416919,374372,480561,452523,172700
1784137639775687762,2026-07-16T00:47:19.775+07:00,837452839365416919,374378,480584,452494,172747
1784137639793869580,2026-07-16T00:47:19.793+07:00,837452839365416919,374412,480562,452495,172774
1784137639812051398,2026-07-16T00:47:19.812+07:00,837452839365416919,374425,480582,452552,172744
1784137639830233216,2026-07-16T00:47:19.830+07:00,837452839365416919,374494,480611,452540,172750
1784137639848415034,2026-07-16T00:47:19.848+07:00,837452839365416919,374449,480640,452551,172828
1784137639866596852,2026-07-16T00:47:19.866+07:00,837452839365416919,374446,480673,452620,172781
1784137639884778670,2026-07-16T00:47:19.884+07:00,837452839365416919,374463,480667,452639,172747
1784137639902960488,2026-07-16T00:47:19.902+07:00,837452839365416919,374495,480651,452553,172760
1784137639921142306,2026-07-16T00:47:19.921+07:00,837452839365416919,374564,480694,452634,172782
1784137639939324124,2026-07-16T00:47:19.939+07:00,837452839365416919,374590,480761,452643,172780
1784137639957505942,2026-07-16T00:47:19.957+07:00,837452839365416919,374512,480728,452648,172701
1784137639975687760,2026-07-16T00:47:19.975+07:00,837452839365416919,374597,480882,452737,172767
1784137639993869578,2026-07-16T00:47:19.993+07:00,837452839365416919,374614,480895,452768,172752
1784137640012051396,2026-07-16T00:47:20.012+07:00,837452839365416919,374681,480932,452819,172755
1784137640030233214,2026-07-16T00:47:20.030+07:00,837452839365416919,374632,480974,452812,172747
1784137640048415032,2026-07-16T00:47:20.048+07:00,837452839365416919,374643,480987,452868,172709
1784137640066596850,2026-07-16T00:47:20.066+07:00,837452839365416919,374660,480967,452842,172762
1784137640084778668,2026-07-16T00:47:20.084+07:00,837452839365416919,374602,480940,452808,172761
1784137640102960486,2026-07-16T00:47:20.102+07:00,837452839365416919,374607,480866,452696,172747
1784137640121142304,2026-07-16T00:47:20.121+07:00,837452839365416919,374556,480739,452617,172711
1784137640139324122,2026-07-16T00:47:20.139+07:00,837452840220764738,374397,480570,452500,172700
1784137640157505940,2026-07-16T00:47:20.157+07:00,837452840220764738,374249,480481,452405,172716
1784137640175687758,2026-07-16T00:47:20.175+07:00,837452840220764738,374176,480295,452281,172743
1784137640193869576,2026-07-16T00:47:20.193+07:00,837452840220764738,374124,480193,452054,172712
1784137640212051394,2026-07-16T00:47:20.212+07:00,837452840220764738,374031,480157,452067,172749
1784137640230233212,2026-07-16T00:47:20.230+07:00,837452840220764738,373952,479997,451904,172731
1784137640248415030,2026-07-16T00:47:20.248+07:00,837452840220764738,373843,479882,451879,172767
1784137640266596848,2026-07-16T00:47:20.266+07:00,837452840220764738,373797,479763,451755,172664
1784137640284778666,2026-07-16T00:47:20.284+07:00,837452840220764738,373727,479721,451684,172718
1784137640302960484,2026-07-16T00:47:20.302+07:00,837452840220764738,373707,479623,451610,172781
1784137640321142302,2026-07-16T00:47:20.321+07:00,837452840220764738,373692,479546,451535,172727
1784137640339324120,2026-07-16T00:47:20.339+07:00,837452840220764738,373658,479508,451528,172767
1784137640357505938,2026-07-16T00:47:20.357+07:00,837452840220764738,373562,479536,451469,172703
1784137640375687756,2026-07-16T00:47:20.375+07:00,837452840220764738,373546,479466,451449,172728
1784137640393869574,2026-07-16T00:47:20.393+07:00,837452840220764738,373534,479437,451427,172740
1784137640412051392,2026-07-16T00:47:20.412+07:00,837452840220764738,373509,479371,451372,172771
1784137640430233210,2026-07-16T00:47:20.430+07:00,837452840220764738,373464,479337,451273,172718
1784137640448415028,2026-07-16T00:47:20.448+07:00,837452840220764738,373468,479304,451277,172753
1784137640466596846,2026-07-16T00:47:20.466+07:00,837452840220764738,373466,479367,451275,172786
1784137640484778664,2026-07-16T00:47:20.484+07:00,837452840220764738,373452,479304,451296,172779
1784137640502960482,2026-07-16T00:47:20.502+07:00,837452840220764738,373454,479357,451275,172738
1784137640521142300,2026-07-16T00:47:20.521+07:00,837452840220764738,373477,479326,451244,172753
1784137640539324118,2026-07-16T00:47:20.539+07:00,837452840220764738,373491,479300,451293,172741
1784137640557505936,2026-07-16T00:47:20.557+07:00,837452840220764738,373502,479334,451309,172758
1784137640575687754,2026-07-16T00:47:20.575+07:00,837452840220764738,373516,479362,451346,172747
1784137640593869572,2026-07-16T00:47:20.593+07:00,837452840220764738,373505,479373,451292,172760
1784137640612051390,2026-07-16T00:47:20.612+07:00,837452840220764738,373554,479413,451349,172768
1784137640630233208,2026-07-16T00:47:20.630+07:00,837452840220764738,373520,479416,451312,172676
1784137640648415026,2026-07-16T00:47:20.648+07:00,837452840220764738,373542,479359,451419,172699
1784137640666596844,2026-07-16T00:47:20.666+07:00,837452840220764738,373610,479434,451469,172765
1784137640684778662,2026-07-16T00:47:20.684+07:00,837452840220764738,373606,479466,451454,172745
1784137640702960480,2026-07-16T00:47:20.702+07:00,837452840220764738,373635,479514,451460,172771
1784137640721142298,2026-07-16T00:47:20.721+07:00,837452840220764738,373589,479547,451454,172754
1784137640739324116,2026-07-16T00:47:20.739+07:00,837452840220764738,373572,479530,451502,172749
1784137640757505934,2026-07-16T00:47:20.757+07:00,837452840220764738,373635,479616,451528,172764
1784137640775687752,2026-07-16T00:47:20.775+07:00,837452840220764738,373672,479681,451547,172721
1784137640793869570,2026-07-16T00:47:20.793+07:00,837452840220764738,373645,479697,451628,172759
1784137640812051388,2026-07-16T00:47:20.812+07:00,837452840220764738,373651,479679,451654,172768
1784137640830233206,2026-07-16T00:47:20.830+07:00,837452840220764738,373726,479670,451650,172742
1784137640848415024,2026-07-16T00:47:20.848+07:00,837452840220764738,373657,479653,451611,172729
1784137640866596842,2026-07-16T00:47:20.866+07:00,837452840220764738,373543,479528,451536,172707
1784137640884778660,2026-07-16T00:47:20.884+07:00,837452840220764738,373525,479533,451502,172782
1784137640902960478,2026-07-16T00:47:20.902+07:00,837452840220764738,373476,479328,451408,172806
1784137640921142296,2026-07-16T00:47:20.921+07:00,837452840220764738,373278,479209,451221,172762
1784137640939324114,2026-07-16T00:47:20.939+07:00,837452840220764738,373179,479102,451110,172747
1784137640957505932,2026-07-16T00:47:20.957+07:00,837452840220764738,373069,478934,450950,172714
1784137640975687750,2026-07-16T00:47:20.975+07:00,837452840220764738,373023,478869,450879,172805
1784137640993869568,2026-07-16T00:47:20.993+07:00,837452841003302717,372836,478669,450695,172706
1784137641012051386,2026-07-16T00:47:21.012+07:00,837452841003302717,372757,478610,450586,172783
1784137641030233204,2026-07-16T00:47:21.030+07:00,837452841003302717,372687,478522,450450,172715
1784137641048415022,2026-07-16T00:47:21.048+07:00,837452841003302717,372601,478374,450307,172712
1784137641066596840,2026-07-16T00:47:21.066+07:00,837452841003302717,372617,478340,450287,172728
1784137641084778658,2026-07-16T00:47:21.084+07:00,837452841003302717,372537,478258,450192,172750
1784137641102960476,2026-07-16T00:47:21.102+07:00,837452841003302717,372481,478214,450110,172735
1784137641121142294,2026-07-16T00:47:21.121+07:00,837452841003302717,372421,478161,450035,172711
1784137641139324112,2026-07-16T00:47:21.139+07:00,837452841003302717,372420,478092,449982,172696
1784137641157505930,2026-07-16T00:47:21.157+07:00,837452841003302717,372373,478017,449950,172691
1784137641175687748,2026-07-16T00:47:21.175+07:00,837452841003302717,372354,478018,449880,172709
1784137641193869566,2026-07-16T00:47:21.193+07:00,837452841003302717,372407,478031,449852,172766
1784137641212051384,2026-07-16T00:47:21.212+07:00,837452841003302717,372357,477915,449824,172709
1784137641230233202,2026-07-16T00:47:21.230+07:00,837452841003302717,372393,477940,449907,172793
1784137641248415020,2026-07-16T00:47:21.248+07:00,837452841003302717,372489,478047,449982,172731
1784137641266596838,2026-07-16T00:47:21.266+07:00,837452841003302717,372546,478003,449958,172744
1784137641284778656,2026-07-16T00:47:21.284+07:00,837452841003302717,372556,478096,449995,172702
1784137641302960474,2026-07-16T00:47:21.302+07:00,837452841003302717,372619,478160,450058,172729
1784137641321142292,2026-07-16T00:47:21.321+07:00,837452841003302717,372683,478182,450076,172664
1784137641339324110,2026-07-16T00:47:21.339+07:00,837452841003302717,372808,478301,450254,172714
1784137641357505928,2026-07-16T00:47:21.357+07:00,837452841003302717,372913,478326,450284,172724
1784137641375687746,2026-07-16T00:47:21.375+07:00,837452841003302717,372975,478462,450357,172694
1784137641393869564,2026-07-16T00:47:21.393+07:00,837452841003302717,373078,478566,450418,172715
1784137641412051382,2026-07-16T00:47:21.412+07:00,837452841003302717,373185,478640,450514,172718
1784137641430233200,2026-07-16T00:47:21.430+07:00,837452841003302717,373206,478699,450567,172713
1784137641448415018,2026-07-16T00:47:21.448+07:00,837452841003302717,373323,478833,450693,172712
1784137641466596836,2026-07-16T00:47:21.466+07:00,837452841003302717,373393,478869,450726,172752
1784137641484778654,2026-07-16T00:47:21.484+07:00,837452841003302717,373489,478975,450870,172737
1784137641502960472,2026-07-16T00:47:21.502+07:00,837452841003302717,373596,479127,451030,172806
1784137641521142290,2026-07-16T00:47:21.521+07:00,837452841003302717,373619,479192,451069,172770
1784137641539324108,2026-07-16T00:47:21.539+07:00,837452841003302717,373749,479302,451185,172674
1784137641557505926,2026-07-16T00:47:21.557+07:00,837452841003302717,373812,479417,451334,172706
1784137641575687744,2026-07-16T00:47:21.575+07:00,837452841003302717,373945,479552,451452,172724
1784137641593869562,2026-07-16T00:47:21.593+07:00,837452841003302717,374098,479708,451573,172743
1784137641612051380,2026-07-16T00:47:21.612+07:00,837452841003302717,374177,479772,451698,172762
1784137641630233198,2026-07-16T00:47:21.630+07:00,837452841003302717,374315,479923,451843,172743
1784137641648415016,2026-07-16T00:47:21.648+07:00,837452841003302717,374404,480020,451940,172788
1784137641666596834,2026-07-16T00:47:21.666+07:00,837452841003302717,374495,480075,451993,172745
1784137641684778652,2026-07-16T00:47:21.684+07:00,837452841003302717,374633,480109,452039,172743
1784137641702960470,2026-07-16T00:47:21.702+07:00,837452841003302717,374694,480138,452060,172727
1784137641721142288,2026-07-16T00:47:21.721+07:00,837452841003302717,374711,480087,452043,172698
1784137641739324106,2026-07-16T00:47:21.739+07:00,837452841003302717,374797,480090,452074,172726
1784137641757505924,2026-07-16T00:47:21.757+07:00,837452841003302717,374805,480072,452135,172731
1784137641775687742,2026-07-16T00:47:21.775+07:00,837452841822209000,374834,480090,452166,172733
1784137641793869560,2026-07-16T00:47:21.793+07:00,837452841822209000,374837,480140,452181,172674
1784137641812051378,2026-07-16T00:47:21.812+07:00,837452841822209000,374924,480186,452295,172694
1784137641830233196,2026-07-16T00:47:21.830+07:00,837452841822209000,374886,480224,452336,172753
1784137641848415014,2026-07-16T00:47:21.848+07:00,837452841822209000,374906,480276,452383,172763
1784137641866596832,2026-07-16T00:47:21.866+07:00,837452841822209000,374910,480271,452416,172744
1784137641884778650,2026-07-16T00:47:21.884+07:00,837452841822209000,374904,480361,452402,172752
1784137641902960468,2026-07-16T00:47:21.902+07:00,837452841822209000,374891,480317,452427,172791
1784137641921142286,2026-07-16T00:47:21.921+07:00,837452841822209000,374912,480316,452367,172762
1784137641939324104,2026-07-16T00:47:21.939+07:00,837452841822209000,374830,480269,452273,172757
1784137641957505922,2026-07-16T00:47:21.957+07:00,837452841822209000,374876,480338,452317,172771
1784137641975687740,2026-07-16T00:47:21.975+07:00,837452841822209000,374833,480317,452280,172780
1784137641993869558,2026-07-16T00:47:21.993+07:00,837452841822209000,374730,480328,452288,172788
1784137642012051376,2026-07-16T00:47:22.012+07:00,837452841822209000,374734,480326,452285,172766
1784137642030233194,2026-07-16T00:47:22.030+07:00,837452841822209000,374728,480343,452253,172731
1784137642048415012,2026-07-16T00:47:22.048+07:00,837452841822209000,374699,480295,452253,172744
1784137642066596830,2026-07-16T00:47:22.066+07:00,837452841822209000,374694,480337,452225,172776
1784137642084778648,2026-07-16T00:47:22.084+07:00,837452841822209000,374673,480387,452322,172744
1784137642102960466,2026-07-16T00:47:22.102+07:00,837452841822209000,374605,480312,452186,172738
1784137642121142284,2026-07-16T00:47:22.121+07:00,837452841822209000,374576,480365,452221,172721
1784137642139324102,2026-07-16T00:47:22.139+07:00,837452841822209000,374563,480373,452178,172735
1784137642157505920,2026-07-16T00:47:22.157+07:00,837452841822209000,374587,480368,452176,172784
1784137642175687738,2026-07-16T00:47:22.175+07:00,837452841822209000,374597,480362,452149,172787
1784137642193869556,2026-07-16T00:47:22.193+07:00,837452841822209000,374548,480397,452123,172714
1784137642212051374,2026-07-16T00:47:22.212+07:00,837452841822209000,374548,480349,452076,172719
1784137642230233192,2026-07-16T00:47:22.230+07:00,837452841822209000,374590,480392,452118,172718
1784137642248415010,2026-07-16T00:47:22.248+07:00,837452841822209000,374648,480418,452154,172840
1784137642266596828,2026-07-16T00:47:22.266+07:00,837452841822209000,374615,480382,452143,172748
1784137642284778646,2026-07-16T00:47:22.284+07:00,837452841822209000,374652,480419,452192,172736
1784137642302960464,2026-07-16T00:47:22.302+07:00,837452841822209000,374646,480436,452167,172783
1784137642321142282,2026-07-16T00:47:22.321+07:00,837452841822209000,374624,480481,452188,172798
1784137642339324100,2026-07-16T00:47:22.339+07:00,837452841822209000,374672,480524,452247,172801
1784137642357505918,2026-07-16T00:47:22.357+07:00,837452841822209000,374744,480611,452381,172816
1784137642375687736,2026-07-16T00:47:22.375+07:00,837452841822209000,374758,480643,452361,172793
1784137642393869554,2026-07-16T00:47:22.393+07:00,837452841822209000,374888,480690,452423,172726
1784137642412051372,2026-07-16T00:47:22.412+07:00,837452841822209000,374932,480767,452408,172779
1784137642430233190,2026-07-16T00:47:22.430+07:00,837452841822209000,375003,480840,452505,172775
1784137642448415008,2026-07-16T00:47:22.448+07:00,837452841822209000,375031,480935,452587,172781
1784137642466596826,2026-07-16T00:47:22.466+07:00,837452841822209000,375089,480970,452631,172743
1784137642484778644,2026-07-16T00:47:22.484+07:00,837452841822209000,375082,480912,452652,172775
1784137642502960462,2026-07-16T00:47:22.502+07:00,837452841822209000,375080,480946,452672,172751
1784137642521142280,2026-07-16T00:47:22.521+07:00,837452841822209000,375024,480921,452568,172711
1784137642539324098,2026-07-16T00:47:22.539+07:00,837452841822209000,375036,480897,452506,172731
1784137642557505916,2026-07-16T00:47:22.557+07:00,837452841822209000,375036,480800,452459,172742
1784137642575687734,2026-07-16T00:47:22.575+07:00,837452841822209000,375021,480758,452401,172791
1784137642593869552,2026-07-16T00:47:22.593+07:00,837452842768529450,374924,480665,452331,172734
1784137642612051370,2026-07-16T00:47:22.612+07:00,837452842768529450,374865,480574,452293,172746
1784137642630233188,2026-07-16T00:47:22.630+07:00,837452842768529450,374915,480570,452271,172768
1784137642648415006,2026-07-16T00:47:22.648+07:00,837452842768529450,374858,480552,452264,172721
1784137642666596824,2026-07-16T00:47:22.666+07:00,837452842768529450,374784,480515,452235,172702
1784137642684778642,2026-07-16T00:47:22.684+07:00,837452842768529450,374811,480485,452194,172748
1784137642702960460,2026-07-16T00:47:22.702+07:00,837452842768529450,374779,480459,452232,172767
1784137642721142278,2026-07-16T00:47:22.721+07:00,837452842768529450,374729,480470,452197,172747
1784137642739324096,2026-07-16T00:47:22.739+07:00,837452842768529450,374768,480484,452182,172784
1784137642757505914,2026-07-16T00:47:22.757+07:00,837452842768529450,374794,480467,452175,172750
1784137642775687732,2026-07-16T00:47:22.775+07:00,837452842768529450,374782,480522,452131,172752
1784137642793869550,2026-07-16T00:47:22.793+07:00,837452842768529450,374796,480485,452128,172794
1784137642812051368,2026-07-16T00:47:22.812+07:00,837452842768529450,374785,480515,452183,172805
1784137642830233186,2026-07-16T00:47:22.830+07:00,837452842768529450,374732,480548,452170,172764
1784137642848415004,2026-07-16T00:47:22.848+07:00,837452842768529450,374733,480532,452145,172760
1784137642866596822,2026-07-16T00:47:22.866+07:00,837452842768529450,374743,480501,452154,172779
1784137642884778640,2026-07-16T00:47:22.884+07:00,837452842768529450,374808,480485,452148,172749
1784137642902960458,2026-07-16T00:47:22.902+07:00,837452842768529450,374748,480546,452132,172783
1784137642921142276,2026-07-16T00:47:22.921+07:00,837452842768529450,374749,480527,452130,172810
1784137642939324094,2026-07-16T00:47:22.939+07:00,837452842768529450,374680,480583,452071,172713
1784137642957505912,2026-07-16T00:47:22.957+07:00,837452842768529450,374688,480549,452091,172724
1784137642975687730,2026-07-16T00:47:22.975+07:00,837452842768529450,374686,480549,452122,172765
1784137642993869548,2026-07-16T00:47:22.993+07:00,837452842768529450,374726,480637,452164,172768
1784137643012051366,2026-07-16T00:47:23.012+07:00,837452842768529450,374712,480656,452142,172783
1784137643030233184,2026-07-16T00:47:23.030+07:00,837452842768529450,374703,480633,452149,172753
1784137643048415002,2026-07-16T00:47:23.048+07:00,837452842768529450,374724,480635,452149,172804
1784137643066596820,2026-07-16T00:47:23.066+07:00,837452842768529450,374711,480713,452150,172782
1784137643084778638,2026-07-16T00:47:23.084+07:00,837452842768529450,374797,480680,452141,172774
1784137643102960456,2026-07-16T00:47:23.102+07:00,837452842768529450,374816,480728,452143,172730
1784137643121142274,2026-07-16T00:47:23.121+07:00,837452842768529450,374868,480770,452179,172758
1784137643139324092,2026-07-16T00:47:23.139+07:00,837452842768529450,374860,480882,452267,172793
1784137643157505910,2026-07-16T00:47:23.157+07:00,837452842768529450,374938,480904,452345,172745
1784137643175687728,2026-07-16T00:47:23.175+07:00,837452842768529450,375005,480947,452335,172796
1784137643193869546,2026-07-16T00:47:23.193+07:00,837452842768529450,374918,481036,452343,172757
1784137643212051364,2026-07-16T00:47:23.212+07:00,837452842768529450,375006,481028,452388,172712
1784137643230233182,2026-07-16T00:47:23.230+07:00,837452842768529450,375060,481096,452514,172735
1784137643248415000,2026-07-16T00:47:23.248+07:00,837452842768529450,375151,481169,452570,172750
1784137643266596818,2026-07-16T00:47:23.266+07:00,837452842768529450,375196,481235,452656,172721
1784137643284778636,2026-07-16T00:47:23.284+07:00,837452842768529450,375231,481308,452647,172716
1784137643302960454,2026-07-16T00:47:23.302+07:00,837452842768529450,375242,481326,452702,172716
1784137643321142272,2026-07-16T00:47:23.321+07:00,837452842768529450,375337,481405,452767,172804
1784137643339324090,2026-07-16T00:47:23.339+07:00,837452842768529450,375310,481354,452738,172749
1784137643357505908,2026-07-16T00:47:23.357+07:00,837452842768529450,375278,481236,452674,172736
1784137643375687726,2026-07-16T00:47:23.375+07:00,837452842768529450,375213,481225,452630,172717
1784137643393869544,2026-07-16T00:47:23.393+07:00,837452842768529450,375189,481134,452567,172718
1784137643412051362,2026-07-16T00:47:23.412+07:00,837452842768529450,375073,481084,452520,172731
1784137643430233180,2026-07-16T00:47:23.430+07:00,837452842768529450,375061,480976,452448,172736
1784137643448414998,2026-07-16T00:47:23.448+07:00,837452842768529450,374996,480913,452351,172767
1784137643466596816,2026-07-16T00:47:23.466+07:00,837452842768529450,375012,480864,452318,172782
1784137643484778634,2026-07-16T00:47:23.484+07:00,837452842768529450,374957,480782,452237,172727
1784137643502960452,2026-07-16T00:47:23.502+07:00,837452842768529450,374926,480770,452254,172763
1784137643521142270,2026-07-16T00:47:23.521+07:00,837452842768529450,374980,480778,452294,172832
1784137643539324088,2026-07-16T00:47:23.539+07:00,837452843569236326,374898,480780,452285,172749
1784137643557505906,2026-07-16T00:47:23.557+07:00,837452843569236326,374905,480792,452276,172767
1784137643575687724,2026-07-16T00:47:23.575+07:00,837452843569236326,374813,480780,452258,172746
1784137643593869542,2026-07-16T00:47:23.593+07:00,837452843569236326,374846,480797,452227,172750
1784137643612051360,2026-07-16T00:47:23.612+07:00,837452843569236326,374799,480768,452168,172726
1784137643630233178,2026-07-16T00:47:23.630+07:00,837452843569236326,374808,480739,452154,172758
1784137643648414996,2026-07-16T00:47:23.648+07:00,837452843569236326,374774,480650,452065,172771
1784137643666596814,2026-07-16T00:47:23.666+07:00,837452843569236326,374745,480656,452046,172765
1784137643684778632,2026-07-16T00:47:23.684+07:00,837452843569236326,374733,480591,452048,172824
1784137643702960450,2026-07-16T00:47:23.702+07:00,837452843569236326,374652,480543,452011,172749
1784137643721142268,2026-07-16T00:47:23.721+07:00,837452843569236326,374669,480611,451987,172771
1784137643739324086,2026-07-16T00:47:23.739+07:00,837452843569236326,374703,480640,452029,172743
1784137643757505904,2026-07-16T00:47:23.757+07:00,837452843569236326,374694,480613,451951,172751
1784137643775687722,2026-07-16T00:47:23.775+07:00,837452843569236326,374728,480635,451991,172709
1784137643793869540,2026-07-16T00:47:23.793+07:00,837452843569236326,374768,480667,452046,172762
1784137643812051358,2026-07-16T00:47:23.812+07:00,837452843569236326,374721,480674,452028,172752
1784137643830233176,2026-07-16T00:47:23.830+07:00,837452843569236326,374777,480671,452079,172747
1784137643848414994,2026-07-16T00:47:23.848+07:00,837452843569236326,374766,480749,452130,172750
1784137643866596812,2026-07-16T00:47:23.866+07:00,837452843569236326,374820,480797,452158,172760
1784137643884778630,2026-07-16T00:47:23.884+07:00,837452843569236326,374991,480902,452254,172750
1784137643902960448,2026-07-16T00:47:23.902+07:00,837452843569236326,374979,480942,452239,172735
1784137643921142266,2026-07-16T00:47:23.921+07:00,837452843569236326,375029,480975,452344,172754
1784137643939324084,2026-07-16T00:47:23.939+07:00,837452843569236326,375046,481015,452328,172767
1784137643957505902,2026-07-16T00:47:23.957+07:00,837452843569236326,375081,481105,452436,172759
1784137643975687720,2026-07-16T00:47:23.975+07:00,837452843569236326,375147,481189,452487,172780
1784137643993869538,2026-07-16T00:47:23.993+07:00,837452843569236326,375227,481262,452481,172757
1784137644012051356,2026-07-16T00:47:24.012+07:00,837452843569236326,375265,481329,452614,172721
1784137644030233174,2026-07-16T00:47:24.030+07:00,837452843569236326,375370,481419,452706,172733
1784137644048414992,2026-07-16T00:47:24.048+07:00,837452843569236326,375451,481499,452767,172703
1784137644066596810,2026-07-16T00:47:24.066+07:00,837452843569236326,375483,481569,452822,172746
1784137644084778628,2026-07-16T00:47:24.084+07:00,837452843569236326,375514,481694,452959,172762
1784137644102960446,2026-07-16T00:47:24.102+07:00,837452843569236326,375653,481814,453045,172769
1784137644121142264,2026-07-16T00:47:24.121+07:00,837452843569236326,375740,481893,453189,172738
1784137644139324082,2026-07-16T00:47:24.139+07:00,837452843569236326,375768,481979,453167,172761
1784137644157505900,2026-07-16T00:47:24.157+07:00,837452843569236326,375837,482085,453242,172774
1784137644175687718,2026-07-16T00:47:24.175+07:00,837452843569236326,375875,482133,453295,172813
1784137644193869536,2026-07-16T00:47:24.193+07:00,837452843569236326,375938,482068,453306,172726
1784137644212051354,2026-07-16T00:47:24.212+07:00,837452843569236326,375968,482059,453356,172741
1784137644230233172,2026-07-16T00:47:24.230+07:00,837452843569236326,375998,482156,453362,172766
1784137644248414990,2026-07-16T00:47:24.248+07:00,837452843569236326,375889,482064,453304,172743
1784137644266596808,2026-07-16T00:47:24.266+07:00,837452843569236326,375926,482007,453255,172736
1784137644284778626,2026-07-16T00:47:24.284+07:00,837452843569236326,375962,482008,453275,172787
1784137644302960444,2026-07-16T00:47:24.302+07:00,837452843569236326,375895,481985,453290,172852
1784137644321142262,2026-07-16T00:47:24.321+07:00,837452843569236326,375872,481977,453341,172732
1784137644339324080,2026-07-16T00:47:24.339+07:00,837452844406329804,375831,481961,453268,172771
1784137644357505898,2026-07-16T00:47:24.357+07:00,837452844406329804,375898,481951,453295,172778
1784137644375687716,2026-07-16T00:47:24.375+07:00,837452844406329804,375846,481996,453347,172772
1784137644393869534,2026-07-16T00:47:24.393+07:00,837452844406329804,375867,481994,453341,172747
1784137644412051352,2026-07-16T00:47:24.412+07:00,837452844406329804,375941,482049,453409,172775
1784137644430233170,2026-07-16T00:47:24.430+07:00,837452844406329804,375899,482028,453367,172733
1784137644448414988,2026-07-16T00:47:24.448+07:00,837452844406329804,375927,482007,453409,172789
1784137644466596806,2026-07-16T00:47:24.466+07:00,837452844406329804,375856,482049,453346,172747
1784137644484778624,2026-07-16T00:47:24.484+07:00,837452844406329804,375883,482101,453357,172754
1784137644502960442,2026-07-16T00:47:24.502+07:00,837452844406329804,375802,482001,453319,172698
1784137644521142260,2026-07-16T00:47:24.521+07:00,837452844406329804,375889,482080,453393,172747
1784137644539324078,2026-07-16T00:47:24.539+07:00,837452844406329804,375819,482068,453327,172777
1784137644557505896,2026-07-16T00:47:24.557+07:00,837452844406329804,375893,482019,453405,172777
1784137644575687714,2026-07-16T00:47:24.575+07:00,837452844406329804,375890,482088,453500,172802
1784137644593869532,2026-07-16T00:47:24.593+07:00,837452844406329804,375967,482113,453440,172751
1784137644612051350,2026-07-16T00:47:24.612+07:00,837452844406329804,375938,482145,453484,172721
1784137644630233168,2026-07-16T00:47:24.630+07:00,837452844406329804,375982,482193,453600,172749
1784137644648414986,2026-07-16T00:47:24.648+07:00,837452844406329804,375961,482234,453617,172674
1784137644666596804,2026-07-16T00:47:24.666+07:00,837452844406329804,376026,482297,453617,172697
1784137644684778622,2026-07-16T00:47:24.684+07:00,837452844406329804,376139,482352,453715,172752
1784137644702960440,2026-07-16T00:47:24.702+07:00,837452844406329804,376129,482417,453795,172749
1784137644721142258,2026-07-16T00:47:24.721+07:00,837452844406329804,376173,482459,453851,172771
1784137644739324076,2026-07-16T00:47:24.739+07:00,837452844406329804,376206,482521,453936,172752
1784137644757505894,2026-07-16T00:47:24.757+07:00,837452844406329804,376304,482587,454008,172709
1784137644775687712,2026-07-16T00:47:24.775+07:00,837452844406329804,376326,482653,454094,172779
1784137644793869530,2026-07-16T00:47:24.793+07:00,837452844406329804,376390,482751,454214,172784
1784137644812051348,2026-07-16T00:47:24.812+07:00,837452844406329804,376497,482805,454262,172804
1784137644830233166,2026-07-16T00:47:24.830+07:00,837452844406329804,376565,482912,454378,172797
1784137644848414984,2026-07-16T00:47:24.848+07:00,837452844406329804,376662,482934,454477,172726
1784137644866596802,2026-07-16T00:47:24.866+07:00,837452844406329804,376685,483076,454514,172754
1784137644884778620,2026-07-16T00:47:24.884+07:00,837452844406329804,376720,483122,454599,172797
1784137644902960438,2026-07-16T00:47:24.902+07:00,837452844406329804,376789,483256,454735,172779
1784137644921142256,2026-07-16T00:47:24.921+07:00,837452844406329804,376863,483336,454774,172746
1784137644939324074,2026-07-16T00:47:24.939+07:00,837452844406329804,376939,483409,454846,172804
1784137644957505892,2026-07-16T00:47:24.957+07:00,837452844406329804,376902,483356,454854,172801
1784137644975687710,2026-07-16T00:47:24.975+07:00,837452844406329804,376915,483427,454923,172806
1784137644993869528,2026-07-16T00:47:24.993+07:00,837452844406329804,376907,483357,454814,172797
1784137645012051346,2026-07-16T00:47:25.012+07:00,837452844406329804,376883,483312,454822,172794
1784137645030233164,2026-07-16T00:47:25.030+07:00,837452844406329804,376854,483240,454804,172791
1784137645048414982,2026-07-16T00:47:25.048+07:00,837452844406329804,376874,483238,454790,172787
1784137645066596800,2026-07-16T00:47:25.066+07:00,837452844406329804,376804,483205,454777,172797
1784137645084778618,2026-07-16T00:47:25.084+07:00,837452844406329804,376771,483155,454740,172774
1784137645102960436,2026-07-16T00:47:25.102+07:00,837452844406329804,376827,483159,454739,172775
1784137645121142254,2026-07-16T00:47:25.121+07:00,837452844406329804,376826,483201,454719,172760
1784137645139324072,2026-07-16T00:47:25.139+07:00,837452844406329804,376840,483237,454835,172746
1784137645157505890,2026-07-16T00:47:25.157+07:00,837452844406329804,376959,483283,454937,172817
1784137645175687708,2026-07-16T00:47:25.175+07:00,837452845207045828,376941,483314,454923,172749
1784137645193869526,2026-07-16T00:47:25.193+07:00,837452845207045828,376915,483309,454964,172774
1784137645212051344,2026-07-16T00:47:25.212+07:00,837452845207045828,377002,483368,455047,172759
1784137645230233162,2026-07-16T00:47:25.230+07:00,837452845207045828,377037,483349,455104,172735
1784137645248414980,2026-07-16T00:47:25.248+07:00,837452845207045828,377092,483452,455169,172804
1784137645266596798,2026-07-16T00:47:25.266+07:00,837452845207045828,377095,483510,455244,172762
1784137645284778616,2026-07-16T00:47:25.284+07:00,837452845207045828,377137,483598,455267,172811
1784137645302960434,2026-07-16T00:47:25.302+07:00,837452845207045828,377194,483588,455316,172803
1784137645321142252,2026-07-16T00:47:25.321+07:00,837452845207045828,377196,483629,455376,172779
1784137645339324070,2026-07-16T00:47:25.339+07:00,837452845207045828,377289,483628,455396,172829
1784137645357505888,2026-07-16T00:47:25.357+07:00,837452845207045828,377340,483712,455505,172749
1784137645375687706,2026-07-16T00:47:25.375+07:00,837452845207045828,377314,483837,455566,172750
1784137645393869524,2026-07-16T00:47:25.393+07:00,837452845207045828,377396,483918,455644,172785
1784137645412051342,2026-07-16T00:47:25.412+07:00,837452845207045828,377441,483933,455673,172770
1784137645430233160,2026-07-16T00:47:25.430+07:00,837452845207045828,377561,484007,455776,172748
1784137645448414978,2026-07-16T00:47:25.448+07:00,837452845207045828,377572,484135,455822,172791
1784137645466596796,2026-07-16T00:47:25.466+07:00,837452845207045828,377615,484192,455905,172766
1784137645484778614,2026-07-16T00:47:25.484+07:00,837452845207045828,377679,484338,456040,172738
1784137645502960432,2026-07-16T00:47:25.502+07:00,837452845207045828,377696,484362,456120,172779
1784137645521142250,2026-07-16T00:47:25.521+07:00,837452845207045828,377757,484475,456200,172782
1784137645539324068,2026-07-16T00:47:25.539+07:00,837452845207045828,377846,484521,456259,172803
1784137645557505886,2026-07-16T00:47:25.557+07:00,837452845207045828,377856,484598,456299,172815
1784137645575687704,2026-07-16T00:47:25.575+07:00,837452845207045828,377985,484636,456365,172769
1784137645593869522,2026-07-16T00:47:25.593+07:00,837452845207045828,378097,484742,456492,172770
1784137645612051340,2026-07-16T00:47:25.612+07:00,837452845207045828,378147,484789,456484,172704
1784137645630233158,2026-07-16T00:47:25.630+07:00,837452845207045828,378256,484887,456580,172706
1784137645648414976,2026-07-16T00:47:25.648+07:00,837452845207045828,378379,484981,456701,172740
1784137645666596794,2026-07-16T00:47:25.666+07:00,837452845207045828,378489,485087,456885,172801
1784137645684778612,2026-07-16T00:47:25.684+07:00,837452845207045828,378603,485219,457058,172713
1784137645702960430,2026-07-16T00:47:25.702+07:00,837452845207045828,378697,485301,457224,172770
