host_timestamp_ns,host_timestamp_iso,pmd_timestamp,ppg0,ppg1,ppg2,ambient
1784137809759862800,2026-07-16T00:50:09.759+07:00,837453008497595059,372432,479957,448957,172717
1784137809778044618,2026-07-16T00:50:09.778+07:00,837453008497595059,372417,479877,448944,172738
1784137809796226436,2026-07-16T00:50:09.796+07:00,837453008497595059,372395,479862,448963,172749
1784137809814408254,2026-07-16T00:50:09.814+07:00,837453008497595059,372354,479862,448925,172771
1784137809832590072,2026-07-16T00:50:09.832+07:00,837453008497595059,372340,479890,448899,172733
1784137809850771890,2026-07-16T00:50:09.850+07:00,837453008497595059,372360,479857,448912,172783
1784137809868953708,2026-07-16T00:50:09.868+07:00,837453008497595059,372329,479880,448928,172795
1784137809887135526,2026-07-16T00:50:09.887+07:00,837453008497595059,372282,479854,448905,172732
1784137809905317344,2026-07-16T00:50:09.905+07:00,837453008497595059,372256,479810,448886,172751
1784137809923499162,2026-07-16T00:50:09.923+07:00,837453008497595059,372241,479885,448859,172752
1784137809941680980,2026-07-16T00:50:09.941+07:00,837453008497595059,372305,479934,448888,172761
1784137809959862798,2026-07-16T00:50:09.959+07:00,837453008497595059,372339,479985,448905,172774
1784137809978044616,2026-07-16T00:50:09.978+07:00,837453008497595059,372305,480021,448935,172749
1784137809996226434,2026-07-16T00:50:09.996+07:00,837453008497595059,372344,480011,448959,172769
1784137810014408252,2026-07-16T00:50:10.014+07:00,837453008497595059,372355,480104,449035,172780
1784137810032590070,2026-07-16T00:50:10.032+07:00,837453008497595059,372327,480080,449000,172728
1784137810050771888,2026-07-16T00:50:10.050+07:00,837453008497595059,372328,480073,448968,172700
1784137810068953706,2026-07-16T00:50:10.068+07:00,837453008497595059,372377,480159,449102,172736
1784137810087135524,2026-07-16T00:50:10.087+07:00,837453008497595059,372394,480221,449172,172784
1784137810105317342,2026-07-16T00:50:10.105+07:00,837453008497595059,372407,480222,449171,172735
1784137810123499160,2026-07-16T00:50:10.123+07:00,837453008497595059,372451,480328,449202,172780
1784137810141680978,2026-07-16T00:50:10.141+07:00,837453008497595059,372416,480282,449197,172735
1784137810159862796,2026-07-16T00:50:10.159+07:00,837453008497595059,372509,480457,449287,172784
1784137810178044614,2026-07-16T00:50:10.178+07:00,837453008497595059,372491,480481,449346,172766
1784137810196226432,2026-07-16T00:50:10.196+07:00,837453008497595059,372503,480531,449337,172746
1784137810214408250,2026-07-16T00:50:10.214+07:00,837453008497595059,372527,480560,449399,172728
1784137810232590068,2026-07-16T00:50:10.232+07:00,837453008497595059,372587,480573,449402,172752
1784137810250771886,2026-07-16T00:50:10.250+07:00,837453008497595059,372623,480689,449472,172741
1784137810268953704,2026-07-16T00:50:10.268+07:00,837453008497595059,372740,480777,449571,172713
1784137810287135522,2026-07-16T00:50:10.287+07:00,837453008497595059,372737,480808,449618,172751
1784137810305317340,2026-07-16T00:50:10.305+07:00,837453008497595059,372716,480830,449611,172675
1784137810323499158,2026-07-16T00:50:10.323+07:00,837453008497595059,372721,480848,449624,172720
1784137810341680976,2026-07-16T00:50:10.341+07:00,837453008497595059,372660,480766,449512,172704
1784137810359862794,2026-07-16T00:50:10.359+07:00,837453008497595059,372581,480749,449477,172721
1784137810378044612,2026-07-16T00:50:10.378+07:00,837453008497595059,372586,480674,449440,172750
1784137810396226430,2026-07-16T00:50:10.396+07:00,837453008497595059,372531,480535,449354,172763
1784137810414408248,2026-07-16T00:50:10.414+07:00,837453008497595059,372426,480404,449284,172792
1784137810432590066,2026-07-16T00:50:10.432+07:00,837453008497595059,372295,480302,449146,172732
1784137810450771884,2026-07-16T00:50:10.450+07:00,837453008497595059,372231,480208,449048,172712
1784137810468953702,2026-07-16T00:50:10.468+07:00,837453008497595059,372150,480065,448939,172706
1784137810487135520,2026-07-16T00:50:10.487+07:00,837453008497595059,372083,480029,448856,172747
1784137810505317338,2026-07-16T00:50:10.505+07:00,837453008497595059,372088,479997,448787,172814
1784137810523499156,2026-07-16T00:50:10.523+07:00,837453008497595059,372003,479981,448771,172787
1784137810541680974,2026-07-16T00:50:10.541+07:00,837453009316431144,372008,479888,448758,172763
1784137810559862792,2026-07-16T00:50:10.559+07:00,837453009316431144,371935,479753,448658,172734
1784137810578044610,2026-07-16T00:50:10.578+07:00,837453009316431144,371874,479748,448666,172702
1784137810596226428,2026-07-16T00:50:10.596+07:00,837453009316431144,371846,479776,448628,172796
1784137810614408246,2026-07-16T00:50:10.614+07:00,837453009316431144,371867,479784,448621,172754
1784137810632590064,2026-07-16T00:50:10.632+07:00,837453009316431144,371868,479785,448637,172753
1784137810650771882,2026-07-16T00:50:10.650+07:00,837453009316431144,371833,479766,448641,172737
1784137810668953700,2026-07-16T00:50:10.668+07:00,837453009316431144,371812,479722,448599,172763
1784137810687135518,2026-07-16T00:50:10.687+07:00,837453009316431144,371759,479674,448530,172680
1784137810705317336,2026-07-16T00:50:10.705+07:00,837453009316431144,371731,479691,448545,172718
1784137810723499154,2026-07-16T00:50:10.723+07:00,837453009316431144,371813,479722,448582,172751
1784137810741680972,2026-07-16T00:50:10.741+07:00,837453009316431144,371744,479715,448567,172709
1784137810759862790,2026-07-16T00:50:10.759+07:00,837453009316431144,371738,479772,448565,172665
1784137810778044608,2026-07-16T00:50:10.778+07:00,837453009316431144,371740,479790,448578,172689
1784137810796226426,2026-07-16T00:50:10.796+07:00,837453009316431144,371776,479833,448719,172709
1784137810814408244,2026-07-16T00:50:10.814+07:00,837453009316431144,371771,479831,448655,172701
1784137810832590062,2026-07-16T00:50:10.832+07:00,837453009316431144,371809,479857,448664,172727
1784137810850771880,2026-07-16T00:50:10.850+07:00,837453009316431144,371852,479916,448716,172785
1784137810868953698,2026-07-16T00:50:10.868+07:00,837453009316431144,371818,479902,448703,172762
1784137810887135516,2026-07-16T00:50:10.887+07:00,837453009316431144,371885,479964,448698,172765
1784137810905317334,2026-07-16T00:50:10.905+07:00,837453009316431144,371935,480012,448792,172730
1784137810923499152,2026-07-16T00:50:10.923+07:00,837453009316431144,371937,480084,448846,172746
1784137810941680970,2026-07-16T00:50:10.941+07:00,837453009316431144,371939,480108,448885,172718
1784137810959862788,2026-07-16T00:50:10.959+07:00,837453009316431144,371959,480166,448952,172802
1784137810978044606,2026-07-16T00:50:10.978+07:00,837453009316431144,372003,480222,448974,172769
1784137810996226424,2026-07-16T00:50:10.996+07:00,837453009316431144,372077,480294,449064,172778
1784137811014408242,2026-07-16T00:50:11.014+07:00,837453009316431144,372025,480330,449104,172797
1784137811032590060,2026-07-16T00:50:11.032+07:00,837453009316431144,372033,480383,449156,172755
1784137811050771878,2026-07-16T00:50:11.050+07:00,837453009316431144,372109,480431,449212,172768
1784137811068953696,2026-07-16T00:50:11.068+07:00,837453009316431144,372079,480443,449241,172740
1784137811087135514,2026-07-16T00:50:11.087+07:00,837453009316431144,372197,480551,449249,172761
1784137811105317332,2026-07-16T00:50:11.105+07:00,837453009316431144,372185,480610,449313,172747
1784137811123499150,2026-07-16T00:50:11.123+07:00,837453009316431144,372280,480668,449361,172742
1784137811141680968,2026-07-16T00:50:11.141+07:00,837453009316431144,372256,480713,449389,172755
1784137811159862786,2026-07-16T00:50:11.159+07:00,837453009316431144,372296,480746,449387,172712
1784137811178044604,2026-07-16T00:50:11.178+07:00,837453009316431144,372328,480756,449428,172768
1784137811196226422,2026-07-16T00:50:11.196+07:00,837453009316431144,372290,480674,449434,172741
1784137811214408240,2026-07-16T00:50:11.214+07:00,837453009316431144,372247,480631,449325,172708
1784137811232590058,2026-07-16T00:50:11.232+07:00,837453009316431144,372203,480533,449252,172742
1784137811250771876,2026-07-16T00:50:11.250+07:00,837453009316431144,372090,480419,449128,172711
1784137811268953694,2026-07-16T00:50:11.268+07:00,837453009316431144,371974,480362,449102,172769
1784137811287135512,2026-07-16T00:50:11.287+07:00,837453009316431144,371930,480220,449005,172758
1784137811305317330,2026-07-16T00:50:11.305+07:00,837453009316431144,371854,480178,448906,172812
1784137811323499148,2026-07-16T00:50:11.323+07:00,837453009316431144,371789,480073,448910,172795
1784137811341680966,2026-07-16T00:50:11.341+07:00,837453009316431144,371734,479982,448739,172720
1784137811359862784,2026-07-16T00:50:11.359+07:00,837453010171659943,371708,479980,448775,172742
1784137811378044602,2026-07-16T00:50:11.378+07:00,837453010171659943,371632,479960,448735,172720
1784137811396226420,2026-07-16T00:50:11.396+07:00,837453010171659943,371614,479901,448669,172763
1784137811414408238,2026-07-16T00:50:11.414+07:00,837453010171659943,371629,479845,448590,172774
1784137811432590056,2026-07-16T00:50:11.432+07:00,837453010171659943,371582,479833,448552,172716
1784137811450771874,2026-07-16T00:50:11.450+07:00,837453010171659943,371514,479859,448583,172764
1784137811468953692,2026-07-16T00:50:11.468+07:00,837453010171659943,371562,479807,448545,172745
1784137811487135510,2026-07-16T00:50:11.487+07:00,837453010171659943,371518,479826,448559,172761
1784137811505317328,2026-07-16T00:50:11.505+07:00,837453010171659943,371548,479751,448496,172743
1784137811523499146,2026-07-16T00:50:11.523+07:00,837453010171659943,371462,479709,448447,172753
1784137811541680964,2026-07-16T00:50:11.541+07:00,837453010171659943,371512,479704,448454,172780
1784137811559862782,2026-07-16T00:50:11.559+07:00,837453010171659943,371514,479794,448578,172777
1784137811578044600,2026-07-16T00:50:11.578+07:00,837453010171659943,371488,479731,448561,172746
1784137811596226418,2026-07-16T00:50:11.596+07:00,837453010171659943,371524,479817,448564,172809
1784137811614408236,2026-07-16T00:50:11.614+07:00,837453010171659943,371468,479799,448531,172777
1784137811632590054,2026-07-16T00:50:11.632+07:00,837453010171659943,371420,479788,448518,172777
1784137811650771872,2026-07-16T00:50:11.650+07:00,837453010171659943,371493,479858,448560,172802
1784137811668953690,2026-07-16T00:50:11.668+07:00,837453010171659943,371575,479862,448632,172771
1784137811687135508,2026-07-16T00:50:11.687+07:00,837453010171659943,371546,479927,448643,172817
1784137811705317326,2026-07-16T00:50:11.705+07:00,837453010171659943,371562,479931,448656,172774
1784137811723499144,2026-07-16T00:50:11.723+07:00,837453010171659943,371593,479914,448634,172749
1784137811741680962,2026-07-16T00:50:11.741+07:00,837453010171659943,371596,479916,448665,172775
1784137811759862780,2026-07-16T00:50:11.759+07:00,837453010171659943,371641,479964,448754,172784
1784137811778044598,2026-07-16T00:50:11.778+07:00,837453010171659943,371577,480015,448738,172695
1784137811796226416,2026-07-16T00:50:11.796+07:00,837453010171659943,371585,479986,448767,172741
1784137811814408234,2026-07-16T00:50:11.814+07:00,837453010171659943,371652,480020,448849,172775
1784137811832590052,2026-07-16T00:50:11.832+07:00,837453010171659943,371666,480130,448856,172715
1784137811850771870,2026-07-16T00:50:11.850+07:00,837453010171659943,371684,480108,448843,172731
1784137811868953688,2026-07-16T00:50:11.868+07:00,837453010171659943,371772,480131,448898,172782
1784137811887135506,2026-07-16T00:50:11.887+07:00,837453010171659943,371741,480118,448912,172772
1784137811905317324,2026-07-16T00:50:11.905+07:00,837453010171659943,371798,480149,448952,172769
1784137811923499142,2026-07-16T00:50:11.923+07:00,837453010171659943,371767,480152,448980,172791
1784137811941680960,2026-07-16T00:50:11.941+07:00,837453010171659943,371757,480127,448873,172744
1784137811959862778,2026-07-16T00:50:11.959+07:00,837453010171659943,371746,480105,448899,172779
1784137811978044596,2026-07-16T00:50:11.978+07:00,837453010171659943,371675,479928,448807,172697
1784137811996226414,2026-07-16T00:50:11.996+07:00,837453010171659943,371585,479893,448728,172728
1784137812014408232,2026-07-16T00:50:12.014+07:00,837453010171659943,371493,479685,448575,172746
1784137812032590050,2026-07-16T00:50:12.032+07:00,837453010171659943,371450,479616,448502,172772
1784137812050771868,2026-07-16T00:50:12.050+07:00,837453010171659943,371332,479468,448370,172754
1784137812068953686,2026-07-16T00:50:12.068+07:00,837453010171659943,371215,479342,448280,172762
1784137812087135504,2026-07-16T00:50:12.087+07:00,837453010171659943,371166,479208,448190,172800
1784137812105317322,2026-07-16T00:50:12.105+07:00,837453010171659943,371118,479139,448170,172817
1784137812123499140,2026-07-16T00:50:12.123+07:00,837453010171659943,371060,479090,448105,172782
1784137812141680958,2026-07-16T00:50:12.141+07:00,837453010171659943,371034,479002,448054,172764
1784137812159862776,2026-07-16T00:50:12.159+07:00,837453010171659943,370942,478879,448044,172759
1784137812178044594,2026-07-16T00:50:12.178+07:00,837453010171659943,370898,478889,447936,172759
1784137812196226412,2026-07-16T00:50:12.196+07:00,837453010171659943,370845,478829,447880,172733
1784137812214408230,2026-07-16T00:50:12.214+07:00,837453010990526556,370746,478767,447823,172733
1784137812232590048,2026-07-16T00:50:12.232+07:00,837453010990526556,370711,478659,447702,172757
1784137812250771866,2026-07-16T00:50:12.250+07:00,837453010990526556,370719,478598,447714,172752
1784137812268953684,2026-07-16T00:50:12.268+07:00,837453010990526556,370697,478534,447657,172803
1784137812287135502,2026-07-16T00:50:12.287+07:00,837453010990526556,370661,478473,447563,172743
1784137812305317320,2026-07-16T00:50:12.305+07:00,837453010990526556,370634,478398,447501,172757
1784137812323499138,2026-07-16T00:50:12.323+07:00,837453010990526556,370625,478418,447488,172781
1784137812341680956,2026-07-16T00:50:12.341+07:00,837453010990526556,370559,478373,447559,172770
1784137812359862774,2026-07-16T00:50:12.359+07:00,837453010990526556,370546,478356,447573,172753
1784137812378044592,2026-07-16T00:50:12.378+07:00,837453010990526556,370496,478314,447534,172781
1784137812396226410,2026-07-16T00:50:12.396+07:00,837453010990526556,370553,478314,447537,172762
1784137812414408228,2026-07-16T00:50:12.414+07:00,837453010990526556,370536,478347,447470,172758
1784137812432590046,2026-07-16T00:50:12.432+07:00,837453010990526556,370504,478305,447454,172806
1784137812450771864,2026-07-16T00:50:12.450+07:00,837453010990526556,370540,478375,447526,172814
1784137812468953682,2026-07-16T00:50:12.468+07:00,837453010990526556,370519,478347,447523,172795
1784137812487135500,2026-07-16T00:50:12.487+07:00,837453010990526556,370527,478273,447527,172791
1784137812505317318,2026-07-16T00:50:12.505+07:00,837453010990526556,370530,478257,447612,172721
1784137812523499136,2026-07-16T00:50:12.523+07:00,837453010990526556,370513,478251,447545,172729
1784137812541680954,2026-07-16T00:50:12.541+07:00,837453010990526556,370547,478297,447577,172783
1784137812559862772,2026-07-16T00:50:12.559+07:00,837453010990526556,370566,478320,447575,172772
1784137812578044590,2026-07-16T00:50:12.578+07:00,837453010990526556,370615,478387,447677,172794
1784137812596226408,2026-07-16T00:50:12.596+07:00,837453010990526556,370576,478467,447669,172768
1784137812614408226,2026-07-16T00:50:12.614+07:00,837453010990526556,370582,478438,447687,172744
1784137812632590044,2026-07-16T00:50:12.632+07:00,837453010990526556,370680,478464,447745,172757
1784137812650771862,2026-07-16T00:50:12.650+07:00,837453010990526556,370629,478543,447737,172742
1784137812668953680,2026-07-16T00:50:12.668+07:00,837453010990526556,370688,478483,447728,172827
1784137812687135498,2026-07-16T00:50:12.687+07:00,837453010990526556,370683,478367,447724,172814
1784137812705317316,2026-07-16T00:50:12.705+07:00,837453010990526556,370546,478290,447618,172783
1784137812723499134,2026-07-16T00:50:12.723+07:00,837453010990526556,370437,478113,447515,172730
1784137812741680952,2026-07-16T00:50:12.741+07:00,837453010990526556,370304,478018,447372,172715
1784137812759862770,2026-07-16T00:50:12.759+07:00,837453010990526556,370197,477771,447238,172707
1784137812778044588,2026-07-16T00:50:12.778+07:00,837453010990526556,370122,477590,447097,172760
1784137812796226406,2026-07-16T00:50:12.796+07:00,837453010990526556,369991,477440,446942,172733
1784137812814408224,2026-07-16T00:50:12.814+07:00,837453010990526556,369898,477324,446873,172751
1784137812832590042,2026-07-16T00:50:12.832+07:00,837453010990526556,369795,477161,446734,172735
1784137812850771860,2026-07-16T00:50:12.850+07:00,837453010990526556,369673,476934,446668,172738
1784137812868953678,2026-07-16T00:50:12.868+07:00,837453010990526556,369584,476771,446521,172747
1784137812887135496,2026-07-16T00:50:12.887+07:00,837453010990526556,369558,476640,446409,172741
1784137812905317314,2026-07-16T00:50:12.905+07:00,837453010990526556,369499,476612,446438,172742
1784137812923499132,2026-07-16T00:50:12.923+07:00,837453010990526556,369403,476477,446242,172737
1784137812941680950,2026-07-16T00:50:12.941+07:00,837453010990526556,369349,476404,446232,172704
1784137812959862768,2026-07-16T00:50:12.959+07:00,837453010990526556,369281,476296,446135,172715
1784137812978044586,2026-07-16T00:50:12.978+07:00,837453010990526556,369237,476217,446097,172800
1784137812996226404,2026-07-16T00:50:12.996+07:00,837453010990526556,369164,476208,446040,172753
1784137813014408222,2026-07-16T00:50:13.014+07:00,837453010990526556,369182,476003,445991,172784
1784137813032590040,2026-07-16T00:50:13.032+07:00,837453011827528480,369115,475961,445939,172760
1784137813050771858,2026-07-16T00:50:13.050+07:00,837453011827528480,369054,475876,445869,172710
1784137813068953676,2026-07-16T00:50:13.068+07:00,837453011827528480,369050,475878,445870,172787
1784137813087135494,2026-07-16T00:50:13.087+07:00,837453011827528480,369031,475818,445818,172726
1784137813105317312,2026-07-16T00:50:13.105+07:00,837453011827528480,369013,475813,445824,172769
1784137813123499130,2026-07-16T00:50:13.123+07:00,837453011827528480,368994,475821,445887,172776
1784137813141680948,2026-07-16T00:50:13.141+07:00,837453011827528480,369003,475740,445860,172764
1784137813159862766,2026-07-16T00:50:13.159+07:00,837453011827528480,368947,475745,445804,172788
1784137813178044584,2026-07-16T00:50:13.178+07:00,837453011827528480,368949,475747,445824,172774
1784137813196226402,2026-07-16T00:50:13.196+07:00,837453011827528480,368900,475673,445786,172736
1784137813214408220,2026-07-16T00:50:13.214+07:00,837453011827528480,368879,475631,445798,172723
1784137813232590038,2026-07-16T00:50:13.232+07:00,837453011827528480,368950,475680,445828,172779
1784137813250771856,2026-07-16T00:50:13.250+07:00,837453011827528480,368866,475690,445818,172712
1784137813268953674,2026-07-16T00:50:13.268+07:00,837453011827528480,368877,475656,445868,172711
1784137813287135492,2026-07-16T00:50:13.287+07:00,837453011827528480,368940,475707,445817,172748
1784137813305317310,2026-07-16T00:50:13.305+07:00,837453011827528480,368972,475728,445900,172754
1784137813323499128,2026-07-16T00:50:13.323+07:00,837453011827528480,368906,475671,445887,172765
1784137813341680946,2026-07-16T00:50:13.341+07:00,837453011827528480,368981,475726,445960,172771
1784137813359862764,2026-07-16T00:50:13.359+07:00,837453011827528480,368976,475745,445916,172766
1784137813378044582,2026-07-16T00:50:13.378+07:00,837453011827528480,368994,475783,445939,172802
1784137813396226400,2026-07-16T00:50:13.396+07:00,837453011827528480,369011,475731,445950,172820
1784137813414408218,2026-07-16T00:50:13.414+07:00,837453011827528480,368903,475635,445832,172737
1784137813432590036,2026-07-16T00:50:13.432+07:00,837453011827528480,368889,475528,445776,172734
1784137813450771854,2026-07-16T00:50:13.450+07:00,837453011827528480,368810,475435,445769,172777
1784137813468953672,2026-07-16T00:50:13.468+07:00,837453011827528480,368666,475267,445618,172758
1784137813487135490,2026-07-16T00:50:13.487+07:00,837453011827528480,368503,474972,445474,172725
1784137813505317308,2026-07-16T00:50:13.505+07:00,837453011827528480,368460,474888,445341,172758
1784137813523499126,2026-07-16T00:50:13.523+07:00,837453011827528480,368367,474687,445194,172803
1784137813541680944,2026-07-16T00:50:13.541+07:00,837453011827528480,368227,474537,445143,172781
1784137813559862762,2026-07-16T00:50:13.559+07:00,837453011827528480,368078,474320,444912,172695
1784137813578044580,2026-07-16T00:50:13.578+07:00,837453011827528480,367997,474145,444794,172728
1784137813596226398,2026-07-16T00:50:13.596+07:00,837453011827528480,367932,474016,444705,172748
1784137813614408216,2026-07-16T00:50:13.614+07:00,837453011827528480,367863,473847,444655,172757
1784137813632590034,2026-07-16T00:50:13.632+07:00,837453011827528480,367722,473734,444533,172735
1784137813650771852,2026-07-16T00:50:13.650+07:00,837453011827528480,367682,473672,444468,172714
1784137813668953670,2026-07-16T00:50:13.668+07:00,837453011827528480,367677,473611,444415,172719
1784137813687135488,2026-07-16T00:50:13.687+07:00,837453011827528480,367633,473531,444400,172794
1784137813705317306,2026-07-16T00:50:13.705+07:00,837453011827528480,367578,473509,444322,172761
1784137813723499124,2026-07-16T00:50:13.723+07:00,837453011827528480,367582,473468,444338,172794
1784137813741680942,2026-07-16T00:50:13.741+07:00,837453011827528480,367577,473351,444261,172764
1784137813759862760,2026-07-16T00:50:13.759+07:00,837453011827528480,367505,473272,444225,172764
1784137813778044578,2026-07-16T00:50:13.778+07:00,837453011827528480,367493,473314,444249,172766
1784137813796226396,2026-07-16T00:50:13.796+07:00,837453011827528480,367451,473247,444215,172769
1784137813814408214,2026-07-16T00:50:13.814+07:00,837453011827528480,367428,473173,444203,172718
1784137813832590032,2026-07-16T00:50:13.832+07:00,837453011827528480,367450,473226,444274,172797
1784137813850771850,2026-07-16T00:50:13.850+07:00,837453011827528480,367373,473154,444166,172759
1784137813868953668,2026-07-16T00:50:13.868+07:00,837453012628152948,367398,473165,444203,172771
1784137813887135486,2026-07-16T00:50:13.887+07:00,837453012628152948,367312,473110,444129,172772
1784137813905317304,2026-07-16T00:50:13.905+07:00,837453012628152948,367333,473113,444198,172719
1784137813923499122,2026-07-16T00:50:13.923+07:00,837453012628152948,367311,473168,444196,172734
1784137813941680940,2026-07-16T00:50:13.941+07:00,837453012628152948,367411,473249,444241,172833
1784137813959862758,2026-07-16T00:50:13.959+07:00,837453012628152948,367399,473200,444247,172743
1784137813978044576,2026-07-16T00:50:13.978+07:00,837453012628152948,367423,473135,444268,172763
1784137813996226394,2026-07-16T00:50:13.996+07:00,837453012628152948,367406,473211,444316,172762
1784137814014408212,2026-07-16T00:50:14.014+07:00,837453012628152948,367417,473245,444294,172738
1784137814032590030,2026-07-16T00:50:14.032+07:00,837453012628152948,367478,473247,444370,172702
1784137814050771848,2026-07-16T00:50:14.050+07:00,837453012628152948,367502,473311,444354,172724
1784137814068953666,2026-07-16T00:50:14.068+07:00,837453012628152948,367521,473331,444410,172781
1784137814087135484,2026-07-16T00:50:14.087+07:00,837453012628152948,367506,473304,444397,172730
1784137814105317302,2026-07-16T00:50:14.105+07:00,837453012628152948,367522,473349,444497,172740
1784137814123499120,2026-07-16T00:50:14.123+07:00,837453012628152948,367556,473445,444554,172789
1784137814141680938,2026-07-16T00:50:14.141+07:00,837453012628152948,367565,473490,444552,172741
1784137814159862756,2026-07-16T00:50:14.159+07:00,837453012628152948,367656,473520,444628,172683
1784137814178044574,2026-07-16T00:50:14.178+07:00,837453012628152948,367622,473540,444618,172689
1784137814196226392,2026-07-16T00:50:14.196+07:00,837453012628152948,367565,473486,444547,172775
1784137814214408210,2026-07-16T00:50:14.214+07:00,837453012628152948,367601,473446,444542,172798
1784137814232590028,2026-07-16T00:50:14.232+07:00,837453012628152948,367495,473318,444492,172761
1784137814250771846,2026-07-16T00:50:14.250+07:00,837453012628152948,367391,473129,444330,172747
1784137814268953664,2026-07-16T00:50:14.268+07:00,837453012628152948,367299,472992,444216,172759
1784137814287135482,2026-07-16T00:50:14.287+07:00,837453012628152948,367164,472861,444099,172752
1784137814305317300,2026-07-16T00:50:14.305+07:00,837453012628152948,366999,472644,443918,172778
1784137814323499118,2026-07-16T00:50:14.323+07:00,837453012628152948,366963,472521,443884,172772
1784137814341680936,2026-07-16T00:50:14.341+07:00,837453012628152948,366874,472375,443714,172774
1784137814359862754,2026-07-16T00:50:14.359+07:00,837453012628152948,366806,472221,443610,172791
1784137814378044572,2026-07-16T00:50:14.378+07:00,837453012628152948,366678,471999,443485,172793
1784137814396226390,2026-07-16T00:50:14.396+07:00,837453012628152948,366632,471922,443423,172801
1784137814414408208,2026-07-16T00:50:14.414+07:00,837453012628152948,366597,471856,443375,172801
1784137814432590026,2026-07-16T00:50:14.432+07:00,837453012628152948,366537,471769,443300,172749
1784137814450771844,2026-07-16T00:50:14.450+07:00,837453012628152948,366528,471709,443270,172708
1784137814468953662,2026-07-16T00:50:14.468+07:00,837453012628152948,366505,471744,443263,172791
1784137814487135480,2026-07-16T00:50:14.487+07:00,837453012628152948,366492,471697,443258,172796
1784137814505317298,2026-07-16T00:50:14.505+07:00,837453012628152948,366384,471648,443131,172760
1784137814523499116,2026-07-16T00:50:14.523+07:00,837453012628152948,366437,471621,443164,172751
1784137814541680934,2026-07-16T00:50:14.541+07:00,837453012628152948,366418,471522,443154,172783
1784137814559862752,2026-07-16T00:50:14.559+07:00,837453012628152948,366377,471528,443108,172763
1784137814578044570,2026-07-16T00:50:14.578+07:00,837453012628152948,366322,471540,443119,172815
1784137814596226388,2026-07-16T00:50:14.596+07:00,837453012628152948,366381,471530,443137,172794
1784137814614408206,2026-07-16T00:50:14.614+07:00,837453012628152948,366329,471465,443089,172770
1784137814632590024,2026-07-16T00:50:14.632+07:00,837453012628152948,366298,471506,443103,172734
1784137814650771842,2026-07-16T00:50:14.650+07:00,837453012628152948,366352,471493,443154,172797
1784137814668953660,2026-07-16T00:50:14.668+07:00,837453013392354186,366349,471525,443164,172789
1784137814687135478,2026-07-16T00:50:14.687+07:00,837453013392354186,366407,471545,443199,172828
1784137814705317296,2026-07-16T00:50:14.705+07:00,837453013392354186,366422,471645,443238,172799
1784137814723499114,2026-07-16T00:50:14.723+07:00,837453013392354186,366414,471614,443339,172792
1784137814741680932,2026-07-16T00:50:14.741+07:00,837453013392354186,366443,471601,443325,172745
1784137814759862750,2026-07-16T00:50:14.759+07:00,837453013392354186,366438,471658,443359,172754
1784137814778044568,2026-07-16T00:50:14.778+07:00,837453013392354186,366490,471698,443405,172815
1784137814796226386,2026-07-16T00:50:14.796+07:00,837453013392354186,366476,471780,443435,172717
1784137814814408204,2026-07-16T00:50:14.814+07:00,837453013392354186,366487,471829,443464,172774
1784137814832590022,2026-07-16T00:50:14.832+07:00,837453013392354186,366572,471959,443513,172767
1784137814850771840,2026-07-16T00:50:14.850+07:00,837453013392354186,366694,472097,443647,172792
1784137814868953658,2026-07-16T00:50:14.868+07:00,837453013392354186,366663,472014,443615,172736
1784137814887135476,2026-07-16T00:50:14.887+07:00,837453013392354186,366730,472130,443691,172803
1784137814905317294,2026-07-16T00:50:14.905+07:00,837453013392354186,366750,472172,443708,172749
1784137814923499112,2026-07-16T00:50:14.923+07:00,837453013392354186,366793,472259,443829,172763
1784137814941680930,2026-07-16T00:50:14.941+07:00,837453013392354186,366868,472284,443868,172765
1784137814959862748,2026-07-16T00:50:14.959+07:00,837453013392354186,366931,472446,443953,172753
1784137814978044566,2026-07-16T00:50:14.978+07:00,837453013392354186,366932,472484,443917,172792
1784137814996226384,2026-07-16T00:50:14.996+07:00,837453013392354186,367012,472533,444013,172789
1784137815014408202,2026-07-16T00:50:15.014+07:00,837453013392354186,367053,472583,444086,172755
1784137815032590020,2026-07-16T00:50:15.032+07:00,837453013392354186,367124,472691,444094,172775
1784137815050771838,2026-07-16T00:50:15.050+07:00,837453013392354186,367144,472646,444148,172735
1784137815068953656,2026-07-16T00:50:15.068+07:00,837453013392354186,367070,472641,444098,172721
1784137815087135474,2026-07-16T00:50:15.087+07:00,837453013392354186,367087,472666,444137,172841
1784137815105317292,2026-07-16T00:50:15.105+07:00,837453013392354186,366975,472484,444013,172780
1784137815123499110,2026-07-16T00:50:15.123+07:00,837453013392354186,366925,472519,444014,172770
1784137815141680928,2026-07-16T00:50:15.141+07:00,837453013392354186,366839,472324,443844,172794
1784137815159862746,2026-07-16T00:50:15.159+07:00,837453013392354186,366746,472188,443712,172794
1784137815178044564,2026-07-16T00:50:15.178+07:00,837453013392354186,366628,472061,443673,172831
1784137815196226382,2026-07-16T00:50:15.196+07:00,837453013392354186,366659,472044,443591,172820
1784137815214408200,2026-07-16T00:50:15.214+07:00,837453013392354186,366541,471858,443434,172788
1784137815232590018,2026-07-16T00:50:15.232+07:00,837453013392354186,366469,471766,443383,172784
1784137815250771836,2026-07-16T00:50:15.250+07:00,837453013392354186,366451,471700,443315,172767
1784137815268953654,2026-07-16T00:50:15.268+07:00,837453013392354186,366358,471665,443272,172741
1784137815287135472,2026-07-16T00:50:15.287+07:00,837453013392354186,366366,471677,443280,172748
1784137815305317290,2026-07-16T00:50:15.305+07:00,837453013392354186,366333,471668,443244,172779
1784137815323499108,2026-07-16T00:50:15.323+07:00,837453013392354186,366359,471648,443202,172755
1784137815341680926,2026-07-16T00:50:15.341+07:00,837453013392354186,366360,471616,443207,172817
1784137815359862744,2026-07-16T00:50:15.359+07:00,837453013392354186,366372,471637,443232,172824
1784137815378044562,2026-07-16T00:50:15.378+07:00,837453013392354186,366305,471598,443219,172806
1784137815396226380,2026-07-16T00:50:15.396+07:00,837453013392354186,366275,471556,443170,172728
1784137815414408198,2026-07-16T00:50:15.414+07:00,837453013392354186,366316,471620,443227,172767
1784137815432590016,2026-07-16T00:50:15.432+07:00,837453014174774667,366317,471593,443224,172784
1784137815450771834,2026-07-16T00:50:15.450+07:00,837453014174774667,366329,471664,443213,172749
1784137815468953652,2026-07-16T00:50:15.468+07:00,837453014174774667,366374,471648,443286,172753
1784137815487135470,2026-07-16T00:50:15.487+07:00,837453014174774667,366426,471717,443289,172758
1784137815505317288,2026-07-16T00:50:15.505+07:00,837453014174774667,366448,471771,443362,172759
1784137815523499106,2026-07-16T00:50:15.523+07:00,837453014174774667,366391,471856,443336,172746
1784137815541680924,2026-07-16T00:50:15.541+07:00,837453014174774667,366466,471883,443367,172698
1784137815559862742,2026-07-16T00:50:15.559+07:00,837453014174774667,366560,471961,443421,172787
1784137815578044560,2026-07-16T00:50:15.578+07:00,837453014174774667,366573,472009,443483,172774
1784137815596226378,2026-07-16T00:50:15.596+07:00,837453014174774667,366605,472023,443506,172748
1784137815614408196,2026-07-16T00:50:15.614+07:00,837453014174774667,366615,472090,443591,172793
1784137815632590014,2026-07-16T00:50:15.632+07:00,837453014174774667,366663,472239,443602,172809
1784137815650771832,2026-07-16T00:50:15.650+07:00,837453014174774667,366760,472284,443708,172834
1784137815668953650,2026-07-16T00:50:15.668+07:00,837453014174774667,366800,472355,443756,172768
1784137815687135468,2026-07-16T00:50:15.687+07:00,837453014174774667,366816,472410,443792,172795
1784137815705317286,2026-07-16T00:50:15.705+07:00,837453014174774667,366884,472528,443917,172813
1784137815723499104,2026-07-16T00:50:15.723+07:00,837453014174774667,366900,472620,443962,172772
1784137815741680922,2026-07-16T00:50:15.741+07:00,837453014174774667,366978,472758,444107,172794
1784137815759862740,2026-07-16T00:50:15.759+07:00,837453014174774667,367063,472870,444185,172774
1784137815778044558,2026-07-16T00:50:15.778+07:00,837453014174774667,367058,472867,444211,172782
1784137815796226376,2026-07-16T00:50:15.796+07:00,837453014174774667,367138,472947,444260,172776
1784137815814408194,2026-07-16T00:50:15.814+07:00,837453014174774667,367154,473019,444300,172734
1784137815832590012,2026-07-16T00:50:15.832+07:00,837453014174774667,367249,473077,444375,172764
1784137815850771830,2026-07-16T00:50:15.850+07:00,837453014174774667,367366,473213,444434,172760
1784137815868953648,2026-07-16T00:50:15.868+07:00,837453014174774667,367392,473348,444543,172750
1784137815887135466,2026-07-16T00:50:15.887+07:00,837453014174774667,367440,473462,444576,172710
1784137815905317284,2026-07-16T00:50:15.905+07:00,837453014174774667,367482,473550,444678,172768
1784137815923499102,2026-07-16T00:50:15.923+07:00,837453014174774667,367512,473627,444712,172772
1784137815941680920,2026-07-16T00:50:15.941+07:00,837453014174774667,367578,473708,444778,172809
1784137815959862738,2026-07-16T00:50:15.959+07:00,837453014174774667,367488,473580,444650,172746
1784137815978044556,2026-07-16T00:50:15.978+07:00,837453014174774667,367418,473532,444543,172728
1784137815996226374,2026-07-16T00:50:15.996+07:00,837453014174774667,367340,473474,444503,172714
1784137816014408192,2026-07-16T00:50:16.014+07:00,837453014174774667,367318,473401,444437,172778
1784137816032590010,2026-07-16T00:50:16.032+07:00,837453014174774667,367261,473337,444358,172749
1784137816050771828,2026-07-16T00:50:16.050+07:00,837453014174774667,367213,473292,444260,172757
1784137816068953646,2026-07-16T00:50:16.068+07:00,837453014174774667,367191,473234,444218,172778
1784137816087135464,2026-07-16T00:50:16.087+07:00,837453014174774667,367078,473222,444108,172719
1784137816105317282,2026-07-16T00:50:16.105+07:00,837453014174774667,367026,473156,444112,172775
1784137816123499100,2026-07-16T00:50:16.123+07:00,837453014174774667,366994,473114,444065,172774
1784137816141680918,2026-07-16T00:50:16.141+07:00,837453014174774667,367057,473117,444064,172789
1784137816159862736,2026-07-16T00:50:16.159+07:00,837453014174774667,367074,473117,444029,172819
1784137816178044554,2026-07-16T00:50:16.178+07:00,837453014174774667,367022,473092,444042,172815
1784137816196226372,2026-07-16T00:50:16.196+07:00,837453014174774667,367023,473146,444083,172834
1784137816214408190,2026-07-16T00:50:16.214+07:00,837453014938988111,366991,473101,444022,172700
1784137816232590008,2026-07-16T00:50:16.232+07:00,837453014938988111,367053,473149,444065,172787
1784137816250771826,2026-07-16T00:50:16.250+07:00,837453014938988111,367026,473175,444023,172778
1784137816268953644,2026-07-16T00:50:16.268+07:00,837453014938988111,367050,473187,444011,172741
1784137816287135462,2026-07-16T00:50:16.287+07:00,837453014938988111,367074,473241,444077,172780
1784137816305317280,2026-07-16T00:50:16.305+07:00,837453014938988111,367059,473216,444070,172747
1784137816323499098,2026-07-16T00:50:16.323+07:00,837453014938988111,367095,473360,444129,172796
1784137816341680916,2026-07-16T00:50:16.341+07:00,837453014938988111,367092,473326,444184,172783
1784137816359862734,2026-07-16T00:50:16.359+07:00,837453014938988111,367145,473408,444226,172826
1784137816378044552,2026-07-16T00:50:16.378+07:00,837453014938988111,367162,473467,444222,172786
1784137816396226370,2026-07-16T00:50:16.396+07:00,837453014938988111,367208,473477,444219,172783
1784137816414408188,2026-07-16T00:50:16.414+07:00,837453014938988111,367234,473545,444232,172689
1784137816432590006,2026-07-16T00:50:16.432+07:00,837453014938988111,367263,473633,444319,172735
1784137816450771824,2026-07-16T00:50:16.450+07:00,837453014938988111,367287,473674,444383,172768
1784137816468953642,2026-07-16T00:50:16.468+07:00,837453014938988111,367428,473794,444434,172746
1784137816487135460,2026-07-16T00:50:16.487+07:00,837453014938988111,367445,473843,444522,172751
1784137816505317278,2026-07-16T00:50:16.505+07:00,837453014938988111,367470,473948,444569,172801
1784137816523499096,2026-07-16T00:50:16.523+07:00,837453014938988111,367516,473979,444578,172748
1784137816541680914,2026-07-16T00:50:16.541+07:00,837453014938988111,367520,474071,444680,172758
1784137816559862732,2026-07-16T00:50:16.559+07:00,837453014938988111,367539,474143,444725,172736
1784137816578044550,2026-07-16T00:50:16.578+07:00,837453014938988111,367615,474283,444782,172800
1784137816596226368,2026-07-16T00:50:16.596+07:00,837453014938988111,367625,474343,444841,172752
1784137816614408186,2026-07-16T00:50:16.614+07:00,837453014938988111,367717,474389,444851,172754
1784137816632590004,2026-07-16T00:50:16.632+07:00,837453014938988111,367742,474457,444896,172735
1784137816650771822,2026-07-16T00:50:16.650+07:00,837453014938988111,367807,474563,444961,172742
1784137816668953640,2026-07-16T00:50:16.668+07:00,837453014938988111,367834,474624,445033,172794
1784137816687135458,2026-07-16T00:50:16.687+07:00,837453014938988111,367895,474755,445149,172787
1784137816705317276,2026-07-16T00:50:16.705+07:00,837453014938988111,367942,474771,445194,172770
1784137816723499094,2026-07-16T00:50:16.723+07:00,837453014938988111,368006,474971,445316,172782
1784137816741680912,2026-07-16T00:50:16.741+07:00,837453014938988111,368026,474980,445317,172754
1784137816759862730,2026-07-16T00:50:16.759+07:00,837453014938988111,368023,475056,445380,172792
1784137816778044548,2026-07-16T00:50:16.778+07:00,837453014938988111,368058,475038,445419,172785
1784137816796226366,2026-07-16T00:50:16.796+07:00,837453014938988111,368032,475077,445305,172724
1784137816814408184,2026-07-16T00:50:16.814+07:00,837453014938988111,368032,474994,445283,172742
1784137816832590002,2026-07-16T00:50:16.832+07:00,837453014938988111,368012,474986,445232,172786
1784137816850771820,2026-07-16T00:50:16.850+07:00,837453014938988111,367946,474896,445087,172745
1784137816868953638,2026-07-16T00:50:16.868+07:00,837453014938988111,367929,474870,445072,172728
1784137816887135456,2026-07-16T00:50:16.887+07:00,837453014938988111,367809,474789,445003,172710
1784137816905317274,2026-07-16T00:50:16.905+07:00,837453014938988111,367760,474736,444942,172708
1784137816923499092,2026-07-16T00:50:16.923+07:00,837453014938988111,367774,474750,444913,172769
1784137816941680910,2026-07-16T00:50:16.941+07:00,837453014938988111,367719,474683,444896,172827
1784137816959862728,2026-07-16T00:50:16.959+07:00,837453014938988111,367680,474688,444837,172750
1784137816978044546,2026-07-16T00:50:16.978+07:00,837453015775980891,367677,474672,444803,172743
1784137816996226364,2026-07-16T00:50:16.996+07:00,837453015775980891,367748,474762,444845,172838
1784137817014408182,2026-07-16T00:50:17.014+07:00,837453015775980891,367721,474764,444831,172792
1784137817032590000,2026-07-16T00:50:17.032+07:00,837453015775980891,367783,474802,444816,172798
1784137817050771818,2026-07-16T00:50:17.050+07:00,837453015775980891,367726,474823,444798,172785
1784137817068953636,2026-07-16T00:50:17.068+07:00,837453015775980891,367711,474824,444833,172758
1784137817087135454,2026-07-16T00:50:17.087+07:00,837453015775980891,367753,474852,444875,172721
1784137817105317272,2026-07-16T00:50:17.105+07:00,837453015775980891,367769,474873,444871,172776
1784137817123499090,2026-07-16T00:50:17.123+07:00,837453015775980891,367775,474923,444849,172718
1784137817141680908,2026-07-16T00:50:17.141+07:00,837453015775980891,367782,474975,444907,172832
1784137817159862726,2026-07-16T00:50:17.159+07:00,837453015775980891,367791,474960,444890,172762
1784137817178044544,2026-07-16T00:50:17.178+07:00,837453015775980891,367813,475063,444927,172806
1784137817196226362,2026-07-16T00:50:17.196+07:00,837453015775980891,367873,475161,444993,172755
1784137817214408180,2026-07-16T00:50:17.214+07:00,837453015775980891,367897,475095,444985,172813
1784137817232589998,2026-07-16T00:50:17.232+07:00,837453015775980891,367923,475170,445063,172816
1784137817250771816,2026-07-16T00:50:17.250+07:00,837453015775980891,367983,475273,445043,172811
1784137817268953634,2026-07-16T00:50:17.268+07:00,837453015775980891,368060,475388,445117,172838
1784137817287135452,2026-07-16T00:50:17.287+07:00,837453015775980891,368061,475433,445229,172813
1784137817305317270,2026-07-16T00:50:17.305+07:00,837453015775980891,368143,475519,445271,172831
1784137817323499088,2026-07-16T00:50:17.323+07:00,837453015775980891,368162,475563,445315,172797
1784137817341680906,2026-07-16T00:50:17.341+07:00,837453015775980891,368158,475613,445334,172745
1784137817359862724,2026-07-16T00:50:17.359+07:00,837453015775980891,368199,475710,445303,172732
1784137817378044542,2026-07-16T00:50:17.378+07:00,837453015775980891,368206,475708,445339,172726
1784137817396226360,2026-07-16T00:50:17.396+07:00,837453015775980891,368332,475773,445473,172787
1784137817414408178,2026-07-16T00:50:17.414+07:00,837453015775980891,368329,475831,445479,172732
1784137817432589996,2026-07-16T00:50:17.432+07:00,837453015775980891,368365,475944,445588,172792
1784137817450771814,2026-07-16T00:50:17.450+07:00,837453015775980891,368435,476091,445700,172779
1784137817468953632,2026-07-16T00:50:17.468+07:00,837453015775980891,368481,476161,445703,172725
1784137817487135450,2026-07-16T00:50:17.487+07:00,837453015775980891,368541,476267,445757,172769
1784137817505317268,2026-07-16T00:50:17.505+07:00,837453015775980891,368579,476282,445809,172791
1784137817523499086,2026-07-16T00:50:17.523+07:00,837453015775980891,368662,476351,445898,172794
1784137817541680904,2026-07-16T00:50:17.541+07:00,837453015775980891,368722,476530,445945,172729
1784137817559862722,2026-07-16T00:50:17.559+07:00,837453015775980891,368766,476546,445983,172794
1784137817578044540,2026-07-16T00:50:17.578+07:00,837453015775980891,368730,476624,446010,172737
1784137817596226358,2026-07-16T00:50:17.596+07:00,837453015775980891,368749,476623,446022,172701
1784137817614408176,2026-07-16T00:50:17.614+07:00,837453015775980891,368803,476653,446078,172762
1784137817632589994,2026-07-16T00:50:17.632+07:00,837453015775980891,368752,476558,445963,172706
1784137817650771812,2026-07-16T00:50:17.650+07:00,837453015775980891,368677,476504,445899,172750
1784137817668953630,2026-07-16T00:50:17.668+07:00,837453015775980891,368674,476449,445908,172824
1784137817687135448,2026-07-16T00:50:17.687+07:00,837453015775980891,368576,476426,445797,172768
1784137817705317266,2026-07-16T00:50:17.705+07:00,837453015775980891,368503,476377,445711,172782
1784137817723499084,2026-07-16T00:50:17.723+07:00,837453015775980891,368478,476317,445572,172769
1784137817741680902,2026-07-16T00:50:17.741+07:00,837453015775980891,368402,476256,445573,172754
1784137817759862720,2026-07-16T00:50:17.759+07:00,837453015775980891,368377,476191,445489,172755
1784137817778044538,2026-07-16T00:50:17.778+07:00,837453015775980891,368348,476169,445489,172794
1784137817796226356,2026-07-16T00:50:17.796+07:00,837453015775980891,368373,476222,445510,172805
1784137817814408174,2026-07-16T00:50:17.814+07:00,837453016576564161,368456,476260,445463,172766
1784137817832589992,2026-07-16T00:50:17.832+07:00,837453016576564161,368350,476167,445444,172757
1784137817850771810,2026-07-16T00:50:17.850+07:00,837453016576564161,368379,476216,445465,172785
1784137817868953628,2026-07-16T00:50:17.868+07:00,837453016576564161,368386,476199,445461,172754
1784137817887135446,2026-07-16T00:50:17.887+07:00,837453016576564161,368360,476231,445456,172801
1784137817905317264,2026-07-16T00:50:17.905+07:00,837453016576564161,368372,476279,445439,172768
1784137817923499082,2026-07-16T00:50:17.923+07:00,837453016576564161,368393,476271,445438,172744
1784137817941680900,2026-07-16T00:50:17.941+07:00,837453016576564161,368390,476267,445454,172743
1784137817959862718,2026-07-16T00:50:17.959+07:00,837453016576564161,368345,476290,445486,172774
1784137817978044536,2026-07-16T00:50:17.978+07:00,837453016576564161,368364,476319,445487,172759
1784137817996226354,2026-07-16T00:50:17.996+07:00,837453016576564161,368426,476304,445495,172770
1784137818014408172,2026-07-16T00:50:18.014+07:00,837453016576564161,368452,476347,445527,172748
1784137818032589990,2026-07-16T00:50:18.032+07:00,837453016576564161,368466,476419,445519,172758
1784137818050771808,2026-07-16T00:50:18.050+07:00,837453016576564161,368512,476485,445640,172753
1784137818068953626,2026-07-16T00:50:18.068+07:00,837453016576564161,368569,476567,445624,172734
1784137818087135444,2026-07-16T00:50:18.087+07:00,837453016576564161,368614,476589,445625,172749
1784137818105317262,2026-07-16T00:50:18.105+07:00,837453016576564161,368635,476646,445747,172770
1784137818123499080,2026-07-16T00:50:18.123+07:00,837453016576564161,368636,476700,445723,172753
1784137818141680898,2026-07-16T00:50:18.141+07:00,837453016576564161,368674,476705,445759,172741
1784137818159862716,2026-07-16T00:50:18.159+07:00,837453016576564161,368715,476768,445772,172741
1784137818178044534,2026-07-16T00:50:18.178+07:00,837453016576564161,368798,476834,445829,172742
1784137818196226352,2026-07-16T00:50:18.196+07:00,837453016576564161,368762,476968,445873,172724
1784137818214408170,2026-07-16T00:50:18.214+07:00,837453016576564161,368793,477001,445923,172710
1784137818232589988,2026-07-16T00:50:18.232+07:00,837453016576564161,368872,477101,446011,172760
1784137818250771806,2026-07-16T00:50:18.250+07:00,837453016576564161,368913,477144,446070,172772
1784137818268953624,2026-07-16T00:50:18.268+07:00,837453016576564161,368905,477182,446129,172709
1784137818287135442,2026-07-16T00:50:18.287+07:00,837453016576564161,369006,477244,446191,172728
1784137818305317260,2026-07-16T00:50:18.305+07:00,837453016576564161,369048,477378,446261,172761
1784137818323499078,2026-07-16T00:50:18.323+07:00,837453016576564161,369055,477360,446201,172713
1784137818341680896,2026-07-16T00:50:18.341+07:00,837453016576564161,369104,477453,446306,172712
1784137818359862714,2026-07-16T00:50:18.359+07:00,837453016576564161,369084,477440,446308,172736
1784137818378044532,2026-07-16T00:50:18.378+07:00,837453016576564161,369124,477439,446305,172746
1784137818396226350,2026-07-16T00:50:18.396+07:00,837453016576564161,369044,477415,446247,172783
1784137818414408168,2026-07-16T00:50:18.414+07:00,837453016576564161,369039,477323,446136,172816
1784137818432589986,2026-07-16T00:50:18.432+07:00,837453016576564161,368991,477282,446070,172791
1784137818450771804,2026-07-16T00:50:18.450+07:00,837453016576564161,368861,477115,445933,172751
1784137818468953622,2026-07-16T00:50:18.468+07:00,837453016576564161,368846,477013,445822,172768
1784137818487135440,2026-07-16T00:50:18.487+07:00,837453016576564161,368840,477027,445724,172758
1784137818505317258,2026-07-16T00:50:18.505+07:00,837453016576564161,368694,476871,445685,172785
1784137818523499076,2026-07-16T00:50:18.523+07:00,837453016576564161,368622,476819,445598,172727
1784137818541680894,2026-07-16T00:50:18.541+07:00,837453016576564161,368517,476794,445555,172686
1784137818559862712,2026-07-16T00:50:18.559+07:00,837453016576564161,368568,476802,445543,172731
1784137818578044530,2026-07-16T00:50:18.578+07:00,837453016576564161,368611,476709,445538,172740
1784137818596226348,2026-07-16T00:50:18.596+07:00,837453016576564161,368490,476713,445434,172718
1784137818614408166,2026-07-16T00:50:18.614+07:00,837453017449966427,368439,476716,445476,172761
1784137818632589984,2026-07-16T00:50:18.632+07:00,837453017449966427,368444,476678,445404,172805
1784137818650771802,2026-07-16T00:50:18.650+07:00,837453017449966427,368413,476655,445423,172814
1784137818668953620,2026-07-16T00:50:18.668+07:00,837453017449966427,368470,476640,445367,172811
1784137818687135438,2026-07-16T00:50:18.687+07:00,837453017449966427,368420,476584,445341,172793
1784137818705317256,2026-07-16T00:50:18.705+07:00,837453017449966427,368417,476623,445290,172781
1784137818723499074,2026-07-16T00:50:18.723+07:00,837453017449966427,368474,476582,445365,172803
1784137818741680892,2026-07-16T00:50:18.741+07:00,837453017449966427,368396,476516,445289,172737
1784137818759862710,2026-07-16T00:50:18.759+07:00,837453017449966427,368411,476547,445287,172724
1784137818778044528,2026-07-16T00:50:18.778+07:00,837453017449966427,368440,476620,445354,172743
1784137818796226346,2026-07-16T00:50:18.796+07:00,837453017449966427,368431,476610,445337,172717
1784137818814408164,2026-07-16T00:50:18.814+07:00,837453017449966427,368417,476638,445372,172728
1784137818832589982,2026-07-16T00:50:18.832+07:00,837453017449966427,368494,476718,445406,172776
1784137818850771800,2026-07-16T00:50:18.850+07:00,837453017449966427,368500,476692,445337,172731
1784137818868953618,2026-07-16T00:50:18.868+07:00,837453017449966427,368452,476707,445410,172698
1784137818887135436,2026-07-16T00:50:18.887+07:00,837453017449966427,368507,476735,445454,172704
1784137818905317254,2026-07-16T00:50:18.905+07:00,837453017449966427,368538,476746,445550,172728
1784137818923499072,2026-07-16T00:50:18.923+07:00,837453017449966427,368519,476801,445562,172719
1784137818941680890,2026-07-16T00:50:18.941+07:00,837453017449966427,368611,476914,445604,172752
1784137818959862708,2026-07-16T00:50:18.959+07:00,837453017449966427,368623,476867,445583,172714
1784137818978044526,2026-07-16T00:50:18.978+07:00,837453017449966427,368638,476881,445608,172743
1784137818996226344,2026-07-16T00:50:18.996+07:00,837453017449966427,368716,476921,445628,172691
1784137819014408162,2026-07-16T00:50:19.014+07:00,837453017449966427,368715,476972,445687,172692
1784137819032589980,2026-07-16T00:50:19.032+07:00,837453017449966427,368756,477025,445755,172731
1784137819050771798,2026-07-16T00:50:19.050+07:00,837453017449966427,368784,477126,445796,172710
1784137819068953616,2026-07-16T00:50:19.068+07:00,837453017449966427,368814,477133,445820,172674
1784137819087135434,2026-07-16T00:50:19.087+07:00,837453017449966427,368910,477165,445909,172695
1784137819105317252,2026-07-16T00:50:19.105+07:00,837453017449966427,368902,477235,445983,172713
1784137819123499070,2026-07-16T00:50:19.123+07:00,837453017449966427,368959,477245,445975,172750
1784137819141680888,2026-07-16T00:50:19.141+07:00,837453017449966427,369055,477314,446051,172715
1784137819159862706,2026-07-16T00:50:19.159+07:00,837453017449966427,369020,477368,446058,172736
1784137819178044524,2026-07-16T00:50:19.178+07:00,837453017449966427,368985,477415,446047,172775
1784137819196226342,2026-07-16T00:50:19.196+07:00,837453017449966427,368985,477307,445980,172755
1784137819214408160,2026-07-16T00:50:19.214+07:00,837453017449966427,368859,477193,445878,172733
1784137819232589978,2026-07-16T00:50:19.232+07:00,837453017449966427,368774,477101,445837,172803
1784137819250771796,2026-07-16T00:50:19.250+07:00,837453017449966427,368755,476950,445667,172769
1784137819268953614,2026-07-16T00:50:19.268+07:00,837453017449966427,368606,476705,445471,172752
1784137819287135432,2026-07-16T00:50:19.287+07:00,837453017449966427,368529,476658,445428,172724
1784137819305317250,2026-07-16T00:50:19.305+07:00,837453017449966427,368365,476514,445331,172721
1784137819323499068,2026-07-16T00:50:19.323+07:00,837453017449966427,368338,476369,445204,172695
1784137819341680886,2026-07-16T00:50:19.341+07:00,837453017449966427,368238,476224,445112,172661
1784137819359862704,2026-07-16T00:50:19.359+07:00,837453017449966427,368217,476159,445034,172727
1784137819378044522,2026-07-16T00:50:19.378+07:00,837453017449966427,368152,476121,444910,172704
1784137819396226340,2026-07-16T00:50:19.396+07:00,837453017449966427,368163,476032,444894,172712
1784137819414408158,2026-07-16T00:50:19.414+07:00,837453017449966427,368055,475997,444868,172707
1784137819432589976,2026-07-16T00:50:19.432+07:00,837453017449966427,368039,475951,444788,172704
1784137819450771794,2026-07-16T00:50:19.450+07:00,837453017449966427,367992,475870,444802,172682
1784137819468953612,2026-07-16T00:50:19.468+07:00,837453017449966427,368014,475774,444738,172727
1784137819487135430,2026-07-16T00:50:19.487+07:00,837453018286959207,367937,475785,444688,172767
1784137819505317248,2026-07-16T00:50:19.505+07:00,837453018286959207,367867,475722,444626,172687
1784137819523499066,2026-07-16T00:50:19.523+07:00,837453018286959207,367878,475690,444601,172724
1784137819541680884,2026-07-16T00:50:19.541+07:00,837453018286959207,367851,475625,444538,172750
1784137819559862702,2026-07-16T00:50:19.559+07:00,837453018286959207,367840,475607,444564,172717
1784137819578044520,2026-07-16T00:50:19.578+07:00,837453018286959207,367785,475557,444491,172732
1784137819596226338,2026-07-16T00:50:19.596+07:00,837453018286959207,367854,475531,444506,172751
1784137819614408156,2026-07-16T00:50:19.614+07:00,837453018286959207,367822,475538,444555,172717
1784137819632589974,2026-07-16T00:50:19.632+07:00,837453018286959207,367789,475539,444540,172700
1784137819650771792,2026-07-16T00:50:19.650+07:00,837453018286959207,367816,475521,444567,172731
1784137819668953610,2026-07-16T00:50:19.668+07:00,837453018286959207,367889,475576,444585,172735
1784137819687135428,2026-07-16T00:50:19.687+07:00,837453018286959207,367884,475586,444594,172743
1784137819705317246,2026-07-16T00:50:19.705+07:00,837453018286959207,367888,475593,444636,172728
1784137819723499064,2026-07-16T00:50:19.723+07:00,837453018286959207,367886,475588,444629,172744
1784137819741680882,2026-07-16T00:50:19.741+07:00,837453018286959207,367906,475648,444691,172764
1784137819759862700,2026-07-16T00:50:19.759+07:00,837453018286959207,368028,475654,444735,172696
1784137819778044518,2026-07-16T00:50:19.778+07:00,837453018286959207,367959,475694,444746,172717
1784137819796226336,2026-07-16T00:50:19.796+07:00,837453018286959207,367995,475720,444777,172772
1784137819814408154,2026-07-16T00:50:19.814+07:00,837453018286959207,368036,475708,444812,172745
1784137819832589972,2026-07-16T00:50:19.832+07:00,837453018286959207,368074,475763,444876,172725
1784137819850771790,2026-07-16T00:50:19.850+07:00,837453018286959207,368104,475805,444899,172731
1784137819868953608,2026-07-16T00:50:19.868+07:00,837453018286959207,368146,475910,445018,172721
1784137819887135426,2026-07-16T00:50:19.887+07:00,837453018286959207,368129,475914,445009,172699
1784137819905317244,2026-07-16T00:50:19.905+07:00,837453018286959207,368230,475977,445064,172734
1784137819923499062,2026-07-16T00:50:19.923+07:00,837453018286959207,368256,475985,445115,172707
1784137819941680880,2026-07-16T00:50:19.941+07:00,837453018286959207,368292,476011,445153,172762
1784137819959862698,2026-07-16T00:50:19.959+07:00,837453018286959207,368349,476092,445195,172743
1784137819978044516,2026-07-16T00:50:19.978+07:00,837453018286959207,368326,476140,445234,172672
1784137819996226334,2026-07-16T00:50:19.996+07:00,837453018286959207,368389,476151,445258,172745
1784137820014408152,2026-07-16T00:50:20.014+07:00,837453018286959207,368373,476158,445282,172754
1784137820032589970,2026-07-16T00:50:20.032+07:00,837453018286959207,368277,476054,445205,172743
1784137820050771788,2026-07-16T00:50:20.050+07:00,837453018286959207,368277,475929,445140,172789
1784137820068953606,2026-07-16T00:50:20.068+07:00,837453018286959207,368165,475778,445003,172788
1784137820087135424,2026-07-16T00:50:20.087+07:00,837453018286959207,368074,475647,444945,172795
1784137820105317242,2026-07-16T00:50:20.105+07:00,837453018286959207,368005,475528,444821,172745
1784137820123499060,2026-07-16T00:50:20.123+07:00,837453018286959207,367902,475417,444706,172776
1784137820141680878,2026-07-16T00:50:20.141+07:00,837453018286959207,367791,475215,444534,172728
1784137820159862696,2026-07-16T00:50:20.159+07:00,837453018286959207,367733,475144,444461,172775
1784137820178044514,2026-07-16T00:50:20.178+07:00,837453018286959207,367656,475013,444329,172726
1784137820196226332,2026-07-16T00:50:20.196+07:00,837453018286959207,367597,474796,444227,172749
1784137820214408150,2026-07-16T00:50:20.214+07:00,837453018286959207,367530,474688,444166,172770
1784137820232589968,2026-07-16T00:50:20.232+07:00,837453018286959207,367485,474652,444145,172776
1784137820250771786,2026-07-16T00:50:20.250+07:00,837453018286959207,367440,474571,444068,172748
1784137820268953604,2026-07-16T00:50:20.268+07:00,837453018286959207,367340,474401,443973,172707
1784137820287135422,2026-07-16T00:50:20.287+07:00,837453018286959207,367381,474445,444032,172829
1784137820305317240,2026-07-16T00:50:20.305+07:00,837453018286959207,367245,474327,444013,172708
1784137820323499058,2026-07-16T00:50:20.323+07:00,837453019105757144,367272,474275,443918,172692
1784137820341680876,2026-07-16T00:50:20.341+07:00,837453019105757144,367247,474239,443880,172714
1784137820359862694,2026-07-16T00:50:20.359+07:00,837453019105757144,367277,474205,443875,172777
1784137820378044512,2026-07-16T00:50:20.378+07:00,837453019105757144,367229,474176,443877,172751
1784137820396226330,2026-07-16T00:50:20.396+07:00,837453019105757144,367212,474121,443901,172760
1784137820414408148,2026-07-16T00:50:20.414+07:00,837453019105757144,367230,474115,443943,172824
1784137820432589966,2026-07-16T00:50:20.432+07:00,837453019105757144,367246,474056,443888,172744
1784137820450771784,2026-07-16T00:50:20.450+07:00,837453019105757144,367165,474066,443868,172729
1784137820468953602,2026-07-16T00:50:20.468+07:00,837453019105757144,367200,474043,443871,172714
1784137820487135420,2026-07-16T00:50:20.487+07:00,837453019105757144,367207,474016,443848,172767
1784137820505317238,2026-07-16T00:50:20.505+07:00,837453019105757144,367255,474028,443892,172762
1784137820523499056,2026-07-16T00:50:20.523+07:00,837453019105757144,367308,474064,443908,172792
1784137820541680874,2026-07-16T00:50:20.541+07:00,837453019105757144,367275,474020,443938,172765
1784137820559862692,2026-07-16T00:50:20.559+07:00,837453019105757144,367292,474089,443963,172729
1784137820578044510,2026-07-16T00:50:20.578+07:00,837453019105757144,367322,474093,444043,172772
1784137820596226328,2026-07-16T00:50:20.596+07:00,837453019105757144,367310,474120,444023,172742
1784137820614408146,2026-07-16T00:50:20.614+07:00,837453019105757144,367383,474149,444076,172753
1784137820632589964,2026-07-16T00:50:20.632+07:00,837453019105757144,367387,474116,444104,172727
1784137820650771782,2026-07-16T00:50:20.650+07:00,837453019105757144,367370,474138,444099,172710
1784137820668953600,2026-07-16T00:50:20.668+07:00,837453019105757144,367454,474185,444181,172769
1784137820687135418,2026-07-16T00:50:20.687+07:00,837453019105757144,367466,474257,444200,172698
1784137820705317236,2026-07-16T00:50:20.705+07:00,837453019105757144,367534,474298,444296,172736
1784137820723499054,2026-07-16T00:50:20.723+07:00,837453019105757144,367565,474379,444359,172772
1784137820741680872,2026-07-16T00:50:20.741+07:00,837453019105757144,367521,474373,444412,172755
1784137820759862690,2026-07-16T00:50:20.759+07:00,837453019105757144,367587,474413,444431,172738
1784137820778044508,2026-07-16T00:50:20.778+07:00,837453019105757144,367625,474501,444464,172770
1784137820796226326,2026-07-16T00:50:20.796+07:00,837453019105757144,367687,474548,444538,172771
1784137820814408144,2026-07-16T00:50:20.814+07:00,837453019105757144,367708,474470,444565,172742
1784137820832589962,2026-07-16T00:50:20.832+07:00,837453019105757144,367789,474616,444654,172836
1784137820850771780,2026-07-16T00:50:20.850+07:00,837453019105757144,367795,474625,444718,172772
1784137820868953598,2026-07-16T00:50:20.868+07:00,837453019105757144,367768,474603,444714,172766
1784137820887135416,2026-07-16T00:50:20.887+07:00,837453019105757144,367805,474629,444648,172760
1784137820905317234,2026-07-16T00:50:20.905+07:00,837453019105757144,367752,474581,444581,172740
1784137820923499052,2026-07-16T00:50:20.923+07:00,837453019105757144,367697,474462,444563,172792
1784137820941680870,2026-07-16T00:50:20.941+07:00,837453019105757144,367606,474342,444472,172727
1784137820959862688,2026-07-16T00:50:20.959+07:00,837453019105757144,367588,474100,444418,172726
1784137820978044506,2026-07-16T00:50:20.978+07:00,837453019105757144,367440,474023,444270,172761
1784137820996226324,2026-07-16T00:50:20.996+07:00,837453019105757144,367353,473883,444139,172748
1784137821014408142,2026-07-16T00:50:21.014+07:00,837453019105757144,367210,473704,444019,172702
1784137821032589960,2026-07-16T00:50:21.032+07:00,837453019105757144,367221,473562,443959,172766
1784137821050771778,2026-07-16T00:50:21.050+07:00,837453019105757144,367117,473397,443812,172732
1784137821068953596,2026-07-16T00:50:21.068+07:00,837453019105757144,367085,473332,443744,172767
1784137821087135414,2026-07-16T00:50:21.087+07:00,837453019105757144,367032,473296,443740,172778
1784137821105317232,2026-07-16T00:50:21.105+07:00,837453019105757144,366949,473122,443681,172740
1784137821123499050,2026-07-16T00:50:21.123+07:00,837453019105757144,366927,473081,443599,172770
1784137821141680868,2026-07-16T00:50:21.141+07:00,837453019869970588,366921,473046,443591,172770
1784137821159862686,2026-07-16T00:50:21.159+07:00,837453019869970588,366872,473045,443573,172785
1784137821178044504,2026-07-16T00:50:21.178+07:00,837453019869970588,366930,472943,443573,172772
1784137821196226322,2026-07-16T00:50:21.196+07:00,837453019869970588,366930,472984,443505,172780
1784137821214408140,2026-07-16T00:50:21.214+07:00,837453019869970588,366819,472838,443440,172714
1784137821232589958,2026-07-16T00:50:21.232+07:00,837453019869970588,366835,472874,443465,172780
1784137821250771776,2026-07-16T00:50:21.250+07:00,837453019869970588,366812,472799,443486,172768
1784137821268953594,2026-07-16T00:50:21.268+07:00,837453019869970588,366784,472770,443482,172757
1784137821287135412,2026-07-16T00:50:21.287+07:00,837453019869970588,366798,472774,443456,172814
1784137821305317230,2026-07-16T00:50:21.305+07:00,837453019869970588,366792,472734,443473,172776
1784137821323499048,2026-07-16T00:50:21.323+07:00,837453019869970588,366817,472793,443547,172838
1784137821341680866,2026-07-16T00:50:21.341+07:00,837453019869970588,366848,472759,443510,172772
1784137821359862684,2026-07-16T00:50:21.359+07:00,837453019869970588,366884,472831,443569,172787
1784137821378044502,2026-07-16T00:50:21.378+07:00,837453019869970588,366885,472818,443590,172746
1784137821396226320,2026-07-16T00:50:21.396+07:00,837453019869970588,366877,472829,443564,172767
1784137821414408138,2026-07-16T00:50:21.414+07:00,837453019869970588,366853,472813,443596,172702
1784137821432589956,2026-07-16T00:50:21.432+07:00,837453019869970588,366947,472856,443688,172732
1784137821450771774,2026-07-16T00:50:21.450+07:00,837453019869970588,366955,472864,443674,172768
1784137821468953592,2026-07-16T00:50:21.468+07:00,837453019869970588,366999,473007,443745,172792
1784137821487135410,2026-07-16T00:50:21.487+07:00,837453019869970588,366964,473009,443744,172723
1784137821505317228,2026-07-16T00:50:21.505+07:00,837453019869970588,366976,473027,443778,172715
1784137821523499046,2026-07-16T00:50:21.523+07:00,837453019869970588,366981,473076,443865,172724
1784137821541680864,2026-07-16T00:50:21.541+07:00,837453019869970588,367122,473166,443920,172780
1784137821559862682,2026-07-16T00:50:21.559+07:00,837453019869970588,367087,473135,443930,172750
1784137821578044500,2026-07-16T00:50:21.578+07:00,837453019869970588,367135,473179,444058,172771
1784137821596226318,2026-07-16T00:50:21.596+07:00,837453019869970588,367188,473234,444092,172758
1784137821614408136,2026-07-16T00:50:21.614+07:00,837453019869970588,367264,473352,444147,172786
1784137821632589954,2026-07-16T00:50:21.632+07:00,837453019869970588,367302,473343,444146,172772
1784137821650771772,2026-07-16T00:50:21.650+07:00,837453019869970588,367339,473430,444222,172785
1784137821668953590,2026-07-16T00:50:21.668+07:00,837453019869970588,367353,473501,444234,172776
1784137821687135408,2026-07-16T00:50:21.687+07:00,837453019869970588,367428,473569,444345,172757
1784137821705317226,2026-07-16T00:50:21.705+07:00,837453019869970588,367471,473637,444447,172734
1784137821723499044,2026-07-16T00:50:21.723+07:00,837453019869970588,367545,473706,444504,172793
1784137821741680862,2026-07-16T00:50:21.741+07:00,837453019869970588,367517,473829,444558,172729
1784137821759862680,2026-07-16T00:50:21.759+07:00,837453019869970588,367592,473830,444542,172727
1784137821778044498,2026-07-16T00:50:21.778+07:00,837453019869970588,367555,473786,444507,172662
1784137821796226316,2026-07-16T00:50:21.796+07:00,837453019869970588,367554,473781,444540,172691
1784137821814408134,2026-07-16T00:50:21.814+07:00,837453019869970588,367430,473682,444465,172740
1784137821832589952,2026-07-16T00:50:21.832+07:00,837453019869970588,367418,473508,444368,172753
1784137821850771770,2026-07-16T00:50:21.850+07:00,837453019869970588,367340,473425,444264,172724
1784137821868953588,2026-07-16T00:50:21.868+07:00,837453019869970588,367247,473290,444185,172732
1784137821887135406,2026-07-16T00:50:21.887+07:00,837453019869970588,367181,473194,444073,172746
1784137821905317224,2026-07-16T00:50:21.905+07:00,837453020652395649,367090,473051,443926,172731
1784137821923499042,2026-07-16T00:50:21.923+07:00,837453020652395649,367067,472958,443894,172769
1784137821941680860,2026-07-16T00:50:21.941+07:00,837453020652395649,366903,472814,443800,172751
1784137821959862678,2026-07-16T00:50:21.959+07:00,837453020652395649,366937,472720,443705,172708
1784137821978044496,2026-07-16T00:50:21.978+07:00,837453020652395649,366831,472708,443702,172714
1784137821996226314,2026-07-16T00:50:21.996+07:00,837453020652395649,366776,472644,443618,172667
1784137822014408132,2026-07-16T00:50:22.014+07:00,837453020652395649,366818,472641,443642,172714
1784137822032589950,2026-07-16T00:50:22.032+07:00,837453020652395649,366751,472570,443565,172704
1784137822050771768,2026-07-16T00:50:22.050+07:00,837453020652395649,366765,472553,443579,172746
1784137822068953586,2026-07-16T00:50:22.068+07:00,837453020652395649,366699,472538,443566,172815
1784137822087135404,2026-07-16T00:50:22.087+07:00,837453020652395649,366726,472465,443565,172744
1784137822105317222,2026-07-16T00:50:22.105+07:00,837453020652395649,366648,472467,443535,172738
1784137822123499040,2026-07-16T00:50:22.123+07:00,837453020652395649,366709,472383,443550,172727
1784137822141680858,2026-07-16T00:50:22.141+07:00,837453020652395649,366692,472364,443480,172675
1784137822159862676,2026-07-16T00:50:22.159+07:00,837453020652395649,366676,472355,443455,172703
1784137822178044494,2026-07-16T00:50:22.178+07:00,837453020652395649,366718,472362,443497,172762
1784137822196226312,2026-07-16T00:50:22.196+07:00,837453020652395649,366714,472433,443531,172735
1784137822214408130,2026-07-16T00:50:22.214+07:00,837453020652395649,366717,472458,443495,172727
1784137822232589948,2026-07-16T00:50:22.232+07:00,837453020652395649,366717,472446,443554,172711
1784137822250771766,2026-07-16T00:50:22.250+07:00,837453020652395649,366767,472427,443600,172728
1784137822268953584,2026-07-16T00:50:22.268+07:00,837453020652395649,366832,472519,443677,172797
1784137822287135402,2026-07-16T00:50:22.287+07:00,837453020652395649,366765,472485,443596,172740
1784137822305317220,2026-07-16T00:50:22.305+07:00,837453020652395649,366761,472565,443635,172752
1784137822323499038,2026-07-16T00:50:22.323+07:00,837453020652395649,366885,472615,443766,172734
1784137822341680856,2026-07-16T00:50:22.341+07:00,837453020652395649,366895,472628,443798,172768
1784137822359862674,2026-07-16T00:50:22.359+07:00,837453020652395649,366873,472642,443767,172802
1784137822378044492,2026-07-16T00:50:22.378+07:00,837453020652395649,366930,472771,443810,172770
1784137822396226310,2026-07-16T00:50:22.396+07:00,837453020652395649,366957,472798,443835,172744
1784137822414408128,2026-07-16T00:50:22.414+07:00,837453020652395649,366988,472833,443861,172721
1784137822432589946,2026-07-16T00:50:22.432+07:00,837453020652395649,367024,472911,444000,172748
1784137822450771764,2026-07-16T00:50:22.450+07:00,837453020652395649,367022,472921,444014,172718
1784137822468953582,2026-07-16T00:50:22.468+07:00,837453020652395649,367116,472977,443988,172727
1784137822487135400,2026-07-16T00:50:22.487+07:00,837453020652395649,367194,473047,444087,172759
1784137822505317218,2026-07-16T00:50:22.505+07:00,837453020652395649,367221,473098,444110,172710
1784137822523499036,2026-07-16T00:50:22.523+07:00,837453020652395649,367231,473220,444151,172736
1784137822541680854,2026-07-16T00:50:22.541+07:00,837453020652395649,367341,473344,444281,172761
1784137822559862672,2026-07-16T00:50:22.559+07:00,837453020652395649,367338,473379,444322,172748
1784137822578044490,2026-07-16T00:50:22.578+07:00,837453020652395649,367370,473425,444354,172730
1784137822596226308,2026-07-16T00:50:22.596+07:00,837453020652395649,367447,473501,444430,172762
1784137822614408126,2026-07-16T00:50:22.614+07:00,837453020652395649,367432,473557,444417,172710
1784137822632589944,2026-07-16T00:50:22.632+07:00,837453020652395649,367530,473582,444428,172788
1784137822650771762,2026-07-16T00:50:22.650+07:00,837453020652395649,367504,473550,444395,172820
1784137822668953580,2026-07-16T00:50:22.668+07:00,837453020652395649,367415,473468,444405,172719
1784137822687135398,2026-07-16T00:50:22.687+07:00,837453021416612145,367427,473377,444346,172760
1784137822705317216,2026-07-16T00:50:22.705+07:00,837453021416612145,367300,473248,444168,172737
1784137822723499034,2026-07-16T00:50:22.723+07:00,837453021416612145,367240,473136,444145,172749
1784137822741680852,2026-07-16T00:50:22.741+07:00,837453021416612145,367167,473052,444065,172751
1784137822759862670,2026-07-16T00:50:22.759+07:00,837453021416612145,367122,473012,444026,172840
1784137822778044488,2026-07-16T00:50:22.778+07:00,837453021416612145,367080,472855,443929,172822
1784137822796226306,2026-07-16T00:50:22.796+07:00,837453021416612145,367076,472825,443944,172794
1784137822814408124,2026-07-16T00:50:22.814+07:00,837453021416612145,366974,472702,443783,172805
1784137822832589942,2026-07-16T00:50:22.832+07:00,837453021416612145,366951,472668,443710,172782
1784137822850771760,2026-07-16T00:50:22.850+07:00,837453021416612145,366905,472636,443650,172701
1784137822868953578,2026-07-16T00:50:22.868+07:00,837453021416612145,366837,472627,443620,172707
1784137822887135396,2026-07-16T00:50:22.887+07:00,837453021416612145,366894,472600,443757,172768
1784137822905317214,2026-07-16T00:50:22.905+07:00,837453021416612145,366872,472566,443644,172771
1784137822923499032,2026-07-16T00:50:22.923+07:00,837453021416612145,366858,472523,443536,172702
1784137822941680850,2026-07-16T00:50:22.941+07:00,837453021416612145,366877,472553,443608,172724
1784137822959862668,2026-07-16T00:50:22.959+07:00,837453021416612145,366906,472504,443632,172776
1784137822978044486,2026-07-16T00:50:22.978+07:00,837453021416612145,366890,472545,443576,172792
1784137822996226304,2026-07-16T00:50:22.996+07:00,837453021416612145,366851,472552,443489,172765
1784137823014408122,2026-07-16T00:50:23.014+07:00,837453021416612145,366869,472466,443491,172763
1784137823032589940,2026-07-16T00:50:23.032+07:00,837453021416612145,366917,472452,443549,172742
1784137823050771758,2026-07-16T00:50:23.050+07:00,837453021416612145,366878,472499,443541,172763
1784137823068953576,2026-07-16T00:50:23.068+07:00,837453021416612145,366861,472503,443576,172766
1784137823087135394,2026-07-16T00:50:23.087+07:00,837453021416612145,366909,472499,443608,172748
1784137823105317212,2026-07-16T00:50:23.105+07:00,837453021416612145,366899,472489,443581,172706
1784137823123499030,2026-07-16T00:50:23.123+07:00,837453021416612145,366946,472572,443581,172714
1784137823141680848,2026-07-16T00:50:23.141+07:00,837453021416612145,366946,472575,443598,172718
1784137823159862666,2026-07-16T00:50:23.159+07:00,837453021416612145,366940,472700,443596,172698
1784137823178044484,2026-07-16T00:50:23.178+07:00,837453021416612145,366939,472719,443653,172669
1784137823196226302,2026-07-16T00:50:23.196+07:00,837453021416612145,367038,472756,443712,172760
1784137823214408120,2026-07-16T00:50:23.214+07:00,837453021416612145,367029,472794,443762,172696
1784137823232589938,2026-07-16T00:50:23.232+07:00,837453021416612145,367086,472748,443781,172755
1784137823250771756,2026-07-16T00:50:23.250+07:00,837453021416612145,367082,472803,443787,172727
1784137823268953574,2026-07-16T00:50:23.268+07:00,837453021416612145,367120,472846,443808,172719
1784137823287135392,2026-07-16T00:50:23.287+07:00,837453021416612145,367189,472987,443869,172723
1784137823305317210,2026-07-16T00:50:23.305+07:00,837453021416612145,367186,473020,443877,172742
1784137823323499028,2026-07-16T00:50:23.323+07:00,837453021416612145,367260,473106,443945,172745
1784137823341680846,2026-07-16T00:50:23.341+07:00,837453021416612145,367309,473166,443979,172708
1784137823359862664,2026-07-16T00:50:23.359+07:00,837453021416612145,367349,473202,444000,172704
1784137823378044482,2026-07-16T00:50:23.378+07:00,837453021416612145,367368,473290,444041,172721
1784137823396226300,2026-07-16T00:50:23.396+07:00,837453021416612145,367438,473355,444110,172694
1784137823414408118,2026-07-16T00:50:23.414+07:00,837453021416612145,367510,473455,444223,172758
1784137823432589936,2026-07-16T00:50:23.432+07:00,837453021416612145,367489,473438,444211,172743
1784137823450771754,2026-07-16T00:50:23.450+07:00,837453022180859159,367429,473392,444188,172691
1784137823468953572,2026-07-16T00:50:23.468+07:00,837453022180859159,367411,473339,444149,172677
1784137823487135390,2026-07-16T00:50:23.487+07:00,837453022180859159,367373,473203,444021,172721
1784137823505317208,2026-07-16T00:50:23.505+07:00,837453022180859159,367335,473150,444011,172728
1784137823523499026,2026-07-16T00:50:23.523+07:00,837453022180859159,367205,473067,443861,172723
1784137823541680844,2026-07-16T00:50:23.541+07:00,837453022180859159,367212,472918,443766,172759
1784137823559862662,2026-07-16T00:50:23.559+07:00,837453022180859159,367157,472871,443685,172741
1784137823578044480,2026-07-16T00:50:23.578+07:00,837453022180859159,367012,472694,443541,172666
1784137823596226298,2026-07-16T00:50:23.596+07:00,837453022180859159,367075,472610,443499,172736
1784137823614408116,2026-07-16T00:50:23.614+07:00,837453022180859159,367050,472598,443478,172757
1784137823632589934,2026-07-16T00:50:23.632+07:00,837453022180859159,366875,472516,443389,172752
1784137823650771752,2026-07-16T00:50:23.650+07:00,837453022180859159,366803,472420,443290,172731
1784137823668953570,2026-07-16T00:50:23.668+07:00,837453022180859159,366835,472397,443271,172758
1784137823687135388,2026-07-16T00:50:23.687+07:00,837453022180859159,366800,472322,443243,172736
1784137823705317206,2026-07-16T00:50:23.705+07:00,837453022180859159,366831,472275,443137,172732
1784137823723499024,2026-07-16T00:50:23.723+07:00,837453022180859159,366787,472284,443156,172738
1784137823741680842,2026-07-16T00:50:23.741+07:00,837453022180859159,366794,472292,443170,172732
1784137823759862660,2026-07-16T00:50:23.759+07:00,837453022180859159,366768,472273,443182,172752
1784137823778044478,2026-07-16T00:50:23.778+07:00,837453022180859159,366698,472168,443041,172713
1784137823796226296,2026-07-16T00:50:23.796+07:00,837453022180859159,366690,472158,442983,172718
1784137823814408114,2026-07-16T00:50:23.814+07:00,837453022180859159,366732,472209,443020,172767
1784137823832589932,2026-07-16T00:50:23.832+07:00,837453022180859159,366636,472123,442997,172732
1784137823850771750,2026-07-16T00:50:23.850+07:00,837453022180859159,366753,472204,442999,172762
1784137823868953568,2026-07-16T00:50:23.868+07:00,837453022180859159,366786,472311,442997,172776
1784137823887135386,2026-07-16T00:50:23.887+07:00,837453022180859159,366750,472228,443004,172729
1784137823905317204,2026-07-16T00:50:23.905+07:00,837453022180859159,366726,472273,443028,172732
1784137823923499022,2026-07-16T00:50:23.923+07:00,837453022180859159,366814,472302,443028,172749
1784137823941680840,2026-07-16T00:50:23.941+07:00,837453022180859159,366823,472293,443030,172686
1784137823959862658,2026-07-16T00:50:23.959+07:00,837453022180859159,366824,472344,443100,172735
1784137823978044476,2026-07-16T00:50:23.978+07:00,837453022180859159,366831,472325,443140,172694
1784137823996226294,2026-07-16T00:50:23.996+07:00,837453022180859159,366869,472467,443119,172689
1784137824014408112,2026-07-16T00:50:24.014+07:00,837453022180859159,366934,472470,443172,172720
1784137824032589930,2026-07-16T00:50:24.032+07:00,837453022180859159,366947,472526,443194,172702
1784137824050771748,2026-07-16T00:50:24.050+07:00,837453022180859159,366914,472537,443224,172704
1784137824068953566,2026-07-16T00:50:24.068+07:00,837453022180859159,367004,472583,443267,172749
1784137824087135384,2026-07-16T00:50:24.087+07:00,837453022180859159,367038,472628,443324,172753
1784137824105317202,2026-07-16T00:50:24.105+07:00,837453022180859159,366999,472650,443303,172675
1784137824123499020,2026-07-16T00:50:24.123+07:00,837453022180859159,367071,472679,443341,172668
1784137824141680838,2026-07-16T00:50:24.141+07:00,837453022180859159,367137,472785,443428,172692
1784137824159862656,2026-07-16T00:50:24.159+07:00,837453022180859159,367195,472838,443539,172763
1784137824178044474,2026-07-16T00:50:24.178+07:00,837453022180859159,367215,472864,443543,172730
1784137824196226292,2026-07-16T00:50:24.196+07:00,837453022180859159,367242,472993,443617,172750
1784137824214408110,2026-07-16T00:50:24.214+07:00,837453022945136691,367247,473047,443651,172715
1784137824232589928,2026-07-16T00:50:24.232+07:00,837453022945136691,367366,473088,443647,172691
1784137824250771746,2026-07-16T00:50:24.250+07:00,837453022945136691,367425,473144,443717,172664
1784137824268953564,2026-07-16T00:50:24.268+07:00,837453022945136691,367420,473181,443751,172725
1784137824287135382,2026-07-16T00:50:24.287+07:00,837453022945136691,367469,473270,443744,172724
1784137824305317200,2026-07-16T00:50:24.305+07:00,837453022945136691,367519,473266,443765,172747
1784137824323499018,2026-07-16T00:50:24.323+07:00,837453022945136691,367452,473269,443706,172714
1784137824341680836,2026-07-16T00:50:24.341+07:00,837453022945136691,367356,473121,443608,172627
1784137824359862654,2026-07-16T00:50:24.359+07:00,837453022945136691,367324,472993,443562,172717
1784137824378044472,2026-07-16T00:50:24.378+07:00,837453022945136691,367242,472913,443395,172741
1784137824396226290,2026-07-16T00:50:24.396+07:00,837453022945136691,367227,472819,443320,172764
1784137824414408108,2026-07-16T00:50:24.414+07:00,837453022945136691,367181,472667,443252,172703
1784137824432589926,2026-07-16T00:50:24.432+07:00,837453022945136691,367041,472500,443067,172744
1784137824450771744,2026-07-16T00:50:24.450+07:00,837453022945136691,366957,472333,442918,172726
1784137824468953562,2026-07-16T00:50:24.468+07:00,837453022945136691,366976,472300,442896,172779
1784137824487135380,2026-07-16T00:50:24.487+07:00,837453022945136691,366838,472138,442742,172726
1784137824505317198,2026-07-16T00:50:24.505+07:00,837453022945136691,366746,472096,442699,172696
1784137824523499016,2026-07-16T00:50:24.523+07:00,837453022945136691,366691,472034,442612,172754
1784137824541680834,2026-07-16T00:50:24.541+07:00,837453022945136691,366676,472076,442588,172736
1784137824559862652,2026-07-16T00:50:24.559+07:00,837453022945136691,366621,472008,442524,172732
1784137824578044470,2026-07-16T00:50:24.578+07:00,837453022945136691,366619,471897,442482,172741
1784137824596226288,2026-07-16T00:50:24.596+07:00,837453022945136691,366616,471922,442409,172784
1784137824614408106,2026-07-16T00:50:24.614+07:00,837453022945136691,366571,471825,442338,172732
1784137824632589924,2026-07-16T00:50:24.632+07:00,837453022945136691,366530,471810,442326,172781
1784137824650771742,2026-07-16T00:50:24.650+07:00,837453022945136691,366519,471816,442263,172715
1784137824668953560,2026-07-16T00:50:24.668+07:00,837453022945136691,366485,471735,442230,172713
1784137824687135378,2026-07-16T00:50:24.687+07:00,837453022945136691,366477,471711,442239,172697
1784137824705317196,2026-07-16T00:50:24.705+07:00,837453022945136691,366468,471685,442212,172684
1784137824723499014,2026-07-16T00:50:24.723+07:00,837453022945136691,366431,471673,442271,172697
1784137824741680832,2026-07-16T00:50:24.741+07:00,837453022945136691,366474,471692,442247,172679
1784137824759862650,2026-07-16T00:50:24.759+07:00,837453022945136691,366524,471688,442248,172651
1784137824778044468,2026-07-16T00:50:24.778+07:00,837453022945136691,366477,471726,442264,172760
1784137824796226286,2026-07-16T00:50:24.796+07:00,837453022945136691,366656,471810,442312,172788
1784137824814408104,2026-07-16T00:50:24.814+07:00,837453022945136691,366606,471803,442267,172743
1784137824832589922,2026-07-16T00:50:24.832+07:00,837453022945136691,366582,471730,442275,172711
1784137824850771740,2026-07-16T00:50:24.850+07:00,837453022945136691,366648,471819,442264,172702
1784137824868953558,2026-07-16T00:50:24.868+07:00,837453022945136691,366624,471883,442348,172713
1784137824887135376,2026-07-16T00:50:24.887+07:00,837453022945136691,366708,471898,442396,172741
1784137824905317194,2026-07-16T00:50:24.905+07:00,837453022945136691,366712,471927,442406,172677
1784137824923499012,2026-07-16T00:50:24.923+07:00,837453022945136691,366759,471967,442449,172743
1784137824941680830,2026-07-16T00:50:24.941+07:00,837453022945136691,366741,472034,442495,172692
1784137824959862648,2026-07-16T00:50:24.959+07:00,837453022945136691,366772,472141,442495,172700
1784137824978044466,2026-07-16T00:50:24.978+07:00,837453023727610590,366772,472136,442518,172706
1784137824996226284,2026-07-16T00:50:24.996+07:00,837453023727610590,366856,472153,442580,172732
1784137825014408102,2026-07-16T00:50:25.014+07:00,837453023727610590,366915,472217,442642,172749
1784137825032589920,2026-07-16T00:50:25.032+07:00,837453023727610590,366878,472276,442647,172730
1784137825050771738,2026-07-16T00:50:25.050+07:00,837453023727610590,366957,472354,442707,172723
1784137825068953556,2026-07-16T00:50:25.068+07:00,837453023727610590,367038,472392,442710,172708
1784137825087135374,2026-07-16T00:50:25.087+07:00,837453023727610590,367040,472446,442796,172675
1784137825105317192,2026-07-16T00:50:25.105+07:00,837453023727610590,367068,472485,442911,172663
1784137825123499010,2026-07-16T00:50:25.123+07:00,837453023727610590,367198,472566,443019,172752
1784137825141680828,2026-07-16T00:50:25.141+07:00,837453023727610590,367207,472628,442983,172753
1784137825159862646,2026-07-16T00:50:25.159+07:00,837453023727610590,367272,472763,443063,172748
1784137825178044464,2026-07-16T00:50:25.178+07:00,837453023727610590,367332,472829,443085,172760
1784137825196226282,2026-07-16T00:50:25.196+07:00,837453023727610590,367307,472805,443084,172744
1784137825214408100,2026-07-16T00:50:25.214+07:00,837453023727610590,367262,472778,443065,172694
1784137825232589918,2026-07-16T00:50:25.232+07:00,837453023727610590,367227,472674,443042,172753
1784137825250771736,2026-07-16T00:50:25.250+07:00,837453023727610590,367199,472574,442875,172746
1784137825268953554,2026-07-16T00:50:25.268+07:00,837453023727610590,367121,472455,442824,172732
1784137825287135372,2026-07-16T00:50:25.287+07:00,837453023727610590,367109,472346,442728,172770
1784137825305317190,2026-07-16T00:50:25.305+07:00,837453023727610590,367016,472230,442642,172754
1784137825323499008,2026-07-16T00:50:25.323+07:00,837453023727610590,366867,472119,442469,172708
1784137825341680826,2026-07-16T00:50:25.341+07:00,837453023727610590,366843,471973,442401,172687
1784137825359862644,2026-07-16T00:50:25.359+07:00,837453023727610590,366767,471851,442287,172736
1784137825378044462,2026-07-16T00:50:25.378+07:00,837453023727610590,366699,471748,442180,172709
1784137825396226280,2026-07-16T00:50:25.396+07:00,837453023727610590,366663,471736,442180,172752
1784137825414408098,2026-07-16T00:50:25.414+07:00,837453023727610590,366571,471612,442063,172732
1784137825432589916,2026-07-16T00:50:25.432+07:00,837453023727610590,366503,471548,442009,172769
1784137825450771734,2026-07-16T00:50:25.450+07:00,837453023727610590,366496,471481,441978,172779
1784137825468953552,2026-07-16T00:50:25.468+07:00,837453023727610590,366479,471438,441921,172667
1784137825487135370,2026-07-16T00:50:25.487+07:00,837453023727610590,366485,471408,441947,172670
1784137825505317188,2026-07-16T00:50:25.505+07:00,837453023727610590,366442,471404,441914,172761
1784137825523499006,2026-07-16T00:50:25.523+07:00,837453023727610590,366466,471313,441830,172703
1784137825541680824,2026-07-16T00:50:25.541+07:00,837453023727610590,366417,471302,441848,172716
1784137825559862642,2026-07-16T00:50:25.559+07:00,837453023727610590,366464,471319,441843,172735
1784137825578044460,2026-07-16T00:50:25.578+07:00,837453023727610590,366344,471257,441796,172695
1784137825596226278,2026-07-16T00:50:25.596+07:00,837453023727610590,366438,471290,441874,172746
1784137825614408096,2026-07-16T00:50:25.614+07:00,837453023727610590,366435,471259,441794,172780
1784137825632589914,2026-07-16T00:50:25.632+07:00,837453023727610590,366411,471276,441824,172745
1784137825650771732,2026-07-16T00:50:25.650+07:00,837453023727610590,366487,471326,441887,172774
1784137825668953550,2026-07-16T00:50:25.668+07:00,837453023727610590,366491,471328,441920,172750
1784137825687135368,2026-07-16T00:50:25.687+07:00,837453023727610590,366472,471310,441876,172689
1784137825705317186,2026-07-16T00:50:25.705+07:00,837453023727610590,366506,471321,441878,172737
1784137825723499004,2026-07-16T00:50:25.723+07:00,837453023727610590,366580,471382,441913,172812
1784137825741680822,2026-07-16T00:50:25.741+07:00,837453023727610590,366503,471381,441929,172742
1784137825759862640,2026-07-16T00:50:25.759+07:00,837453024455525926,366539,471383,441974,172759
1784137825778044458,2026-07-16T00:50:25.778+07:00,837453024455525926,366580,471457,442033,172717
1784137825796226276,2026-07-16T00:50:25.796+07:00,837453024455525926,366676,471489,442081,172741
1784137825814408094,2026-07-16T00:50:25.814+07:00,837453024455525926,366713,471571,442107,172737
1784137825832589912,2026-07-16T00:50:25.832+07:00,837453024455525926,366745,471653,442141,172728
1784137825850771730,2026-07-16T00:50:25.850+07:00,837453024455525926,366772,471683,442201,172733
1784137825868953548,2026-07-16T00:50:25.868+07:00,837453024455525926,366800,471666,442234,172702
1784137825887135366,2026-07-16T00:50:25.887+07:00,837453024455525926,366828,471820,442339,172712
1784137825905317184,2026-07-16T00:50:25.905+07:00,837453024455525926,366860,471831,442348,172699
1784137825923499002,2026-07-16T00:50:25.923+07:00,837453024455525926,366914,471917,442409,172717
1784137825941680820,2026-07-16T00:50:25.941+07:00,837453024455525926,366963,471918,442451,172679
1784137825959862638,2026-07-16T00:50:25.959+07:00,837453024455525926,367004,471988,442468,172726
1784137825978044456,2026-07-16T00:50:25.978+07:00,837453024455525926,367058,472071,442571,172785
1784137825996226274,2026-07-16T00:50:25.996+07:00,837453024455525926,367085,472131,442593,172770
1784137826014408092,2026-07-16T00:50:26.014+07:00,837453024455525926,367141,472224,442659,172734
1784137826032589910,2026-07-16T00:50:26.032+07:00,837453024455525926,367150,472359,442752,172767
1784137826050771728,2026-07-16T00:50:26.050+07:00,837453024455525926,367221,472428,442861,172718
1784137826068953546,2026-07-16T00:50:26.068+07:00,837453024455525926,367318,472426,442872,172759
1784137826087135364,2026-07-16T00:50:26.087+07:00,837453024455525926,367452,472560,442991,172813
1784137826105317182,2026-07-16T00:50:26.105+07:00,837453024455525926,367435,472646,443004,172771
1784137826123499000,2026-07-16T00:50:26.123+07:00,837453024455525926,367431,472640,443073,172752
1784137826141680818,2026-07-16T00:50:26.141+07:00,837453024455525926,367497,472703,443133,172820
1784137826159862636,2026-07-16T00:50:26.159+07:00,837453024455525926,367427,472652,443005,172776
1784137826178044454,2026-07-16T00:50:26.178+07:00,837453024455525926,367412,472567,442982,172767
1784137826196226272,2026-07-16T00:50:26.196+07:00,837453024455525926,367315,472474,442929,172767
1784137826214408090,2026-07-16T00:50:26.214+07:00,837453024455525926,367251,472321,442851,172738
1784137826232589908,2026-07-16T00:50:26.232+07:00,837453024455525926,367223,472255,442795,172751
1784137826250771726,2026-07-16T00:50:26.250+07:00,837453024455525926,367192,472053,442638,172709
1784137826268953544,2026-07-16T00:50:26.268+07:00,837453024455525926,367106,472044,442619,172738
1784137826287135362,2026-07-16T00:50:26.287+07:00,837453024455525926,367011,471951,442509,172733
1784137826305317180,2026-07-16T00:50:26.305+07:00,837453024455525926,366986,471851,442388,172741
1784137826323498998,2026-07-16T00:50:26.323+07:00,837453024455525926,366898,471772,442374,172746
1784137826341680816,2026-07-16T00:50:26.341+07:00,837453024455525926,366924,471707,442304,172749
1784137826359862634,2026-07-16T00:50:26.359+07:00,837453024455525926,366873,471610,442231,172768
1784137826378044452,2026-07-16T00:50:26.378+07:00,837453024455525926,366818,471609,442256,172742
1784137826396226270,2026-07-16T00:50:26.396+07:00,837453024455525926,366806,471523,442287,172716
1784137826414408088,2026-07-16T00:50:26.414+07:00,837453024455525926,366764,471476,442263,172714
1784137826432589906,2026-07-16T00:50:26.432+07:00,837453024455525926,366755,471578,442228,172794
1784137826450771724,2026-07-16T00:50:26.450+07:00,837453024455525926,366787,471570,442243,172809
1784137826468953542,2026-07-16T00:50:26.468+07:00,837453024455525926,366789,471535,442187,172762
1784137826487135360,2026-07-16T00:50:26.487+07:00,837453025274392529,366746,471492,442230,172732
1784137826505317178,2026-07-16T00:50:26.505+07:00,837453025274392529,366770,471480,442194,172717
1784137826523498996,2026-07-16T00:50:26.523+07:00,837453025274392529,366790,471436,442204,172708
1784137826541680814,2026-07-16T00:50:26.541+07:00,837453025274392529,366719,471465,442225,172741
1784137826559862632,2026-07-16T00:50:26.559+07:00,837453025274392529,366833,471563,442261,172801
1784137826578044450,2026-07-16T00:50:26.578+07:00,837453025274392529,366792,471503,442252,172732
1784137826596226268,2026-07-16T00:50:26.596+07:00,837453025274392529,366835,471548,442301,172770
1784137826614408086,2026-07-16T00:50:26.614+07:00,837453025274392529,366847,471574,442303,172741
1784137826632589904,2026-07-16T00:50:26.632+07:00,837453025274392529,366895,471667,442346,172755
1784137826650771722,2026-07-16T00:50:26.650+07:00,837453025274392529,366873,471652,442362,172714
1784137826668953540,2026-07-16T00:50:26.668+07:00,837453025274392529,366987,471745,442467,172794
1784137826687135358,2026-07-16T00:50:26.687+07:00,837453025274392529,367051,471726,442484,172771
1784137826705317176,2026-07-16T00:50:26.705+07:00,837453025274392529,367041,471846,442543,172774
1784137826723498994,2026-07-16T00:50:26.723+07:00,837453025274392529,367045,471881,442553,172735
1784137826741680812,2026-07-16T00:50:26.741+07:00,837453025274392529,367036,471897,442620,172774
1784137826759862630,2026-07-16T00:50:26.759+07:00,837453025274392529,367087,471940,442633,172708
1784137826778044448,2026-07-16T00:50:26.778+07:00,837453025274392529,367121,471988,442731,172742
1784137826796226266,2026-07-16T00:50:26.796+07:00,837453025274392529,367171,472088,442739,172755
1784137826814408084,2026-07-16T00:50:26.814+07:00,837453025274392529,367188,472125,442821,172723
1784137826832589902,2026-07-16T00:50:26.832+07:00,837453025274392529,367242,472212,442855,172693
1784137826850771720,2026-07-16T00:50:26.850+07:00,837453025274392529,367282,472272,442921,172694
1784137826868953538,2026-07-16T00:50:26.868+07:00,837453025274392529,367355,472390,442994,172748
1784137826887135356,2026-07-16T00:50:26.887+07:00,837453025274392529,367361,472389,442989,172776
1784137826905317174,2026-07-16T00:50:26.905+07:00,837453025274392529,367452,472470,443094,172772
1784137826923498992,2026-07-16T00:50:26.923+07:00,837453025274392529,367475,472550,443151,172785
1784137826941680810,2026-07-16T00:50:26.941+07:00,837453025274392529,367560,472649,443207,172788
1784137826959862628,2026-07-16T00:50:26.959+07:00,837453025274392529,367595,472680,443280,172779
1784137826978044446,2026-07-16T00:50:26.978+07:00,837453025274392529,367673,472814,443388,172749
1784137826996226264,2026-07-16T00:50:26.996+07:00,837453025274392529,367716,472847,443455,172793
1784137827014408082,2026-07-16T00:50:27.014+07:00,837453025274392529,367772,472906,443532,172786
1784137827032589900,2026-07-16T00:50:27.032+07:00,837453025274392529,367787,473067,443570,172779
1784137827050771718,2026-07-16T00:50:27.050+07:00,837453025274392529,367870,473093,443650,172827
1784137827068953536,2026-07-16T00:50:27.068+07:00,837453025274392529,367864,473164,443718,172717
1784137827087135354,2026-07-16T00:50:27.087+07:00,837453025274392529,367867,473218,443758,172747
1784137827105317172,2026-07-16T00:50:27.105+07:00,837453025274392529,367918,473150,443707,172777
1784137827123498990,2026-07-16T00:50:27.123+07:00,837453025274392529,367861,473055,443652,172716
1784137827141680808,2026-07-16T00:50:27.141+07:00,837453025274392529,367814,473043,443543,172731
1784137827159862626,2026-07-16T00:50:27.159+07:00,837453025274392529,367741,472908,443590,172742
1784137827178044444,2026-07-16T00:50:27.178+07:00,837453025274392529,367655,472811,443460,172795
1784137827196226262,2026-07-16T00:50:27.196+07:00,837453025274392529,367615,472755,443375,172718
1784137827214408080,2026-07-16T00:50:27.214+07:00,837453025274392529,367632,472651,443344,172767
1784137827232589898,2026-07-16T00:50:27.232+07:00,837453025274392529,367546,472578,443272,172697
1784137827250771716,2026-07-16T00:50:27.250+07:00,837453025274392529,367503,472409,443171,172731
1784137827268953534,2026-07-16T00:50:27.268+07:00,837453025274392529,367489,472511,443209,172783
1784137827287135352,2026-07-16T00:50:27.287+07:00,837453025274392529,367493,472353,443126,172785
1784137827305317170,2026-07-16T00:50:27.305+07:00,837453026093259132,367385,472320,443083,172747
1784137827323498988,2026-07-16T00:50:27.323+07:00,837453026093259132,367382,472361,442993,172723
1784137827341680806,2026-07-16T00:50:27.341+07:00,837453026093259132,367377,472319,443116,172713
1784137827359862624,2026-07-16T00:50:27.359+07:00,837453026093259132,367360,472242,443030,172746
1784137827378044442,2026-07-16T00:50:27.378+07:00,837453026093259132,367418,472309,443069,172757
1784137827396226260,2026-07-16T00:50:27.396+07:00,837453026093259132,367334,472195,443028,172752
1784137827414408078,2026-07-16T00:50:27.414+07:00,837453026093259132,367399,472259,443090,172775
1784137827432589896,2026-07-16T00:50:27.432+07:00,837453026093259132,367327,472285,443053,172768
1784137827450771714,2026-07-16T00:50:27.450+07:00,837453026093259132,367328,472200,443032,172748
1784137827468953532,2026-07-16T00:50:27.468+07:00,837453026093259132,367306,472238,443047,172774
1784137827487135350,2026-07-16T00:50:27.487+07:00,837453026093259132,367304,472229,443037,172757
1784137827505317168,2026-07-16T00:50:27.505+07:00,837453026093259132,367322,472262,443059,172767
1784137827523498986,2026-07-16T00:50:27.523+07:00,837453026093259132,367370,472312,443085,172732
1784137827541680804,2026-07-16T00:50:27.541+07:00,837453026093259132,367436,472285,443136,172742
1784137827559862622,2026-07-16T00:50:27.559+07:00,837453026093259132,367479,472332,443172,172770
1784137827578044440,2026-07-16T00:50:27.578+07:00,837453026093259132,367449,472316,443190,172768
1784137827596226258,2026-07-16T00:50:27.596+07:00,837453026093259132,367529,472399,443264,172742
1784137827614408076,2026-07-16T00:50:27.614+07:00,837453026093259132,367554,472494,443317,172714
1784137827632589894,2026-07-16T00:50:27.632+07:00,837453026093259132,367501,472543,443395,172682
1784137827650771712,2026-07-16T00:50:27.650+07:00,837453026093259132,367585,472547,443391,172693
1784137827668953530,2026-07-16T00:50:27.668+07:00,837453026093259132,367630,472620,443452,172762
1784137827687135348,2026-07-16T00:50:27.687+07:00,837453026093259132,367579,472615,443420,172669
1784137827705317166,2026-07-16T00:50:27.705+07:00,837453026093259132,367659,472726,443473,172685
1784137827723498984,2026-07-16T00:50:27.723+07:00,837453026093259132,367721,472782,443533,172743
1784137827741680802,2026-07-16T00:50:27.741+07:00,837453026093259132,367686,472849,443540,172689
1784137827759862620,2026-07-16T00:50:27.759+07:00,837453026093259132,367715,472936,443590,172712
1784137827778044438,2026-07-16T00:50:27.778+07:00,837453026093259132,367859,472973,443695,172731
1784137827796226256,2026-07-16T00:50:27.796+07:00,837453026093259132,367826,473042,443791,172732
1784137827814408074,2026-07-16T00:50:27.814+07:00,837453026093259132,367915,473078,443810,172779
1784137827832589892,2026-07-16T00:50:27.832+07:00,837453026093259132,367954,473207,443851,172733
1784137827850771710,2026-07-16T00:50:27.850+07:00,837453026093259132,368032,473281,443964,172745
1784137827868953528,2026-07-16T00:50:27.868+07:00,837453026093259132,367999,473281,443961,172761
1784137827887135346,2026-07-16T00:50:27.887+07:00,837453026093259132,368078,473350,444062,172753
1784137827905317164,2026-07-16T00:50:27.905+07:00,837453026093259132,368149,473443,444124,172797
1784137827923498982,2026-07-16T00:50:27.923+07:00,837453026093259132,368232,473556,444223,172784
1784137827941680800,2026-07-16T00:50:27.941+07:00,837453026093259132,368234,473620,444280,172771
1784137827959862618,2026-07-16T00:50:27.959+07:00,837453026093259132,368287,473682,444309,172719
1784137827978044436,2026-07-16T00:50:27.978+07:00,837453026093259132,368393,473746,444377,172711
1784137827996226254,2026-07-16T00:50:27.996+07:00,837453026093259132,368424,473814,444468,172693
1784137828014408072,2026-07-16T00:50:28.014+07:00,837453026093259132,368470,473885,444459,172693
1784137828032589890,2026-07-16T00:50:28.032+07:00,837453026093259132,368496,473901,444516,172752
1784137828050771708,2026-07-16T00:50:28.050+07:00,837453026093259132,368413,473848,444465,172766
1784137828068953526,2026-07-16T00:50:28.068+07:00,837453026093259132,368302,473766,444338,172707
1784137828087135344,2026-07-16T00:50:28.087+07:00,837453026093259132,368295,473700,444303,172731
1784137828105317162,2026-07-16T00:50:28.105+07:00,837453026093259132,368286,473635,444297,172759
1784137828123498980,2026-07-16T00:50:28.123+07:00,837453026930315990,368198,473541,444159,172702
1784137828141680798,2026-07-16T00:50:28.141+07:00,837453026930315990,368236,473472,444161,172757
1784137828159862616,2026-07-16T00:50:28.159+07:00,837453026930315990,368147,473365,444089,172765
1784137828178044434,2026-07-16T00:50:28.178+07:00,837453026930315990,368083,473265,444013,172742
1784137828196226252,2026-07-16T00:50:28.196+07:00,837453026930315990,368023,473181,443912,172734
1784137828214408070,2026-07-16T00:50:28.214+07:00,837453026930315990,368023,473165,443923,172759
1784137828232589888,2026-07-16T00:50:28.232+07:00,837453026930315990,368034,473113,443872,172761
1784137828250771706,2026-07-16T00:50:28.250+07:00,837453026930315990,367954,473100,443860,172727
1784137828268953524,2026-07-16T00:50:28.268+07:00,837453026930315990,368010,473134,443912,172823
1784137828287135342,2026-07-16T00:50:28.287+07:00,837453026930315990,367902,473089,443831,172769
1784137828305317160,2026-07-16T00:50:28.305+07:00,837453026930315990,367927,473097,443804,172767
1784137828323498978,2026-07-16T00:50:28.323+07:00,837453026930315990,367942,473035,443851,172735
1784137828341680796,2026-07-16T00:50:28.341+07:00,837453026930315990,367960,473057,443800,172811
1784137828359862614,2026-07-16T00:50:28.359+07:00,837453026930315990,367938,473027,443786,172758
1784137828378044432,2026-07-16T00:50:28.378+07:00,837453026930315990,367924,473031,443779,172743
1784137828396226250,2026-07-16T00:50:28.396+07:00,837453026930315990,367927,473057,443717,172675
1784137828414408068,2026-07-16T00:50:28.414+07:00,837453026930315990,367861,473032,443789,172715
1784137828432589886,2026-07-16T00:50:28.432+07:00,837453026930315990,367945,473034,443805,172767
1784137828450771704,2026-07-16T00:50:28.450+07:00,837453026930315990,367933,473074,443833,172766
1784137828468953522,2026-07-16T00:50:28.468+07:00,837453026930315990,367945,473144,443860,172762
1784137828487135340,2026-07-16T00:50:28.487+07:00,837453026930315990,367940,473151,443902,172787
1784137828505317158,2026-07-16T00:50:28.505+07:00,837453026930315990,368026,473184,443859,172759
1784137828523498976,2026-07-16T00:50:28.523+07:00,837453026930315990,367988,473299,443898,172769
1784137828541680794,2026-07-16T00:50:28.541+07:00,837453026930315990,368123,473288,444003,172755
1784137828559862612,2026-07-16T00:50:28.559+07:00,837453026930315990,368169,473305,444019,172814
1784137828578044430,2026-07-16T00:50:28.578+07:00,837453026930315990,368148,473370,444047,172740
1784137828596226248,2026-07-16T00:50:28.596+07:00,837453026930315990,368187,473409,444133,172723
1784137828614408066,2026-07-16T00:50:28.614+07:00,837453026930315990,368220,473486,444193,172757
1784137828632589884,2026-07-16T00:50:28.632+07:00,837453026930315990,368244,473461,444203,172783
1784137828650771702,2026-07-16T00:50:28.650+07:00,837453026930315990,368292,473544,444192,172735
1784137828668953520,2026-07-16T00:50:28.668+07:00,837453026930315990,368321,473589,444235,172716
1784137828687135338,2026-07-16T00:50:28.687+07:00,837453026930315990,368349,473667,444313,172720
1784137828705317156,2026-07-16T00:50:28.705+07:00,837453026930315990,368410,473776,444382,172716
1784137828723498974,2026-07-16T00:50:28.723+07:00,837453026930315990,368477,473791,444470,172784
1784137828741680792,2026-07-16T00:50:28.741+07:00,837453026930315990,368437,473831,444489,172699
1784137828759862610,2026-07-16T00:50:28.759+07:00,837453026930315990,368481,473955,444556,172742
1784137828778044428,2026-07-16T00:50:28.778+07:00,837453026930315990,368584,474002,444624,172751
1784137828796226246,2026-07-16T00:50:28.796+07:00,837453026930315990,368584,474053,444660,172761
1784137828814408064,2026-07-16T00:50:28.814+07:00,837453026930315990,368649,474163,444656,172726
1784137828832589882,2026-07-16T00:50:28.832+07:00,837453026930315990,368664,474173,444685,172718
1784137828850771700,2026-07-16T00:50:28.850+07:00,837453026930315990,368691,474186,444759,172734
1784137828868953518,2026-07-16T00:50:28.868+07:00,837453026930315990,368728,474230,444792,172748
1784137828887135336,2026-07-16T00:50:28.887+07:00,837453026930315990,368727,474233,444782,172738
1784137828905317154,2026-07-16T00:50:28.905+07:00,837453026930315990,368709,474186,444742,172727
1784137828923498972,2026-07-16T00:50:28.923+07:00,837453026930315990,368743,474183,444759,172780
1784137828941680790,2026-07-16T00:50:28.941+07:00,837453026930315990,368661,474082,444641,172767
1784137828959862608,2026-07-16T00:50:28.959+07:00,837453027712795981,368533,473934,444516,172740
1784137828978044426,2026-07-16T00:50:28.978+07:00,837453027712795981,368458,473842,444513,172761
1784137828996226244,2026-07-16T00:50:28.996+07:00,837453027712795981,368483,473792,444422,172745
1784137829014408062,2026-07-16T00:50:29.014+07:00,837453027712795981,368373,473692,444365,172752
1784137829032589880,2026-07-16T00:50:29.032+07:00,837453027712795981,368303,473571,444277,172685
1784137829050771698,2026-07-16T00:50:29.050+07:00,837453027712795981,368325,473540,444269,172747
1784137829068953516,2026-07-16T00:50:29.068+07:00,837453027712795981,368286,473390,444154,172766
1784137829087135334,2026-07-16T00:50:29.087+07:00,837453027712795981,368259,473352,444147,172714
1784137829105317152,2026-07-16T00:50:29.105+07:00,837453027712795981,368260,473324,444132,172719
1784137829123498970,2026-07-16T00:50:29.123+07:00,837453027712795981,368216,473311,444122,172777
1784137829141680788,2026-07-16T00:50:29.141+07:00,837453027712795981,368194,473335,444040,172745
1784137829159862606,2026-07-16T00:50:29.159+07:00,837453027712795981,368168,473288,444006,172730
1784137829178044424,2026-07-16T00:50:29.178+07:00,837453027712795981,368166,473209,444014,172782
1784137829196226242,2026-07-16T00:50:29.196+07:00,837453027712795981,368170,473224,444066,172752
1784137829214408060,2026-07-16T00:50:29.214+07:00,837453027712795981,368128,473202,443985,172785
1784137829232589878,2026-07-16T00:50:29.232+07:00,837453027712795981,368152,473213,443996,172763
1784137829250771696,2026-07-16T00:50:29.250+07:00,837453027712795981,368172,473167,444014,172743
1784137829268953514,2026-07-16T00:50:29.268+07:00,837453027712795981,368153,473205,443957,172703
1784137829287135332,2026-07-16T00:50:29.287+07:00,837453027712795981,368126,473218,444028,172710
1784137829305317150,2026-07-16T00:50:29.305+07:00,837453027712795981,368179,473182,443991,172735
1784137829323498968,2026-07-16T00:50:29.323+07:00,837453027712795981,368145,473187,443986,172829
1784137829341680786,2026-07-16T00:50:29.341+07:00,837453027712795981,368163,473160,444011,172766
1784137829359862604,2026-07-16T00:50:29.359+07:00,837453027712795981,368153,473305,443997,172708
1784137829378044422,2026-07-16T00:50:29.378+07:00,837453027712795981,368235,473368,444128,172726
1784137829396226240,2026-07-16T00:50:29.396+07:00,837453027712795981,368236,473306,444083,172641
1784137829414408058,2026-07-16T00:50:29.414+07:00,837453027712795981,368259,473375,444134,172696
1784137829432589876,2026-07-16T00:50:29.432+07:00,837453027712795981,368319,473409,444121,172724
1784137829450771694,2026-07-16T00:50:29.450+07:00,837453027712795981,368363,473429,444160,172770
1784137829468953512,2026-07-16T00:50:29.468+07:00,837453027712795981,368402,473514,444194,172750
1784137829487135330,2026-07-16T00:50:29.487+07:00,837453027712795981,368298,473490,444153,172735
1784137829505317148,2026-07-16T00:50:29.505+07:00,837453027712795981,368392,473600,444257,172750
1784137829523498966,2026-07-16T00:50:29.523+07:00,837453027712795981,368394,473652,444293,172685
1784137829541680784,2026-07-16T00:50:29.541+07:00,837453027712795981,368471,473649,444370,172732
1784137829559862602,2026-07-16T00:50:29.559+07:00,837453027712795981,368536,473711,444369,172731
1784137829578044420,2026-07-16T00:50:29.578+07:00,837453027712795981,368523,473734,444376,172745
1784137829596226238,2026-07-16T00:50:29.596+07:00,837453027712795981,368584,473788,444424,172760
1784137829614408056,2026-07-16T00:50:29.614+07:00,837453027712795981,368640,473866,444554,172777
1784137829632589874,2026-07-16T00:50:29.632+07:00,837453027712795981,368626,473982,444506,172787
1784137829650771692,2026-07-16T00:50:29.650+07:00,837453027712795981,368698,473962,444641,172751
1784137829668953510,2026-07-16T00:50:29.668+07:00,837453027712795981,368699,473990,444675,172749
1784137829687135328,2026-07-16T00:50:29.687+07:00,837453027712795981,368716,474076,444704,172710
1784137829705317146,2026-07-16T00:50:29.705+07:00,837453027712795981,368793,474138,444737,172741
1784137829723498964,2026-07-16T00:50:29.723+07:00,837453027712795981,368765,474087,444660,172736
1784137829741680782,2026-07-16T00:50:29.741+07:00,837453028458999238,368765,474109,444620,172759
1784137829759862600,2026-07-16T00:50:29.759+07:00,837453028458999238,368725,474020,444605,172762
1784137829778044418,2026-07-16T00:50:29.778+07:00,837453028458999238,368635,473920,444553,172759
1784137829796226236,2026-07-16T00:50:29.796+07:00,837453028458999238,368552,473754,444419,172731
1784137829814408054,2026-07-16T00:50:29.814+07:00,837453028458999238,368432,473529,444276,172743
1784137829832589872,2026-07-16T00:50:29.832+07:00,837453028458999238,368343,473423,444161,172726
1784137829850771690,2026-07-16T00:50:29.850+07:00,837453028458999238,368287,473328,444035,172759
1784137829868953508,2026-07-16T00:50:29.868+07:00,837453028458999238,368214,473228,443963,172760
1784137829887135326,2026-07-16T00:50:29.887+07:00,837453028458999238,368154,473110,443824,172755
1784137829905317144,2026-07-16T00:50:29.905+07:00,837453028458999238,368082,473007,443806,172784
1784137829923498962,2026-07-16T00:50:29.923+07:00,837453028458999238,368026,472848,443659,172810
1784137829941680780,2026-07-16T00:50:29.941+07:00,837453028458999238,368029,472795,443618,172855
1784137829959862598,2026-07-16T00:50:29.959+07:00,837453028458999238,367958,472753,443537,172796
1784137829978044416,2026-07-16T00:50:29.978+07:00,837453028458999238,367914,472620,443464,172753
1784137829996226234,2026-07-16T00:50:29.996+07:00,837453028458999238,367851,472546,443392,172733
1784137830014408052,2026-07-16T00:50:30.014+07:00,837453028458999238,367827,472461,443364,172752
1784137830032589870,2026-07-16T00:50:30.032+07:00,837453028458999238,367790,472432,443269,172752
1784137830050771688,2026-07-16T00:50:30.050+07:00,837453028458999238,367770,472389,443237,172761
1784137830068953506,2026-07-16T00:50:30.068+07:00,837453028458999238,367717,472317,443218,172747
1784137830087135324,2026-07-16T00:50:30.087+07:00,837453028458999238,367722,472337,443198,172770
1784137830105317142,2026-07-16T00:50:30.105+07:00,837453028458999238,367734,472315,443232,172746
1784137830123498960,2026-07-16T00:50:30.123+07:00,837453028458999238,367732,472221,443190,172734
1784137830141680778,2026-07-16T00:50:30.141+07:00,837453028458999238,367732,472265,443158,172760
1784137830159862596,2026-07-16T00:50:30.159+07:00,837453028458999238,367737,472252,443181,172778
1784137830178044414,2026-07-16T00:50:30.178+07:00,837453028458999238,367767,472267,443131,172772
1784137830196226232,2026-07-16T00:50:30.196+07:00,837453028458999238,367772,472238,443071,172755
1784137830214408050,2026-07-16T00:50:30.214+07:00,837453028458999238,367719,472273,443107,172759
1784137830232589868,2026-07-16T00:50:30.232+07:00,837453028458999238,367688,472297,443118,172723
1784137830250771686,2026-07-16T00:50:30.250+07:00,837453028458999238,367739,472268,443237,172802
1784137830268953504,2026-07-16T00:50:30.268+07:00,837453028458999238,367756,472284,443181,172747
1784137830287135322,2026-07-16T00:50:30.287+07:00,837453028458999238,367787,472328,443189,172741
1784137830305317140,2026-07-16T00:50:30.305+07:00,837453028458999238,367806,472347,443201,172782
1784137830323498958,2026-07-16T00:50:30.323+07:00,837453028458999238,367782,472366,443218,172754
1784137830341680776,2026-07-16T00:50:30.341+07:00,837453028458999238,367842,472377,443243,172763
1784137830359862594,2026-07-16T00:50:30.359+07:00,837453028458999238,367877,472487,443223,172730
1784137830378044412,2026-07-16T00:50:30.378+07:00,837453028458999238,367904,472567,443309,172770
1784137830396226230,2026-07-16T00:50:30.396+07:00,837453028458999238,367925,472543,443295,172787
1784137830414408048,2026-07-16T00:50:30.414+07:00,837453028458999238,367927,472597,443375,172763
1784137830432589866,2026-07-16T00:50:30.432+07:00,837453028458999238,367974,472609,443372,172776
1784137830450771684,2026-07-16T00:50:30.450+07:00,837453028458999238,368024,472555,443365,172753
1784137830468953502,2026-07-16T00:50:30.468+07:00,837453028458999238,368068,472617,443527,172752
1784137830487135320,2026-07-16T00:50:30.487+07:00,837453029350814543,368076,472701,443497,172728
1784137830505317138,2026-07-16T00:50:30.505+07:00,837453029350814543,368087,472809,443535,172783
1784137830523498956,2026-07-16T00:50:30.523+07:00,837453029350814543,368135,472833,443597,172732
1784137830541680774,2026-07-16T00:50:30.541+07:00,837453029350814543,368194,472897,443645,172762
1784137830559862592,2026-07-16T00:50:30.559+07:00,837453029350814543,368206,472909,443690,172751
1784137830578044410,2026-07-16T00:50:30.578+07:00,837453029350814543,368284,473003,443782,172793
1784137830596226228,2026-07-16T00:50:30.596+07:00,837453029350814543,368281,473052,443739,172764
1784137830614408046,2026-07-16T00:50:30.614+07:00,837453029350814543,368323,473155,443770,172794
1784137830632589864,2026-07-16T00:50:30.632+07:00,837453029350814543,368297,473148,443739,172789
1784137830650771682,2026-07-16T00:50:30.650+07:00,837453029350814543,368286,473052,443694,172774
1784137830668953500,2026-07-16T00:50:30.668+07:00,837453029350814543,368263,472947,443602,172742
1784137830687135318,2026-07-16T00:50:30.687+07:00,837453029350814543,368192,472871,443556,172767
1784137830705317136,2026-07-16T00:50:30.705+07:00,837453029350814543,368134,472785,443451,172752
1784137830723498954,2026-07-16T00:50:30.723+07:00,837453029350814543,368050,472636,443336,172738
1784137830741680772,2026-07-16T00:50:30.741+07:00,837453029350814543,367940,472466,443186,172684
1784137830759862590,2026-07-16T00:50:30.759+07:00,837453029350814543,367831,472308,443085,172730
1784137830778044408,2026-07-16T00:50:30.778+07:00,837453029350814543,367809,472166,442997,172743
1784137830796226226,2026-07-16T00:50:30.796+07:00,837453029350814543,367760,472028,442819,172751
1784137830814408044,2026-07-16T00:50:30.814+07:00,837453029350814543,367689,471936,442709,172749
1784137830832589862,2026-07-16T00:50:30.832+07:00,837453029350814543,367553,471773,442650,172755
1784137830850771680,2026-07-16T00:50:30.850+07:00,837453029350814543,367444,471647,442561,172749
1784137830868953498,2026-07-16T00:50:30.868+07:00,837453029350814543,367416,471527,442498,172776
1784137830887135316,2026-07-16T00:50:30.887+07:00,837453029350814543,367402,471495,442437,172721
1784137830905317134,2026-07-16T00:50:30.905+07:00,837453029350814543,367349,471429,442336,172724
1784137830923498952,2026-07-16T00:50:30.923+07:00,837453029350814543,367316,471310,442290,172701
1784137830941680770,2026-07-16T00:50:30.941+07:00,837453029350814543,367278,471271,442237,172714
1784137830959862588,2026-07-16T00:50:30.959+07:00,837453029350814543,367260,471295,442222,172753
1784137830978044406,2026-07-16T00:50:30.978+07:00,837453029350814543,367241,471235,442203,172760
1784137830996226224,2026-07-16T00:50:30.996+07:00,837453029350814543,367229,471220,442113,172758
1784137831014408042,2026-07-16T00:50:31.014+07:00,837453029350814543,367197,471124,442036,172695
1784137831032589860,2026-07-16T00:50:31.032+07:00,837453029350814543,367165,471062,441958,172753
1784137831050771678,2026-07-16T00:50:31.050+07:00,837453029350814543,367143,471067,441996,172699
1784137831068953496,2026-07-16T00:50:31.068+07:00,837453029350814543,367207,471001,441965,172746
1784137831087135314,2026-07-16T00:50:31.087+07:00,837453029350814543,367159,471011,441983,172741
1784137831105317132,2026-07-16T00:50:31.105+07:00,837453029350814543,367178,471021,442015,172713
1784137831123498950,2026-07-16T00:50:31.123+07:00,837453029350814543,367186,471021,442002,172720
1784137831141680768,2026-07-16T00:50:31.141+07:00,837453029350814543,367196,471030,442026,172707
1784137831159862586,2026-07-16T00:50:31.159+07:00,837453029350814543,367233,471085,442058,172729
1784137831178044404,2026-07-16T00:50:31.178+07:00,837453029350814543,367213,471136,442057,172686
1784137831196226222,2026-07-16T00:50:31.196+07:00,837453029350814543,367228,471150,442113,172776
1784137831214408040,2026-07-16T00:50:31.214+07:00,837453029350814543,367229,471204,442084,172723
1784137831232589858,2026-07-16T00:50:31.232+07:00,837453029350814543,367279,471203,442123,172724
1784137831250771676,2026-07-16T00:50:31.250+07:00,837453029350814543,367366,471259,442143,172767
1784137831268953494,2026-07-16T00:50:31.268+07:00,837453029350814543,367362,471304,442183,172770
1784137831287135312,2026-07-16T00:50:31.287+07:00,837453029350814543,367413,471328,442198,172738
1784137831305317130,2026-07-16T00:50:31.305+07:00,837453029350814543,367416,471351,442260,172732
1784137831323498948,2026-07-16T00:50:31.323+07:00,837453029350814543,367476,471400,442322,172797
1784137831341680766,2026-07-16T00:50:31.341+07:00,837453029350814543,367470,471443,442388,172742
1784137831359862584,2026-07-16T00:50:31.359+07:00,837453029350814543,367545,471527,442349,172745
1784137831378044402,2026-07-16T00:50:31.378+07:00,837453030188057561,367583,471534,442373,172729
1784137831396226220,2026-07-16T00:50:31.396+07:00,837453030188057561,367584,471593,442465,172791
1784137831414408038,2026-07-16T00:50:31.414+07:00,837453030188057561,367649,471662,442539,172787
1784137831432589856,2026-07-16T00:50:31.432+07:00,837453030188057561,367682,471726,442558,172778
1784137831450771674,2026-07-16T00:50:31.450+07:00,837453030188057561,367677,471772,442597,172709
1784137831468953492,2026-07-16T00:50:31.468+07:00,837453030188057561,367724,471797,442604,172731
1784137831487135310,2026-07-16T00:50:31.487+07:00,837453030188057561,367793,471894,442657,172774
1784137831505317128,2026-07-16T00:50:31.505+07:00,837453030188057561,367857,471920,442703,172734
1784137831523498946,2026-07-16T00:50:31.523+07:00,837453030188057561,367903,471988,442734,172738
1784137831541680764,2026-07-16T00:50:31.541+07:00,837453030188057561,367931,472081,442835,172741
1784137831559862582,2026-07-16T00:50:31.559+07:00,837453030188057561,367971,472162,442858,172750
1784137831578044400,2026-07-16T00:50:31.578+07:00,837453030188057561,367981,472239,442933,172752
1784137831596226218,2026-07-16T00:50:31.596+07:00,837453030188057561,367978,472223,442862,172777
1784137831614408036,2026-07-16T00:50:31.614+07:00,837453030188057561,367943,472058,442757,172681
1784137831632589854,2026-07-16T00:50:31.632+07:00,837453030188057561,367791,471992,442742,172759
1784137831650771672,2026-07-16T00:50:31.650+07:00,837453030188057561,367732,471832,442642,172724
1784137831668953490,2026-07-16T00:50:31.668+07:00,837453030188057561,367689,471704,442503,172767
1784137831687135308,2026-07-16T00:50:31.687+07:00,837453030188057561,367611,471587,442346,172764
1784137831705317126,2026-07-16T00:50:31.705+07:00,837453030188057561,367555,471533,442279,172694
1784137831723498944,2026-07-16T00:50:31.723+07:00,837453030188057561,367527,471368,442165,172726
1784137831741680762,2026-07-16T00:50:31.741+07:00,837453030188057561,367421,471235,442084,172697
1784137831759862580,2026-07-16T00:50:31.759+07:00,837453030188057561,367297,471033,441899,172683
1784137831778044398,2026-07-16T00:50:31.778+07:00,837453030188057561,367192,470974,441827,172704
1784137831796226216,2026-07-16T00:50:31.796+07:00,837453030188057561,367211,470876,441740,172771
1784137831814408034,2026-07-16T00:50:31.814+07:00,837453030188057561,367176,470837,441668,172740
1784137831832589852,2026-07-16T00:50:31.832+07:00,837453030188057561,367196,470846,441642,172759
1784137831850771670,2026-07-16T00:50:31.850+07:00,837453030188057561,367125,470795,441592,172763
1784137831868953488,2026-07-16T00:50:31.868+07:00,837453030188057561,367060,470740,441518,172781
1784137831887135306,2026-07-16T00:50:31.887+07:00,837453030188057561,367045,470610,441489,172769
1784137831905317124,2026-07-16T00:50:31.905+07:00,837453030188057561,366954,470551,441441,172704
1784137831923498942,2026-07-16T00:50:31.923+07:00,837453030188057561,366965,470543,441412,172728
1784137831941680760,2026-07-16T00:50:31.941+07:00,837453030188057561,366925,470481,441298,172734
1784137831959862578,2026-07-16T00:50:31.959+07:00,837453030188057561,366960,470494,441323,172751
1784137831978044396,2026-07-16T00:50:31.978+07:00,837453030188057561,366983,470491,441335,172770
1784137831996226214,2026-07-16T00:50:31.996+07:00,837453030188057561,366927,470498,441262,172733
1784137832014408032,2026-07-16T00:50:32.014+07:00,837453030188057561,366955,470545,441352,172762
1784137832032589850,2026-07-16T00:50:32.032+07:00,837453030188057561,366974,470508,441333,172721
1784137832050771668,2026-07-16T00:50:32.050+07:00,837453030188057561,366971,470532,441352,172794
1784137832068953486,2026-07-16T00:50:32.068+07:00,837453030188057561,367025,470540,441338,172730
1784137832087135304,2026-07-16T00:50:32.087+07:00,837453030188057561,366960,470585,441325,172696
1784137832105317122,2026-07-16T00:50:32.105+07:00,837453030188057561,366997,470550,441330,172647
1784137832123498940,2026-07-16T00:50:32.123+07:00,837453030188057561,367012,470647,441385,172677
1784137832141680758,2026-07-16T00:50:32.141+07:00,837453030188057561,367082,470653,441438,172747
1784137832159862576,2026-07-16T00:50:32.159+07:00,837453030188057561,367066,470713,441427,172714
1784137832178044394,2026-07-16T00:50:32.178+07:00,837453030188057561,367051,470697,441431,172639
1784137832196226212,2026-07-16T00:50:32.196+07:00,837453030188057561,367061,470798,441498,172732
1784137832214408030,2026-07-16T00:50:32.214+07:00,837453030988840721,367158,470867,441584,172730
