host_timestamp_ns,host_timestamp_iso,pmd_timestamp,ppg0,ppg1,ppg2,ambient
1783422941833985441,2026-07-07T18:15:41.833+07:00,540284521159662319,215658,173485,176298,1285
1783422941852167259,2026-07-07T18:15:41.852+07:00,540284521159662319,215637,173413,176308,1322
1783422941870349077,2026-07-07T18:15:41.870+07:00,540284521159662319,215595,173408,176316,1320
1783422941888530895,2026-07-07T18:15:41.888+07:00,540284521159662319,215568,173458,176309,1326
1783422941906712713,2026-07-07T18:15:41.906+07:00,540284521159662319,215581,173492,176289,1311
1783422941924894531,2026-07-07T18:15:41.924+07:00,540284521159662319,215533,173443,176318,1270
1783422941943076349,2026-07-07T18:15:41.943+07:00,540284521159662319,215479,173403,176321,1223
1783422941961258167,2026-07-07T18:15:41.961+07:00,540284521159662319,215497,173497,176377,1290
1783422941979439985,2026-07-07T18:15:41.979+07:00,540284521159662319,215440,173428,176352,1306
1783422941997621803,2026-07-07T18:15:41.997+07:00,540284521159662319,215394,173393,176366,1237
1783422942015803621,2026-07-07T18:15:42.015+07:00,540284521159662319,215312,173343,176284,1289
1783422942033985439,2026-07-07T18:15:42.033+07:00,540284521159662319,215130,173221,176162,1252
1783422942052167257,2026-07-07T18:15:42.052+07:00,540284521159662319,215021,173211,176160,1236
1783422942070349075,2026-07-07T18:15:42.070+07:00,540284521159662319,215011,173172,176087,1310
1783422942088530893,2026-07-07T18:15:42.088+07:00,540284521159662319,214947,173175,176086,1248
1783422942106712711,2026-07-07T18:15:42.106+07:00,540284521159662319,214866,173062,176008,1289
1783422942124894529,2026-07-07T18:15:42.124+07:00,540284521159662319,214853,172993,175969,1266
1783422942143076347,2026-07-07T18:15:42.143+07:00,540284521159662319,214808,172919,175847,1288
1783422942161258165,2026-07-07T18:15:42.161+07:00,540284521159662319,214780,172872,175919,1297
1783422942179439983,2026-07-07T18:15:42.179+07:00,540284521159662319,214749,172865,175903,1296
1783422942197621801,2026-07-07T18:15:42.197+07:00,540284521159662319,214745,172887,175891,1255
1783422942215803619,2026-07-07T18:15:42.215+07:00,540284521159662319,214805,172982,176029,1207
1783422942233985437,2026-07-07T18:15:42.233+07:00,540284521159662319,214808,173022,176121,1226
1783422942252167255,2026-07-07T18:15:42.252+07:00,540284521159662319,214773,172991,176111,1251
1783422942270349073,2026-07-07T18:15:42.270+07:00,540284521159662319,214504,172865,176028,1308
1783422942288530891,2026-07-07T18:15:42.288+07:00,540284521159662319,214644,172965,176034,1277
1783422942306712709,2026-07-07T18:15:42.306+07:00,540284521159662319,214950,173224,176300,1301
1783422942324894527,2026-07-07T18:15:42.324+07:00,540284521159662319,215345,173576,176504,1296
1783422942343076345,2026-07-07T18:15:42.343+07:00,540284521159662319,215780,173866,176778,1323
1783422942361258163,2026-07-07T18:15:42.361+07:00,540284521159662319,216218,174112,177077,1321
1783422942379439981,2026-07-07T18:15:42.379+07:00,540284521159662319,216615,174364,177404,1309
1783422942397621799,2026-07-07T18:15:42.397+07:00,540284521159662319,217049,174600,177720,1286
1783422942415803617,2026-07-07T18:15:42.415+07:00,540284521159662319,217360,174892,177959,1321
1783422942433985435,2026-07-07T18:15:42.433+07:00,540284521159662319,217657,175140,178273,1325
1783422942452167253,2026-07-07T18:15:42.452+07:00,540284521159662319,217823,175346,178494,1275
1783422942470349071,2026-07-07T18:15:42.470+07:00,540284521159662319,218003,175567,178684,1243
1783422942488530889,2026-07-07T18:15:42.488+07:00,540284521159662319,218172,175803,178927,1304
1783422942506712707,2026-07-07T18:15:42.506+07:00,540284521159662319,218333,175995,179070,1326
1783422942524894525,2026-07-07T18:15:42.524+07:00,540284521159662319,218425,176107,179202,1308
1783422942543076343,2026-07-07T18:15:42.543+07:00,540284521159662319,218568,176284,179345,1325
1783422942561258161,2026-07-07T18:15:42.561+07:00,540284521159662319,218643,176330,179356,1252
1783422942579439979,2026-07-07T18:15:42.579+07:00,540284521159662319,218760,176487,179534,1326
1783422942597621797,2026-07-07T18:15:42.597+07:00,540284521159662319,218868,176596,179593,1279
1783422942615803615,2026-07-07T18:15:42.615+07:00,540284521923894075,219155,176807,179787,1352
1783422942633985433,2026-07-07T18:15:42.633+07:00,540284521923894075,219362,176929,179898,1249
1783422942652167251,2026-07-07T18:15:42.652+07:00,540284521923894075,219631,177079,180037,1316
1783422942670349069,2026-07-07T18:15:42.670+07:00,540284521923894075,219854,177265,180312,1340
1783422942688530887,2026-07-07T18:15:42.688+07:00,540284521923894075,220057,177438,180449,1304
1783422942706712705,2026-07-07T18:15:42.706+07:00,540284521923894075,220422,177716,180711,1299
1783422942724894523,2026-07-07T18:15:42.724+07:00,540284521923894075,220630,177912,180954,1297
1783422942743076341,2026-07-07T18:15:42.743+07:00,540284521923894075,220878,178193,181223,1273
1783422942761258159,2026-07-07T18:15:42.761+07:00,540284521923894075,221076,178360,181450,1328
1783422942779439977,2026-07-07T18:15:42.779+07:00,540284521923894075,221359,178718,181738,1316
1783422942797621795,2026-07-07T18:15:42.797+07:00,540284521923894075,221605,178979,182011,1279
1783422942815803613,2026-07-07T18:15:42.815+07:00,540284521923894075,221795,179188,182218,1256
1783422942833985431,2026-07-07T18:15:42.833+07:00,540284521923894075,222025,179459,182426,1250
1783422942852167249,2026-07-07T18:15:42.852+07:00,540284521923894075,222386,179690,182724,1280
1783422942870349067,2026-07-07T18:15:42.870+07:00,540284521923894075,222583,179863,182906,1294
1783422942888530885,2026-07-07T18:15:42.888+07:00,540284521923894075,222854,180136,183235,1294
1783422942906712703,2026-07-07T18:15:42.906+07:00,540284521923894075,223097,180426,183418,1294
1783422942924894521,2026-07-07T18:15:42.924+07:00,540284521923894075,223383,180680,183621,1250
1783422942943076339,2026-07-07T18:15:42.943+07:00,540284521923894075,223686,180944,183851,1294
1783422942961258157,2026-07-07T18:15:42.961+07:00,540284521923894075,223957,181149,184106,1262
1783422942979439975,2026-07-07T18:15:42.979+07:00,540284521923894075,224263,181456,184275,1264
1783422942997621793,2026-07-07T18:15:42.997+07:00,540284521923894075,224546,181676,184494,1250
1783422943015803611,2026-07-07T18:15:43.015+07:00,540284521923894075,224800,181906,184780,1263
1783422943033985429,2026-07-07T18:15:43.033+07:00,540284521923894075,224996,182146,184991,1286
1783422943052167247,2026-07-07T18:15:43.052+07:00,540284521923894075,225193,182274,185133,1234
1783422943070349065,2026-07-07T18:15:43.070+07:00,540284521923894075,225291,182398,185158,1263
1783422943088530883,2026-07-07T18:15:43.088+07:00,540284521923894075,225451,182475,185215,1248
1783422943106712701,2026-07-07T18:15:43.106+07:00,540284521923894075,225472,182561,185221,1246
1783422943124894519,2026-07-07T18:15:43.124+07:00,540284521923894075,225535,182617,185341,1264
1783422943143076337,2026-07-07T18:15:43.143+07:00,540284521923894075,225568,182697,185384,1272
1783422943161258155,2026-07-07T18:15:43.161+07:00,540284521923894075,225569,182822,185436,1263
1783422943179439973,2026-07-07T18:15:43.179+07:00,540284521923894075,225660,182847,185479,1206
1783422943197621791,2026-07-07T18:15:43.197+07:00,540284521923894075,225760,182950,185576,1267
1783422943215803609,2026-07-07T18:15:43.215+07:00,540284521923894075,225858,183020,185645,1308
1783422943233985427,2026-07-07T18:15:43.233+07:00,540284521923894075,225949,183229,185731,1321
1783422943252167245,2026-07-07T18:15:43.252+07:00,540284521923894075,225937,183285,185750,1275
1783422943270349063,2026-07-07T18:15:43.270+07:00,540284521923894075,225945,183306,185819,1368
1783422943288530881,2026-07-07T18:15:43.288+07:00,540284521923894075,225829,183371,185806,1325
1783422943306712699,2026-07-07T18:15:43.306+07:00,540284521923894075,225644,183291,185733,1247
1783422943324894517,2026-07-07T18:15:43.324+07:00,540284521923894075,225390,183190,185687,1263
1783422943343076335,2026-07-07T18:15:43.343+07:00,540284521923894075,225113,183038,185579,1318
1783422943361258153,2026-07-07T18:15:43.361+07:00,540284521923894075,224802,182869,185408,1304
1783422943379439971,2026-07-07T18:15:43.379+07:00,540284522688186865,224504,182683,185199,1286
1783422943397621789,2026-07-07T18:15:43.397+07:00,540284522688186865,224400,182539,185016,1322
1783422943415803607,2026-07-07T18:15:43.415+07:00,540284522688186865,224330,182357,184863,1270
1783422943433985425,2026-07-07T18:15:43.433+07:00,540284522688186865,224214,182237,184770,1308
1783422943452167243,2026-07-07T18:15:43.452+07:00,540284522688186865,224199,182196,184650,1293
1783422943470349061,2026-07-07T18:15:43.470+07:00,540284522688186865,224237,182214,184656,1287
1783422943488530879,2026-07-07T18:15:43.488+07:00,540284522688186865,224337,182183,184660,1334
1783422943506712697,2026-07-07T18:15:43.506+07:00,540284522688186865,224416,182200,184638,1281
1783422943524894515,2026-07-07T18:15:43.524+07:00,540284522688186865,224523,182282,184674,1283
1783422943543076333,2026-07-07T18:15:43.543+07:00,540284522688186865,224701,182379,184716,1360
1783422943561258151,2026-07-07T18:15:43.561+07:00,540284522688186865,224764,182434,184661,1287
1783422943579439969,2026-07-07T18:15:43.579+07:00,540284522688186865,224893,182554,184691,1333
1783422943597621787,2026-07-07T18:15:43.597+07:00,540284522688186865,224860,182535,184703,1319
1783422943615803605,2026-07-07T18:15:43.615+07:00,540284522688186865,224886,182538,184777,1287
1783422943633985423,2026-07-07T18:15:43.633+07:00,540284522688186865,224903,182551,184783,1245
1783422943652167241,2026-07-07T18:15:43.652+07:00,540284522688186865,224925,182534,184857,1299
1783422943670349059,2026-07-07T18:15:43.670+07:00,540284522688186865,224856,182562,184801,1263
1783422943688530877,2026-07-07T18:15:43.688+07:00,540284522688186865,224917,182491,184846,1284
1783422943706712695,2026-07-07T18:15:43.706+07:00,540284522688186865,224818,182529,184899,1265
1783422943724894513,2026-07-07T18:15:43.724+07:00,540284522688186865,224802,182545,184879,1294
1783422943743076331,2026-07-07T18:15:43.743+07:00,540284522688186865,224825,182597,184958,1337
1783422943761258149,2026-07-07T18:15:43.761+07:00,540284522688186865,224813,182498,184970,1285
1783422943779439967,2026-07-07T18:15:43.779+07:00,540284522688186865,224779,182572,185128,1327
1783422943797621785,2026-07-07T18:15:43.797+07:00,540284522688186865,224811,182522,185200,1327
1783422943815803603,2026-07-07T18:15:43.815+07:00,540284522688186865,224837,182457,185150,1333
1783422943833985421,2026-07-07T18:15:43.833+07:00,540284522688186865,224806,182376,185089,1313
1783422943852167239,2026-07-07T18:15:43.852+07:00,540284522688186865,224624,182225,184900,1300
1783422943870349057,2026-07-07T18:15:43.870+07:00,540284522688186865,224410,182018,184753,1303
1783422943888530875,2026-07-07T18:15:43.888+07:00,540284522688186865,224231,181906,184574,1366
1783422943906712693,2026-07-07T18:15:43.906+07:00,540284522688186865,223934,181633,184462,1280
1783422943924894511,2026-07-07T18:15:43.924+07:00,540284522688186865,223697,181434,184270,1267
1783422943943076329,2026-07-07T18:15:43.943+07:00,540284522688186865,223518,181262,184177,1263
1783422943961258147,2026-07-07T18:15:43.961+07:00,540284522688186865,223333,181153,184039,1332
1783422943979439965,2026-07-07T18:15:43.979+07:00,540284522688186865,223146,181029,183955,1285
1783422943997621783,2026-07-07T18:15:43.997+07:00,540284522688186865,222996,180933,183912,1293
1783422944015803601,2026-07-07T18:15:44.015+07:00,540284522688186865,222875,180840,183895,1342
1783422944033985419,2026-07-07T18:15:44.033+07:00,540284522688186865,222756,180694,183763,1251
1783422944052167237,2026-07-07T18:15:44.052+07:00,540284522688186865,222589,180657,183742,1288
1783422944070349055,2026-07-07T18:15:44.070+07:00,540284522688186865,222490,180666,183750,1299
1783422944088530873,2026-07-07T18:15:44.088+07:00,540284522688186865,222362,180544,183633,1301
1783422944106712691,2026-07-07T18:15:44.106+07:00,540284522688186865,222262,180527,183555,1263
1783422944124894509,2026-07-07T18:15:44.124+07:00,540284522688186865,222121,180384,183473,1281
1783422944143076327,2026-07-07T18:15:44.143+07:00,540284523452447613,221957,180290,183399,1243
1783422944161258145,2026-07-07T18:15:44.161+07:00,540284523452447613,221857,180166,183375,1223
1783422944179439963,2026-07-07T18:15:44.179+07:00,540284523452447613,221710,180089,183294,1314
1783422944197621781,2026-07-07T18:15:44.197+07:00,540284523452447613,221553,180031,183213,1262
1783422944215803599,2026-07-07T18:15:44.215+07:00,540284523452447613,221529,179968,183183,1303
1783422944233985417,2026-07-07T18:15:44.233+07:00,540284523452447613,221432,179909,183142,1272
1783422944252167235,2026-07-07T18:15:44.252+07:00,540284523452447613,221386,179852,183009,1243
1783422944270349053,2026-07-07T18:15:44.270+07:00,540284523452447613,221368,179878,183083,1253
1783422944288530871,2026-07-07T18:15:44.288+07:00,540284523452447613,221353,179823,183048,1283
1783422944306712689,2026-07-07T18:15:44.306+07:00,540284523452447613,221277,179727,183151,1259
1783422944324894507,2026-07-07T18:15:44.324+07:00,540284523452447613,221296,179690,183156,1266
1783422944343076325,2026-07-07T18:15:44.343+07:00,540284523452447613,221222,179672,183083,1292
1783422944361258143,2026-07-07T18:15:44.361+07:00,540284523452447613,221195,179594,183085,1277
1783422944379439961,2026-07-07T18:15:44.379+07:00,540284523452447613,221151,179549,183067,1302
1783422944397621779,2026-07-07T18:15:44.397+07:00,540284523452447613,221155,179486,183049,1303
1783422944415803597,2026-07-07T18:15:44.415+07:00,540284523452447613,221187,179476,183082,1369
1783422944433985415,2026-07-07T18:15:44.433+07:00,540284523452447613,221109,179437,183105,1348
1783422944452167233,2026-07-07T18:15:44.452+07:00,540284523452447613,221023,179340,183032,1305
1783422944470349051,2026-07-07T18:15:44.470+07:00,540284523452447613,221021,179275,182968,1293
1783422944488530869,2026-07-07T18:15:44.488+07:00,540284523452447613,221032,179334,183078,1341
1783422944506712687,2026-07-07T18:15:44.506+07:00,540284523452447613,221050,179310,183066,1301
1783422944524894505,2026-07-07T18:15:44.524+07:00,540284523452447613,221194,179395,183141,1320
1783422944543076323,2026-07-07T18:15:44.543+07:00,540284523452447613,221296,179420,183220,1300
1783422944561258141,2026-07-07T18:15:44.561+07:00,540284523452447613,221391,179580,183314,1311
1783422944579439959,2026-07-07T18:15:44.579+07:00,540284523452447613,221449,179639,183307,1304
1783422944597621777,2026-07-07T18:15:44.597+07:00,540284523452447613,221371,179597,183271,1332
1783422944615803595,2026-07-07T18:15:44.615+07:00,540284523452447613,221261,179559,183209,1280
1783422944633985413,2026-07-07T18:15:44.633+07:00,540284523452447613,221037,179437,183085,1267
1783422944652167231,2026-07-07T18:15:44.652+07:00,540284523452447613,220728,179210,182890,1272
1783422944670349049,2026-07-07T18:15:44.670+07:00,540284523452447613,220462,178987,182669,1240
1783422944688530867,2026-07-07T18:15:44.688+07:00,540284523452447613,220236,178830,182485,1288
1783422944706712685,2026-07-07T18:15:44.706+07:00,540284523452447613,220035,178704,182331,1277
1783422944724894503,2026-07-07T18:15:44.724+07:00,540284523452447613,219797,178520,182172,1285
1783422944743076321,2026-07-07T18:15:44.743+07:00,540284523452447613,219535,178348,181982,1280
1783422944761258139,2026-07-07T18:15:44.761+07:00,540284523452447613,219249,178115,181713,1266
1783422944779439957,2026-07-07T18:15:44.779+07:00,540284523452447613,218901,177831,181461,1252
1783422944797621775,2026-07-07T18:15:44.797+07:00,540284523452447613,218526,177548,181198,1292
1783422944815803593,2026-07-07T18:15:44.815+07:00,540284523452447613,218173,177199,180944,1290
1783422944833985411,2026-07-07T18:15:44.833+07:00,540284523452447613,217809,176933,180657,1256
1783422944852167229,2026-07-07T18:15:44.852+07:00,540284523452447613,217415,176643,180433,1239
1783422944870349047,2026-07-07T18:15:44.870+07:00,540284523452447613,217216,176406,180205,1300
1783422944888530865,2026-07-07T18:15:44.888+07:00,540284523452447613,217079,176296,180049,1306
1783422944906712683,2026-07-07T18:15:44.906+07:00,540284524216680893,217080,176249,179884,1313
1783422944924894501,2026-07-07T18:15:44.924+07:00,540284524216680893,217164,176314,179798,1245
1783422944943076319,2026-07-07T18:15:44.943+07:00,540284524216680893,217422,176546,179964,1275
1783422944961258137,2026-07-07T18:15:44.961+07:00,540284524216680893,217709,176829,180207,1282
1783422944979439955,2026-07-07T18:15:44.979+07:00,540284524216680893,217997,177215,180465,1289
1783422944997621773,2026-07-07T18:15:44.997+07:00,540284524216680893,218358,177470,180664,1299
1783422945015803591,2026-07-07T18:15:45.015+07:00,540284524216680893,218638,177798,180950,1259
1783422945033985409,2026-07-07T18:15:45.033+07:00,540284524216680893,219001,178071,181209,1280
1783422945052167227,2026-07-07T18:15:45.052+07:00,540284524216680893,219302,178340,181500,1283
1783422945070349045,2026-07-07T18:15:45.070+07:00,540284524216680893,219495,178701,181725,1233
1783422945088530863,2026-07-07T18:15:45.088+07:00,540284524216680893,219738,178935,181889,1297
1783422945106712681,2026-07-07T18:15:45.106+07:00,540284524216680893,219910,179145,182068,1264
1783422945124894499,2026-07-07T18:15:45.124+07:00,540284524216680893,220075,179285,182284,1251
1783422945143076317,2026-07-07T18:15:45.143+07:00,540284524216680893,220383,179536,182485,1254
1783422945161258135,2026-07-07T18:15:45.161+07:00,540284524216680893,220609,179759,182793,1223
1783422945179439953,2026-07-07T18:15:45.179+07:00,540284524216680893,220930,180002,183089,1318
1783422945197621771,2026-07-07T18:15:45.197+07:00,540284524216680893,221127,180231,183259,1267
1783422945215803589,2026-07-07T18:15:45.215+07:00,540284524216680893,221414,180453,183441,1249
1783422945233985407,2026-07-07T18:15:45.233+07:00,540284524216680893,221646,180566,183627,1270
1783422945252167225,2026-07-07T18:15:45.252+07:00,540284524216680893,221866,180769,183833,1254
1783422945270349043,2026-07-07T18:15:45.270+07:00,540284524216680893,222126,180927,184014,1275
1783422945288530861,2026-07-07T18:15:45.288+07:00,540284524216680893,222313,181143,184206,1266
1783422945306712679,2026-07-07T18:15:45.306+07:00,540284524216680893,222475,181315,184401,1276
1783422945324894497,2026-07-07T18:15:45.324+07:00,540284524216680893,222626,181410,184467,1325
1783422945343076315,2026-07-07T18:15:45.343+07:00,540284524216680893,222708,181425,184634,1331
1783422945361258133,2026-07-07T18:15:45.361+07:00,540284524216680893,222719,181436,184594,1290
1783422945379439951,2026-07-07T18:15:45.379+07:00,540284524216680893,222632,181416,184604,1337
1783422945397621769,2026-07-07T18:15:45.397+07:00,540284524216680893,222556,181378,184614,1322
1783422945415803587,2026-07-07T18:15:45.415+07:00,540284524216680893,222449,181297,184545,1269
1783422945433985405,2026-07-07T18:15:45.433+07:00,540284524216680893,222412,181267,184490,1287
1783422945452167223,2026-07-07T18:15:45.452+07:00,540284524216680893,222386,181252,184544,1296
1783422945470349041,2026-07-07T18:15:45.470+07:00,540284524216680893,222321,181208,184450,1283
1783422945488530859,2026-07-07T18:15:45.488+07:00,540284524216680893,222334,181235,184485,1274
1783422945506712677,2026-07-07T18:15:45.506+07:00,540284524216680893,222320,181210,184497,1220
1783422945524894495,2026-07-07T18:15:45.524+07:00,540284524216680893,222314,181210,184475,1248
1783422945543076313,2026-07-07T18:15:45.543+07:00,540284524216680893,222291,181200,184465,1276
1783422945561258131,2026-07-07T18:15:45.561+07:00,540284524216680893,222291,181225,184437,1318
1783422945579439949,2026-07-07T18:15:45.579+07:00,540284524216680893,222240,181220,184421,1273
1783422945597621767,2026-07-07T18:15:45.597+07:00,540284524216680893,222063,181135,184357,1293
1783422945615803585,2026-07-07T18:15:45.615+07:00,540284524216680893,221970,180967,184267,1327
1783422945633985403,2026-07-07T18:15:45.633+07:00,540284524216680893,221814,180914,184168,1313
1783422945652167221,2026-07-07T18:15:45.652+07:00,540284524216680893,221689,180801,184023,1316
1783422945670349039,2026-07-07T18:15:45.670+07:00,540284524889946122,221637,180625,183929,1326
1783422945688530857,2026-07-07T18:15:45.688+07:00,540284524889946122,221560,180540,183860,1317
1783422945706712675,2026-07-07T18:15:45.706+07:00,540284524889946122,221547,180454,183803,1239
1783422945724894493,2026-07-07T18:15:45.724+07:00,540284524889946122,221615,180348,183843,1289
1783422945743076311,2026-07-07T18:15:45.743+07:00,540284524889946122,221647,180346,183814,1355
1783422945761258129,2026-07-07T18:15:45.761+07:00,540284524889946122,221715,180272,183900,1288
1783422945779439947,2026-07-07T18:15:45.779+07:00,540284524889946122,221871,180336,184029,1309
1783422945797621765,2026-07-07T18:15:45.797+07:00,540284524889946122,221972,180350,184066,1283
1783422945815803583,2026-07-07T18:15:45.815+07:00,540284524889946122,222182,180373,184233,1328
1783422945833985401,2026-07-07T18:15:45.833+07:00,540284524889946122,222337,180389,184300,1289
1783422945852167219,2026-07-07T18:15:45.852+07:00,540284524889946122,222424,180418,184401,1342
1783422945870349037,2026-07-07T18:15:45.870+07:00,540284524889946122,222479,180362,184464,1338
1783422945888530855,2026-07-07T18:15:45.888+07:00,540284524889946122,222640,180382,184575,1299
1783422945906712673,2026-07-07T18:15:45.906+07:00,540284524889946122,222811,180387,184645,1262
1783422945924894491,2026-07-07T18:15:45.924+07:00,540284524889946122,223046,180427,184749,1218
1783422945943076309,2026-07-07T18:15:45.943+07:00,540284524889946122,223317,180476,184955,1183
1783422945961258127,2026-07-07T18:15:45.961+07:00,540284524889946122,223749,180577,185299,1264
1783422945979439945,2026-07-07T18:15:45.979+07:00,540284524889946122,224019,180618,185543,1341
1783422945997621763,2026-07-07T18:15:45.997+07:00,540284524889946122,224400,180618,185739,1279
1783422946015803581,2026-07-07T18:15:46.015+07:00,540284524889946122,224777,180785,185965,1340
1783422946033985399,2026-07-07T18:15:46.033+07:00,540284524889946122,224940,180837,186087,1240
1783422946052167217,2026-07-07T18:15:46.052+07:00,540284524889946122,225005,180924,186342,1307
1783422946070349035,2026-07-07T18:15:46.070+07:00,540284524889946122,225081,180875,186382,1361
1783422946088530853,2026-07-07T18:15:46.088+07:00,540284524889946122,225089,180682,186283,1362
1783422946106712671,2026-07-07T18:15:46.106+07:00,540284524889946122,225215,180620,186195,1324
1783422946124894489,2026-07-07T18:15:46.124+07:00,540284524889946122,225522,180856,186193,1279
1783422946143076307,2026-07-07T18:15:46.143+07:00,540284524889946122,225827,181193,186265,1311
1783422946161258125,2026-07-07T18:15:46.161+07:00,540284524889946122,226260,181704,186547,1310
1783422946179439943,2026-07-07T18:15:46.179+07:00,540284524889946122,226891,182101,186985,1288
1783422946197621761,2026-07-07T18:15:46.197+07:00,540284524889946122,227611,182549,187493,1330
1783422946215803579,2026-07-07T18:15:46.215+07:00,540284524889946122,228410,182985,188145,1396
1783422946233985397,2026-07-07T18:15:46.233+07:00,540284524889946122,229157,183246,188732,1380
1783422946252167215,2026-07-07T18:15:46.252+07:00,540284524889946122,229803,183426,188956,1351
1783422946270349033,2026-07-07T18:15:46.270+07:00,540284524889946122,230466,183832,189572,1350
1783422946288530851,2026-07-07T18:15:46.288+07:00,540284524889946122,230623,183820,189672,1325
1783422946306712669,2026-07-07T18:15:46.306+07:00,540284524889946122,231194,184206,189825,1289
1783422946324894487,2026-07-07T18:15:46.324+07:00,540284524889946122,231493,184507,190128,1337
1783422946343076305,2026-07-07T18:15:46.343+07:00,540284525654193136,231614,184534,190398,1361
1783422946361258123,2026-07-07T18:15:46.361+07:00,540284525654193136,231679,184636,190562,1345
1783422946379439941,2026-07-07T18:15:46.379+07:00,540284525654193136,231714,184842,190772,1323
1783422946397621759,2026-07-07T18:15:46.397+07:00,540284525654193136,231940,184979,190958,1357
1783422946415803577,2026-07-07T18:15:46.415+07:00,540284525654193136,232043,185101,191154,1279
1783422946433985395,2026-07-07T18:15:46.433+07:00,540284525654193136,232166,185217,191305,1247
1783422946452167213,2026-07-07T18:15:46.452+07:00,540284525654193136,232346,185363,191557,1246
1783422946470349031,2026-07-07T18:15:46.470+07:00,540284525654193136,232561,185523,191746,1292
1783422946488530849,2026-07-07T18:15:46.488+07:00,540284525654193136,232716,185603,191880,1286
1783422946506712667,2026-07-07T18:15:46.506+07:00,540284525654193136,232859,185739,192019,1336
1783422946524894485,2026-07-07T18:15:46.524+07:00,540284525654193136,233068,185787,192180,1297
1783422946543076303,2026-07-07T18:15:46.543+07:00,540284525654193136,233159,185958,192315,1246
1783422946561258121,2026-07-07T18:15:46.561+07:00,540284525654193136,233308,185991,192490,1314
1783422946579439939,2026-07-07T18:15:46.579+07:00,540284525654193136,233405,186109,192596,1294
1783422946597621757,2026-07-07T18:15:46.597+07:00,540284525654193136,233611,186251,192740,1315
1783422946615803575,2026-07-07T18:15:46.615+07:00,540284525654193136,233703,186328,192813,1309
1783422946633985393,2026-07-07T18:15:46.633+07:00,540284525654193136,233779,186370,192974,1247
1783422946652167211,2026-07-07T18:15:46.652+07:00,540284525654193136,233973,186466,193117,1325
1783422946670349029,2026-07-07T18:15:46.670+07:00,540284525654193136,234077,186510,193202,1356
1783422946688530847,2026-07-07T18:15:46.688+07:00,540284525654193136,234243,186596,193330,1342
1783422946706712665,2026-07-07T18:15:46.706+07:00,540284525654193136,234307,186664,193378,1254
1783422946724894483,2026-07-07T18:15:46.724+07:00,540284525654193136,234430,186733,193511,1320
1783422946743076301,2026-07-07T18:15:46.743+07:00,540284525654193136,234524,186751,193615,1327
1783422946761258119,2026-07-07T18:15:46.761+07:00,540284525654193136,234576,186793,193770,1342
1783422946779439937,2026-07-07T18:15:46.779+07:00,540284525654193136,234699,186859,193869,1360
1783422946797621755,2026-07-07T18:15:46.797+07:00,540284525654193136,234692,186826,193893,1297
1783422946815803573,2026-07-07T18:15:46.815+07:00,540284525654193136,234752,186897,194062,1308
1783422946833985391,2026-07-07T18:15:46.833+07:00,540284525654193136,234793,186956,194182,1361
1783422946852167209,2026-07-07T18:15:46.852+07:00,540284525654193136,234902,187012,194347,1306
1783422946870349027,2026-07-07T18:15:46.870+07:00,540284525654193136,235028,187075,194518,1332
1783422946888530845,2026-07-07T18:15:46.888+07:00,540284525654193136,235173,187150,194794,1389
1783422946906712663,2026-07-07T18:15:46.906+07:00,540284525654193136,235249,187273,194950,1353
1783422946924894481,2026-07-07T18:15:46.924+07:00,540284525654193136,235403,187420,195144,1385
1783422946943076299,2026-07-07T18:15:46.943+07:00,540284525654193136,235531,187551,195434,1393
1783422946961258117,2026-07-07T18:15:46.961+07:00,540284525654193136,235702,187702,195633,1390
1783422946979439935,2026-07-07T18:15:46.979+07:00,540284525654193136,235842,187902,195843,1354
1783422946997621753,2026-07-07T18:15:46.997+07:00,540284525654193136,235960,188042,196002,1325
1783422947015803571,2026-07-07T18:15:47.015+07:00,540284525654193136,236133,188199,196276,1387
1783422947033985389,2026-07-07T18:15:47.033+07:00,540284525654193136,236248,188430,196454,1353
1783422947052167207,2026-07-07T18:15:47.052+07:00,540284525654193136,236353,188558,196675,1379
1783422947070349025,2026-07-07T18:15:47.070+07:00,540284525654193136,236521,188714,196762,1374
1783422947088530843,2026-07-07T18:15:47.088+07:00,540284525654193136,236643,188893,196931,1371
1783422947106712661,2026-07-07T18:15:47.106+07:00,540284526418403526,236700,189079,197029,1365
1783422947124894479,2026-07-07T18:15:47.124+07:00,540284526418403526,236822,189279,197090,1345
1783422947143076297,2026-07-07T18:15:47.143+07:00,540284526418403526,236913,189450,197052,1353
1783422947161258115,2026-07-07T18:15:47.161+07:00,540284526418403526,236914,189576,197096,1351
1783422947179439933,2026-07-07T18:15:47.179+07:00,540284526418403526,236925,189652,197037,1331
1783422947197621751,2026-07-07T18:15:47.197+07:00,540284526418403526,236927,189810,197000,1355
1783422947215803569,2026-07-07T18:15:47.215+07:00,540284526418403526,236936,189996,196940,1376
1783422947233985387,2026-07-07T18:15:47.233+07:00,540284526418403526,236885,190158,196905,1309
1783422947252167205,2026-07-07T18:15:47.252+07:00,540284526418403526,236944,190252,196864,1300
1783422947270349023,2026-07-07T18:15:47.270+07:00,540284526418403526,236975,190453,196957,1307
1783422947288530841,2026-07-07T18:15:47.288+07:00,540284526418403526,236991,190657,196942,1355
1783422947306712659,2026-07-07T18:15:47.306+07:00,540284526418403526,237059,190760,197005,1354
1783422947324894477,2026-07-07T18:15:47.324+07:00,540284526418403526,237095,190859,197106,1323
1783422947343076295,2026-07-07T18:15:47.343+07:00,540284526418403526,237357,191016,197363,1325
1783422947361258113,2026-07-07T18:15:47.361+07:00,540284526418403526,237452,191130,197488,1332
1783422947379439931,2026-07-07T18:15:47.379+07:00,540284526418403526,237546,191240,197583,1321
1783422947397621749,2026-07-07T18:15:47.397+07:00,540284526418403526,237608,191251,197703,1297
1783422947415803567,2026-07-07T18:15:47.415+07:00,540284526418403526,237627,191165,197731,1299
1783422947433985385,2026-07-07T18:15:47.433+07:00,540284526418403526,237669,191213,197823,1334
1783422947452167203,2026-07-07T18:15:47.452+07:00,540284526418403526,237555,191191,197801,1334
1783422947470349021,2026-07-07T18:15:47.470+07:00,540284526418403526,237521,191208,197912,1266
1783422947488530839,2026-07-07T18:15:47.488+07:00,540284526418403526,237561,191239,197926,1288
1783422947506712657,2026-07-07T18:15:47.506+07:00,540284526418403526,237529,191215,197921,1270
1783422947524894475,2026-07-07T18:15:47.524+07:00,540284526418403526,237588,191232,197996,1276
1783422947543076293,2026-07-07T18:15:47.543+07:00,540284526418403526,237540,191245,197967,1302
1783422947561258111,2026-07-07T18:15:47.561+07:00,540284526418403526,237554,191368,198021,1253
1783422947579439929,2026-07-07T18:15:47.579+07:00,540284526418403526,237544,191405,198003,1277
1783422947597621747,2026-07-07T18:15:47.597+07:00,540284526418403526,237541,191383,197925,1260
1783422947615803565,2026-07-07T18:15:47.615+07:00,540284526418403526,237546,191469,197919,1302
1783422947633985383,2026-07-07T18:15:47.633+07:00,540284526418403526,237539,191482,197903,1299
1783422947652167201,2026-07-07T18:15:47.652+07:00,540284526418403526,237648,191543,198006,1274
1783422947670349019,2026-07-07T18:15:47.670+07:00,540284526418403526,237640,191618,197997,1310
1783422947688530837,2026-07-07T18:15:47.688+07:00,540284526418403526,237676,191681,198081,1305
1783422947706712655,2026-07-07T18:15:47.706+07:00,540284526418403526,237711,191728,198176,1305
1783422947724894473,2026-07-07T18:15:47.724+07:00,540284526418403526,237758,191830,198191,1340
1783422947743076291,2026-07-07T18:15:47.743+07:00,540284526418403526,237801,191881,198258,1316
1783422947761258109,2026-07-07T18:15:47.761+07:00,540284526418403526,237806,191951,198291,1293
1783422947779439927,2026-07-07T18:15:47.779+07:00,540284526418403526,237873,192001,198343,1343
1783422947797621745,2026-07-07T18:15:47.797+07:00,540284526418403526,237951,192112,198439,1251
1783422947815803563,2026-07-07T18:15:47.815+07:00,540284526418403526,238061,192245,198506,1345
1783422947833985381,2026-07-07T18:15:47.833+07:00,540284526418403526,238047,192366,198499,1343
1783422947852167199,2026-07-07T18:15:47.852+07:00,540284526418403526,238138,192426,198458,1323
1783422947870349017,2026-07-07T18:15:47.870+07:00,540284527182668856,238209,192523,198456,1321
1783422947888530835,2026-07-07T18:15:47.888+07:00,540284527182668856,238272,192663,198473,1313
1783422947906712653,2026-07-07T18:15:47.906+07:00,540284527182668856,238229,192693,198424,1276
1783422947924894471,2026-07-07T18:15:47.924+07:00,540284527182668856,238389,192851,198505,1301
1783422947943076289,2026-07-07T18:15:47.943+07:00,540284527182668856,238421,192972,198520,1311
1783422947961258107,2026-07-07T18:15:47.961+07:00,540284527182668856,238410,193041,198488,1310
1783422947979439925,2026-07-07T18:15:47.979+07:00,540284527182668856,238295,192976,198378,1279
1783422947997621743,2026-07-07T18:15:47.997+07:00,540284527182668856,238222,192979,198302,1311
1783422948015803561,2026-07-07T18:15:48.015+07:00,540284527182668856,238057,192829,198032,1287
1783422948033985379,2026-07-07T18:15:48.033+07:00,540284527182668856,237827,192869,197882,1321
1783422948052167197,2026-07-07T18:15:48.052+07:00,540284527182668856,237647,192752,197705,1321
1783422948070349015,2026-07-07T18:15:48.070+07:00,540284527182668856,237390,192638,197467,1283
1783422948088530833,2026-07-07T18:15:48.088+07:00,540284527182668856,237234,192586,197265,1368
1783422948106712651,2026-07-07T18:15:48.106+07:00,540284527182668856,237035,192533,197083,1305
1783422948124894469,2026-07-07T18:15:48.124+07:00,540284527182668856,236878,192466,196967,1338
1783422948143076287,2026-07-07T18:15:48.143+07:00,540284527182668856,236586,192339,196758,1271
1783422948161258105,2026-07-07T18:15:48.161+07:00,540284527182668856,236465,192285,196609,1252
1783422948179439923,2026-07-07T18:15:48.179+07:00,540284527182668856,236302,192296,196451,1342
1783422948197621741,2026-07-07T18:15:48.197+07:00,540284527182668856,236141,192249,196355,1300
1783422948215803559,2026-07-07T18:15:48.215+07:00,540284527182668856,235931,192089,196197,1247
1783422948233985377,2026-07-07T18:15:48.233+07:00,540284527182668856,235792,192010,196043,1255
1783422948252167195,2026-07-07T18:15:48.252+07:00,540284527182668856,235607,191991,195903,1284
1783422948270349013,2026-07-07T18:15:48.270+07:00,540284527182668856,235516,191902,195750,1272
1783422948288530831,2026-07-07T18:15:48.288+07:00,540284527182668856,235414,191816,195631,1289
1783422948306712649,2026-07-07T18:15:48.306+07:00,540284527182668856,235316,191807,195538,1303
1783422948324894467,2026-07-07T18:15:48.324+07:00,540284527182668856,235206,191752,195441,1318
1783422948343076285,2026-07-07T18:15:48.343+07:00,540284527182668856,235113,191719,195260,1280
1783422948361258103,2026-07-07T18:15:48.361+07:00,540284527182668856,235021,191761,195251,1307
1783422948379439921,2026-07-07T18:15:48.379+07:00,540284527182668856,234928,191658,195127,1342
1783422948397621739,2026-07-07T18:15:48.397+07:00,540284527182668856,234950,191655,195191,1323
1783422948415803557,2026-07-07T18:15:48.415+07:00,540284527182668856,235002,191685,195192,1317
1783422948433985375,2026-07-07T18:15:48.433+07:00,540284527182668856,235071,191760,195251,1297
1783422948452167193,2026-07-07T18:15:48.452+07:00,540284527182668856,235126,191894,195371,1306
1783422948470349011,2026-07-07T18:15:48.470+07:00,540284527182668856,235212,191999,195477,1310
1783422948488530829,2026-07-07T18:15:48.488+07:00,540284527182668856,235198,191998,195588,1280
1783422948506712647,2026-07-07T18:15:48.506+07:00,540284527182668856,235217,191923,195674,1308
1783422948524894465,2026-07-07T18:15:48.524+07:00,540284527182668856,235470,191973,195818,1349
1783422948543076283,2026-07-07T18:15:48.543+07:00,540284527182668856,235663,191994,195965,1290
1783422948561258101,2026-07-07T18:15:48.561+07:00,540284527182668856,235921,192038,196048,1328
1783422948579439919,2026-07-07T18:15:48.579+07:00,540284527182668856,236089,192023,195985,1288
1783422948597621737,2026-07-07T18:15:48.597+07:00,540284527182668856,236243,192061,195800,1286
1783422948615803555,2026-07-07T18:15:48.615+07:00,540284527182668856,236337,192066,195621,1287
1783422948633985373,2026-07-07T18:15:48.633+07:00,540284527946903660,236455,192074,195499,1321
1783422948652167191,2026-07-07T18:15:48.652+07:00,540284527946903660,236528,192140,195419,1303
1783422948670349009,2026-07-07T18:15:48.670+07:00,540284527946903660,236714,192220,195352,1286
1783422948688530827,2026-07-07T18:15:48.688+07:00,540284527946903660,236973,192275,195428,1310
1783422948706712645,2026-07-07T18:15:48.706+07:00,540284527946903660,237221,192457,195481,1297
1783422948724894463,2026-07-07T18:15:48.724+07:00,540284527946903660,237363,192511,195515,1246
1783422948743076281,2026-07-07T18:15:48.743+07:00,540284527946903660,237640,192669,195725,1304
1783422948761258099,2026-07-07T18:15:48.761+07:00,540284527946903660,237899,192640,195768,1317
1783422948779439917,2026-07-07T18:15:48.779+07:00,540284527946903660,238046,192664,195751,1217
1783422948797621735,2026-07-07T18:15:48.797+07:00,540284527946903660,238232,192695,195749,1281
1783422948815803553,2026-07-07T18:15:48.815+07:00,540284527946903660,238344,192726,195803,1322
1783422948833985371,2026-07-07T18:15:48.833+07:00,540284527946903660,238548,192824,195860,1324
1783422948852167189,2026-07-07T18:15:48.852+07:00,540284527946903660,238718,192830,195936,1343
1783422948870349007,2026-07-07T18:15:48.870+07:00,540284527946903660,238836,192789,195957,1294
1783422948888530825,2026-07-07T18:15:48.888+07:00,540284527946903660,238940,192819,196001,1311
1783422948906712643,2026-07-07T18:15:48.906+07:00,540284527946903660,239031,192761,196111,1306
1783422948924894461,2026-07-07T18:15:48.924+07:00,540284527946903660,239150,192741,196140,1258
1783422948943076279,2026-07-07T18:15:48.943+07:00,540284527946903660,239260,192686,196213,1277
1783422948961258097,2026-07-07T18:15:48.961+07:00,540284527946903660,239429,192801,196352,1308
1783422948979439915,2026-07-07T18:15:48.979+07:00,540284527946903660,239438,192794,196407,1314
1783422948997621733,2026-07-07T18:15:48.997+07:00,540284527946903660,239526,192862,196433,1281
1783422949015803551,2026-07-07T18:15:49.015+07:00,540284527946903660,239713,192904,196493,1327
1783422949033985369,2026-07-07T18:15:49.033+07:00,540284527946903660,239775,192939,196573,1291
1783422949052167187,2026-07-07T18:15:49.052+07:00,540284527946903660,239857,193031,196664,1285
1783422949070349005,2026-07-07T18:15:49.070+07:00,540284527946903660,239922,193045,196710,1325
1783422949088530823,2026-07-07T18:15:49.088+07:00,540284527946903660,239926,193023,196775,1357
1783422949106712641,2026-07-07T18:15:49.106+07:00,540284527946903660,239974,193063,196728,1351
1783422949124894459,2026-07-07T18:15:49.124+07:00,540284527946903660,239959,193028,196854,1317
1783422949143076277,2026-07-07T18:15:49.143+07:00,540284527946903660,240082,193043,196903,1291
1783422949161258095,2026-07-07T18:15:49.161+07:00,540284527946903660,239981,193024,196943,1310
1783422949179439913,2026-07-07T18:15:49.179+07:00,540284527946903660,239873,192978,196837,1275
1783422949197621731,2026-07-07T18:15:49.197+07:00,540284527946903660,239798,192857,196819,1328
1783422949215803549,2026-07-07T18:15:49.215+07:00,540284527946903660,239634,192686,196739,1318
1783422949233985367,2026-07-07T18:15:49.233+07:00,540284527946903660,239473,192555,196547,1299
1783422949252167185,2026-07-07T18:15:49.252+07:00,540284527946903660,239329,192426,196441,1324
1783422949270349003,2026-07-07T18:15:49.270+07:00,540284527946903660,239174,192321,196447,1335
1783422949288530821,2026-07-07T18:15:49.288+07:00,540284527946903660,239140,192226,196398,1387
1783422949306712639,2026-07-07T18:15:49.306+07:00,540284527946903660,239057,192065,196384,1341
1783422949324894457,2026-07-07T18:15:49.324+07:00,540284527946903660,239018,192007,196440,1353
1783422949343076275,2026-07-07T18:15:49.343+07:00,540284527946903660,238997,191930,196426,1326
1783422949361258093,2026-07-07T18:15:49.361+07:00,540284527946903660,239036,191929,196511,1339
1783422949379439911,2026-07-07T18:15:49.379+07:00,540284527946903660,239059,191905,196578,1337
1783422949397621729,2026-07-07T18:15:49.397+07:00,540284528674757960,239116,191860,196622,1325
1783422949415803547,2026-07-07T18:15:49.415+07:00,540284528674757960,239200,191842,196791,1306
1783422949433985365,2026-07-07T18:15:49.433+07:00,540284528674757960,239263,191882,196842,1301
1783422949452167183,2026-07-07T18:15:49.452+07:00,540284528674757960,239325,191939,197003,1286
1783422949470349001,2026-07-07T18:15:49.470+07:00,540284528674757960,239389,191974,197097,1299
1783422949488530819,2026-07-07T18:15:49.488+07:00,540284528674757960,239427,192011,197147,1317
1783422949506712637,2026-07-07T18:15:49.506+07:00,540284528674757960,239507,192072,197262,1343
1783422949524894455,2026-07-07T18:15:49.524+07:00,540284528674757960,239497,192060,197393,1325
1783422949543076273,2026-07-07T18:15:49.543+07:00,540284528674757960,239634,192060,197473,1337
1783422949561258091,2026-07-07T18:15:49.561+07:00,540284528674757960,239713,192121,197594,1341
1783422949579439909,2026-07-07T18:15:49.579+07:00,540284528674757960,239749,192160,197684,1342
1783422949597621727,2026-07-07T18:15:49.597+07:00,540284528674757960,239756,192135,197741,1291
1783422949615803545,2026-07-07T18:15:49.615+07:00,540284528674757960,239755,192171,197879,1275
1783422949633985363,2026-07-07T18:15:49.633+07:00,540284528674757960,239835,192184,197957,1310
1783422949652167181,2026-07-07T18:15:49.652+07:00,540284528674757960,239875,192254,198015,1277
1783422949670348999,2026-07-07T18:15:49.670+07:00,540284528674757960,239929,192375,198080,1330
1783422949688530817,2026-07-07T18:15:49.688+07:00,540284528674757960,239943,192355,198109,1289
1783422949706712635,2026-07-07T18:15:49.706+07:00,540284528674757960,240041,192351,198141,1359
1783422949724894453,2026-07-07T18:15:49.724+07:00,540284528674757960,240081,192369,198256,1328
1783422949743076271,2026-07-07T18:15:49.743+07:00,540284528674757960,240084,192416,198199,1306
1783422949761258089,2026-07-07T18:15:49.761+07:00,540284528674757960,240096,192469,198295,1307
1783422949779439907,2026-07-07T18:15:49.779+07:00,540284528674757960,240026,192437,198218,1276
1783422949797621725,2026-07-07T18:15:49.797+07:00,540284528674757960,239953,192359,198092,1254
1783422949815803543,2026-07-07T18:15:49.815+07:00,540284528674757960,239791,192273,197885,1273
1783422949833985361,2026-07-07T18:15:49.833+07:00,540284528674757960,239611,192086,197776,1331
1783422949852167179,2026-07-07T18:15:49.852+07:00,540284528674757960,239341,191942,197579,1339
1783422949870348997,2026-07-07T18:15:49.870+07:00,540284528674757960,239121,191786,197447,1280
1783422949888530815,2026-07-07T18:15:49.888+07:00,540284528674757960,238967,191691,197295,1374
1783422949906712633,2026-07-07T18:15:49.906+07:00,540284528674757960,238709,191533,197129,1331
1783422949924894451,2026-07-07T18:15:49.924+07:00,540284528674757960,238451,191403,196992,1313
1783422949943076269,2026-07-07T18:15:49.943+07:00,540284528674757960,238332,191360,196972,1281
1783422949961258087,2026-07-07T18:15:49.961+07:00,540284528674757960,238137,191175,196812,1266
1783422949979439905,2026-07-07T18:15:49.979+07:00,540284528674757960,238015,191075,196743,1338
1783422949997621723,2026-07-07T18:15:49.997+07:00,540284528674757960,237883,191021,196621,1237
1783422950015803541,2026-07-07T18:15:50.015+07:00,540284528674757960,237728,190958,196459,1281
1783422950033985359,2026-07-07T18:15:50.033+07:00,540284528674757960,237564,190830,196351,1324
1783422950052167177,2026-07-07T18:15:50.052+07:00,540284528674757960,237375,190765,196163,1297
1783422950070348995,2026-07-07T18:15:50.070+07:00,540284528674757960,237228,190678,195976,1317
1783422950088530813,2026-07-07T18:15:50.088+07:00,540284528674757960,236880,190521,195663,1307
1783422950106712631,2026-07-07T18:15:50.106+07:00,540284528674757960,236490,190401,195392,1324
1783422950124894449,2026-07-07T18:15:50.124+07:00,540284529420778099,236084,190260,195102,1337
1783422950143076267,2026-07-07T18:15:50.143+07:00,540284529420778099,235640,190052,194808,1323
1783422950161258085,2026-07-07T18:15:50.161+07:00,540284529420778099,235089,189788,194499,1249
1783422950179439903,2026-07-07T18:15:50.179+07:00,540284529420778099,234526,189517,194376,1316
1783422950197621721,2026-07-07T18:15:50.197+07:00,540284529420778099,234051,189151,194184,1249
1783422950215803539,2026-07-07T18:15:50.215+07:00,540284529420778099,233850,188855,194005,1269
1783422950233985357,2026-07-07T18:15:50.233+07:00,540284529420778099,233587,188656,193934,1307
1783422950252167175,2026-07-07T18:15:50.252+07:00,540284529420778099,233361,188491,193758,1256
1783422950270348993,2026-07-07T18:15:50.270+07:00,540284529420778099,233189,188330,193616,1325
1783422950288530811,2026-07-07T18:15:50.288+07:00,540284529420778099,233067,188177,193566,1330
1783422950306712629,2026-07-07T18:15:50.306+07:00,540284529420778099,232943,188083,193492,1282
1783422950324894447,2026-07-07T18:15:50.324+07:00,540284529420778099,232831,187924,193427,1307
1783422950343076265,2026-07-07T18:15:50.343+07:00,540284529420778099,232654,187904,193357,1299
1783422950361258083,2026-07-07T18:15:50.361+07:00,540284529420778099,232515,187785,193221,1250
1783422950379439901,2026-07-07T18:15:50.379+07:00,540284529420778099,232313,187649,193022,1201
1783422950397621719,2026-07-07T18:15:50.397+07:00,540284529420778099,232089,187499,192984,1248
1783422950415803537,2026-07-07T18:15:50.415+07:00,540284529420778099,231928,187393,192731,1255
1783422950433985355,2026-07-07T18:15:50.433+07:00,540284529420778099,231662,187161,192543,1333
1783422950452167173,2026-07-07T18:15:50.452+07:00,540284529420778099,231217,186894,192199,1314
1783422950470348991,2026-07-07T18:15:50.470+07:00,540284529420778099,230815,186558,191857,1294
1783422950488530809,2026-07-07T18:15:50.488+07:00,540284529420778099,230366,186218,191519,1335
1783422950506712627,2026-07-07T18:15:50.506+07:00,540284529420778099,229900,185824,191108,1322
1783422950524894445,2026-07-07T18:15:50.524+07:00,540284529420778099,229467,185433,190718,1326
1783422950543076263,2026-07-07T18:15:50.543+07:00,540284529420778099,229058,185153,190455,1315
1783422950561258081,2026-07-07T18:15:50.561+07:00,540284529420778099,228646,184778,190110,1324
1783422950579439899,2026-07-07T18:15:50.579+07:00,540284529420778099,228327,184420,189827,1296
1783422950597621717,2026-07-07T18:15:50.597+07:00,540284529420778099,227952,184102,189506,1260
1783422950615803535,2026-07-07T18:15:50.615+07:00,540284529420778099,227655,183884,189213,1310
1783422950633985353,2026-07-07T18:15:50.633+07:00,540284529420778099,227363,183581,188940,1331
1783422950652167171,2026-07-07T18:15:50.652+07:00,540284529420778099,227110,183247,188670,1300
1783422950670348989,2026-07-07T18:15:50.670+07:00,540284529420778099,226864,183049,188481,1305
1783422950688530807,2026-07-07T18:15:50.688+07:00,540284529420778099,226632,182788,188230,1315
1783422950706712625,2026-07-07T18:15:50.706+07:00,540284529420778099,226494,182570,188064,1282
1783422950724894443,2026-07-07T18:15:50.724+07:00,540284529420778099,226307,182329,187828,1254
1783422950743076261,2026-07-07T18:15:50.743+07:00,540284529420778099,226127,182197,187751,1252
1783422950761258079,2026-07-07T18:15:50.761+07:00,540284529420778099,225954,182002,187621,1303
1783422950779439897,2026-07-07T18:15:50.779+07:00,540284529420778099,225814,181861,187513,1367
1783422950797621715,2026-07-07T18:15:50.797+07:00,540284529420778099,225670,181733,187407,1315
1783422950815803533,2026-07-07T18:15:50.815+07:00,540284529420778099,225400,181519,187256,1263
1783422950833985351,2026-07-07T18:15:50.833+07:00,540284529420778099,225285,181448,187161,1274
1783422950852167169,2026-07-07T18:15:50.852+07:00,540284529420778099,225222,181387,187068,1258
1783422950870348987,2026-07-07T18:15:50.870+07:00,540284530184996119,225147,181292,187009,1306
1783422950888530805,2026-07-07T18:15:50.888+07:00,540284530184996119,225041,181190,186930,1308
1783422950906712623,2026-07-07T18:15:50.906+07:00,540284530184996119,224953,181155,186898,1327
1783422950924894441,2026-07-07T18:15:50.924+07:00,540284530184996119,224921,181174,186878,1333
1783422950943076259,2026-07-07T18:15:50.943+07:00,540284530184996119,224907,181119,186875,1324
1783422950961258077,2026-07-07T18:15:50.961+07:00,540284530184996119,224849,181082,186856,1224
1783422950979439895,2026-07-07T18:15:50.979+07:00,540284530184996119,224872,181067,186866,1266
1783422950997621713,2026-07-07T18:15:50.997+07:00,540284530184996119,224870,181072,186746,1300
1783422951015803531,2026-07-07T18:15:51.015+07:00,540284530184996119,224822,181043,186758,1290
1783422951033985349,2026-07-07T18:15:51.033+07:00,540284530184996119,224688,180920,186631,1282
1783422951052167167,2026-07-07T18:15:51.052+07:00,540284530184996119,224642,180987,186687,1301
1783422951070348985,2026-07-07T18:15:51.070+07:00,540284530184996119,224682,180978,186692,1288
1783422951088530803,2026-07-07T18:15:51.088+07:00,540284530184996119,224608,181035,186687,1304
1783422951106712621,2026-07-07T18:15:51.106+07:00,540284530184996119,224519,180971,186656,1300
1783422951124894439,2026-07-07T18:15:51.124+07:00,540284530184996119,224475,180890,186627,1291
1783422951143076257,2026-07-07T18:15:51.143+07:00,540284530184996119,224518,180847,186621,1324
1783422951161258075,2026-07-07T18:15:51.161+07:00,540284530184996119,224587,180768,186591,1296
1783422951179439893,2026-07-07T18:15:51.179+07:00,540284530184996119,224871,180865,186747,1305
1783422951197621711,2026-07-07T18:15:51.197+07:00,540284530184996119,225174,181122,186945,1349
1783422951215803529,2026-07-07T18:15:51.215+07:00,540284530184996119,225357,181491,187240,1315
1783422951233985347,2026-07-07T18:15:51.233+07:00,540284530184996119,225556,181746,187666,1253
1783422951252167165,2026-07-07T18:15:51.252+07:00,540284530184996119,225777,182037,188121,1310
1783422951270348983,2026-07-07T18:15:51.270+07:00,540284530184996119,226007,182228,188541,1352
1783422951288530801,2026-07-07T18:15:51.288+07:00,540284530184996119,226144,182285,188853,1318
1783422951306712619,2026-07-07T18:15:51.306+07:00,540284530184996119,226355,182331,189095,1262
1783422951324894437,2026-07-07T18:15:51.324+07:00,540284530184996119,226549,182272,189291,1302
1783422951343076255,2026-07-07T18:15:51.343+07:00,540284530184996119,226746,182161,189487,1340
1783422951361258073,2026-07-07T18:15:51.361+07:00,540284530184996119,226927,181991,189635,1318
1783422951379439891,2026-07-07T18:15:51.379+07:00,540284530184996119,227204,181931,189885,1290
1783422951397621709,2026-07-07T18:15:51.397+07:00,540284530184996119,227483,182041,189913,1284
1783422951415803527,2026-07-07T18:15:51.415+07:00,540284530184996119,227708,182144,189689,1281
1783422951433985345,2026-07-07T18:15:51.433+07:00,540284530184996119,227852,182138,189411,1322
1783422951452167163,2026-07-07T18:15:51.452+07:00,540284530184996119,227690,182029,189182,1333
1783422951470348981,2026-07-07T18:15:51.470+07:00,540284530184996119,227371,181832,189120,1362
1783422951488530799,2026-07-07T18:15:51.488+07:00,540284530184996119,227003,181507,189116,1304
1783422951506712617,2026-07-07T18:15:51.506+07:00,540284530184996119,226666,181266,189161,1319
1783422951524894435,2026-07-07T18:15:51.524+07:00,540284530184996119,226391,181114,189142,1263
1783422951543076253,2026-07-07T18:15:51.543+07:00,540284530184996119,226278,180999,189262,1294
1783422951561258071,2026-07-07T18:15:51.561+07:00,540284530184996119,226229,180949,189281,1288
1783422951579439889,2026-07-07T18:15:51.579+07:00,540284530184996119,226222,180934,189494,1307
1783422951597621707,2026-07-07T18:15:51.597+07:00,540284530184996119,226214,180953,189742,1299
1783422951615803525,2026-07-07T18:15:51.615+07:00,540284530184996119,226251,181001,190030,1334
1783422951633985343,2026-07-07T18:15:51.633+07:00,540284530949243145,226292,181000,190323,1303
1783422951652167161,2026-07-07T18:15:51.652+07:00,540284530949243145,226357,181070,190656,1336
1783422951670348979,2026-07-07T18:15:51.670+07:00,540284530949243145,226292,181007,190954,1321
1783422951688530797,2026-07-07T18:15:51.688+07:00,540284530949243145,226340,181041,191299,1315
1783422951706712615,2026-07-07T18:15:51.706+07:00,540284530949243145,226419,181075,191597,1309
1783422951724894433,2026-07-07T18:15:51.724+07:00,540284530949243145,226407,181050,191799,1324
1783422951743076251,2026-07-07T18:15:51.743+07:00,540284530949243145,226346,181039,192063,1298
1783422951761258069,2026-07-07T18:15:51.761+07:00,540284530949243145,226324,180968,192182,1249
1783422951779439887,2026-07-07T18:15:51.779+07:00,540284530949243145,226322,180955,192359,1252
1783422951797621705,2026-07-07T18:15:51.797+07:00,540284530949243145,226296,180940,192433,1274
1783422951815803523,2026-07-07T18:15:51.815+07:00,540284530949243145,226210,180924,192533,1228
1783422951833985341,2026-07-07T18:15:51.833+07:00,540284530949243145,226217,180888,192616,1263
1783422951852167159,2026-07-07T18:15:51.852+07:00,540284530949243145,226137,180853,192720,1235
1783422951870348977,2026-07-07T18:15:51.870+07:00,540284530949243145,226160,180840,192776,1241
1783422951888530795,2026-07-07T18:15:51.888+07:00,540284530949243145,226105,180803,192852,1240
1783422951906712613,2026-07-07T18:15:51.906+07:00,540284530949243145,226184,180806,192981,1308
1783422951924894431,2026-07-07T18:15:51.924+07:00,540284530949243145,226131,180794,193030,1292
1783422951943076249,2026-07-07T18:15:51.943+07:00,540284530949243145,226120,180809,193147,1160
1783422951961258067,2026-07-07T18:15:51.961+07:00,540284530949243145,226141,180803,193238,1235
1783422951979439885,2026-07-07T18:15:51.979+07:00,540284530949243145,226113,180791,193344,1266
1783422951997621703,2026-07-07T18:15:51.997+07:00,540284530949243145,226079,180786,193427,1287
1783422952015803521,2026-07-07T18:15:52.015+07:00,540284530949243145,226068,180783,193433,1316
1783422952033985339,2026-07-07T18:15:52.033+07:00,540284530949243145,225875,180667,193397,1282
1783422952052167157,2026-07-07T18:15:52.052+07:00,540284530949243145,225632,180544,193264,1288
1783422952070348975,2026-07-07T18:15:52.070+07:00,540284530949243145,225447,180389,193175,1353
1783422952088530793,2026-07-07T18:15:52.088+07:00,540284530949243145,225113,180089,192882,1336
1783422952106712611,2026-07-07T18:15:52.106+07:00,540284530949243145,224803,179892,192633,1293
1783422952124894429,2026-07-07T18:15:52.124+07:00,540284530949243145,224546,179683,192387,1328
1783422952143076247,2026-07-07T18:15:52.143+07:00,540284530949243145,224190,179403,192201,1338
1783422952161258065,2026-07-07T18:15:52.161+07:00,540284530949243145,224000,179260,191990,1349
1783422952179439883,2026-07-07T18:15:52.179+07:00,540284530949243145,223716,179007,191784,1306
1783422952197621701,2026-07-07T18:15:52.197+07:00,540284530949243145,223503,178829,191585,1262
1783422952215803519,2026-07-07T18:15:52.215+07:00,540284530949243145,223365,178696,191435,1333
1783422952233985337,2026-07-07T18:15:52.233+07:00,540284530949243145,223141,178501,191242,1349
1783422952252167155,2026-07-07T18:15:52.252+07:00,540284530949243145,222986,178411,191068,1321
1783422952270348973,2026-07-07T18:15:52.270+07:00,540284530949243145,222831,178321,190957,1336
1783422952288530791,2026-07-07T18:15:52.288+07:00,540284530949243145,222658,178242,190787,1313
1783422952306712609,2026-07-07T18:15:52.306+07:00,540284530949243145,222515,178173,190711,1339
1783422952324894427,2026-07-07T18:15:52.324+07:00,540284530949243145,222400,178050,190576,1252
1783422952343076245,2026-07-07T18:15:52.343+07:00,540284530949243145,222325,177967,190437,1266
1783422952361258063,2026-07-07T18:15:52.361+07:00,540284530949243145,222126,177890,190349,1327
1783422952379439881,2026-07-07T18:15:52.379+07:00,540284530949243145,222053,177839,190270,1302
1783422952397621699,2026-07-07T18:15:52.397+07:00,540284531713488633,221859,177818,190163,1265
1783422952415803517,2026-07-07T18:15:52.415+07:00,540284531713488633,221821,177672,190026,1298
1783422952433985335,2026-07-07T18:15:52.433+07:00,540284531713488633,221790,177659,189961,1310
1783422952452167153,2026-07-07T18:15:52.452+07:00,540284531713488633,221650,177676,189875,1282
1783422952470348971,2026-07-07T18:15:52.470+07:00,540284531713488633,221601,177607,189810,1274
1783422952488530789,2026-07-07T18:15:52.488+07:00,540284531713488633,221591,177578,189717,1263
1783422952506712607,2026-07-07T18:15:52.506+07:00,540284531713488633,221494,177634,189632,1254
1783422952524894425,2026-07-07T18:15:52.524+07:00,540284531713488633,221562,177644,189622,1336
1783422952543076243,2026-07-07T18:15:52.543+07:00,540284531713488633,221440,177638,189570,1224
1783422952561258061,2026-07-07T18:15:52.561+07:00,540284531713488633,221433,177686,189505,1256
1783422952579439879,2026-07-07T18:15:52.579+07:00,540284531713488633,221447,177720,189570,1303
1783422952597621697,2026-07-07T18:15:52.597+07:00,540284531713488633,221441,177723,189509,1289
1783422952615803515,2026-07-07T18:15:52.615+07:00,540284531713488633,221530,177786,189521,1236
1783422952633985333,2026-07-07T18:15:52.633+07:00,540284531713488633,221613,177827,189525,1275
1783422952652167151,2026-07-07T18:15:52.652+07:00,540284531713488633,221624,177927,189607,1338
1783422952670348969,2026-07-07T18:15:52.670+07:00,540284531713488633,221653,178000,189617,1316
1783422952688530787,2026-07-07T18:15:52.688+07:00,540284531713488633,221707,178062,189636,1282
1783422952706712605,2026-07-07T18:15:52.706+07:00,540284531713488633,221761,178138,189740,1310
1783422952724894423,2026-07-07T18:15:52.724+07:00,540284531713488633,221826,178192,189754,1303
1783422952743076241,2026-07-07T18:15:52.743+07:00,540284531713488633,221829,178235,189755,1274
1783422952761258059,2026-07-07T18:15:52.761+07:00,540284531713488633,221975,178365,189879,1330
1783422952779439877,2026-07-07T18:15:52.779+07:00,540284531713488633,221967,178428,189851,1326
1783422952797621695,2026-07-07T18:15:52.797+07:00,540284531713488633,222082,178458,189971,1382
1783422952815803513,2026-07-07T18:15:52.815+07:00,540284531713488633,222087,178543,189956,1326
1783422952833985331,2026-07-07T18:15:52.833+07:00,540284531713488633,222013,178569,190002,1298
1783422952852167149,2026-07-07T18:15:52.852+07:00,540284531713488633,221959,178443,189903,1252
1783422952870348967,2026-07-07T18:15:52.870+07:00,540284531713488633,221832,178377,189825,1334
1783422952888530785,2026-07-07T18:15:52.888+07:00,540284531713488633,221546,178193,189590,1242
1783422952906712603,2026-07-07T18:15:52.906+07:00,540284531713488633,221276,177982,189401,1202
1783422952924894421,2026-07-07T18:15:52.924+07:00,540284531713488633,221083,177878,189245,1228
1783422952943076239,2026-07-07T18:15:52.943+07:00,540284531713488633,220897,177727,189129,1260
1783422952961258057,2026-07-07T18:15:52.961+07:00,540284531713488633,220655,177557,188978,1257
1783422952979439875,2026-07-07T18:15:52.979+07:00,540284531713488633,220563,177494,188827,1324
1783422952997621693,2026-07-07T18:15:52.997+07:00,540284531713488633,220401,177385,188725,1252
1783422953015803511,2026-07-07T18:15:53.015+07:00,540284531713488633,220283,177378,188707,1257
1783422953033985329,2026-07-07T18:15:53.033+07:00,540284531713488633,220191,177296,188615,1271
1783422953052167147,2026-07-07T18:15:53.052+07:00,540284531713488633,220076,177256,188569,1307
1783422953070348965,2026-07-07T18:15:53.070+07:00,540284531713488633,220005,177195,188458,1288
1783422953088530783,2026-07-07T18:15:53.088+07:00,540284531713488633,219894,177166,188444,1281
1783422953106712601,2026-07-07T18:15:53.106+07:00,540284531713488633,219750,177105,188405,1236
1783422953124894419,2026-07-07T18:15:53.124+07:00,540284531713488633,219710,177038,188336,1273
1783422953143076237,2026-07-07T18:15:53.143+07:00,540284531713488633,219655,177004,188295,1249
1783422953161258055,2026-07-07T18:15:53.161+07:00,540284532495932004,219624,177028,188276,1263
1783422953179439873,2026-07-07T18:15:53.179+07:00,540284532495932004,219503,177035,188277,1219
1783422953197621691,2026-07-07T18:15:53.197+07:00,540284532495932004,219517,176994,188286,1269
1783422953215803509,2026-07-07T18:15:53.215+07:00,540284532495932004,219408,176972,188264,1224
1783422953233985327,2026-07-07T18:15:53.233+07:00,540284532495932004,219430,177078,188332,1277
1783422953252167145,2026-07-07T18:15:53.252+07:00,540284532495932004,219433,177146,188392,1318
1783422953270348963,2026-07-07T18:15:53.270+07:00,540284532495932004,219390,177068,188354,1236
1783422953288530781,2026-07-07T18:15:53.288+07:00,540284532495932004,219412,177170,188459,1269
1783422953306712599,2026-07-07T18:15:53.306+07:00,540284532495932004,219469,177234,188459,1281
1783422953324894417,2026-07-07T18:15:53.324+07:00,540284532495932004,219519,177240,188486,1287
1783422953343076235,2026-07-07T18:15:53.343+07:00,540284532495932004,219529,177275,188538,1279
1783422953361258053,2026-07-07T18:15:53.361+07:00,540284532495932004,219536,177289,188533,1226
1783422953379439871,2026-07-07T18:15:53.379+07:00,540284532495932004,219556,177343,188603,1265
1783422953397621689,2026-07-07T18:15:53.397+07:00,540284532495932004,219579,177490,188682,1317
1783422953415803507,2026-07-07T18:15:53.415+07:00,540284532495932004,219604,177520,188747,1238
1783422953433985325,2026-07-07T18:15:53.433+07:00,540284532495932004,219708,177648,188848,1286
1783422953452167143,2026-07-07T18:15:53.452+07:00,540284532495932004,219772,177714,188929,1289
1783422953470348961,2026-07-07T18:15:53.470+07:00,540284532495932004,219767,177761,188941,1300
1783422953488530779,2026-07-07T18:15:53.488+07:00,540284532495932004,219861,177838,189025,1263
1783422953506712597,2026-07-07T18:15:53.506+07:00,540284532495932004,219973,177893,189105,1332
1783422953524894415,2026-07-07T18:15:53.524+07:00,540284532495932004,219963,178016,189152,1267
1783422953543076233,2026-07-07T18:15:53.543+07:00,540284532495932004,219974,178096,189251,1293
1783422953561258051,2026-07-07T18:15:53.561+07:00,540284532495932004,220048,178141,189349,1235
1783422953579439869,2026-07-07T18:15:53.579+07:00,540284532495932004,220111,178279,189430,1267
1783422953597621687,2026-07-07T18:15:53.597+07:00,540284532495932004,220160,178314,189470,1292
1783422953615803505,2026-07-07T18:15:53.615+07:00,540284532495932004,220124,178390,189480,1297
1783422953633985323,2026-07-07T18:15:53.633+07:00,540284532495932004,220129,178412,189523,1315
1783422953652167141,2026-07-07T18:15:53.652+07:00,540284532495932004,220053,178374,189413,1298
1783422953670348959,2026-07-07T18:15:53.670+07:00,540284532495932004,219910,178275,189298,1296
1783422953688530777,2026-07-07T18:15:53.688+07:00,540284532495932004,219773,178236,189183,1265
1783422953706712595,2026-07-07T18:15:53.706+07:00,540284532495932004,219594,178106,189002,1349
1783422953724894413,2026-07-07T18:15:53.724+07:00,540284532495932004,219449,177993,188906,1335
1783422953743076231,2026-07-07T18:15:53.743+07:00,540284532495932004,219282,177982,188781,1307
1783422953761258049,2026-07-07T18:15:53.761+07:00,540284532495932004,219150,177971,188730,1317
1783422953779439867,2026-07-07T18:15:53.779+07:00,540284532495932004,219082,177920,188675,1337
1783422953797621685,2026-07-07T18:15:53.797+07:00,540284532495932004,218953,177845,188670,1292
1783422953815803503,2026-07-07T18:15:53.815+07:00,540284532495932004,218807,177825,188635,1330
1783422953833985321,2026-07-07T18:15:53.833+07:00,540284532495932004,218678,177784,188587,1273
1783422953852167139,2026-07-07T18:15:53.852+07:00,540284532495932004,218684,177801,188563,1323
1783422953870348957,2026-07-07T18:15:53.870+07:00,540284532495932004,218541,177774,188604,1308
1783422953888530775,2026-07-07T18:15:53.888+07:00,540284532495932004,218449,177802,188658,1345
1783422953906712593,2026-07-07T18:15:53.906+07:00,540284532495932004,218392,177772,188667,1308
1783422953924894411,2026-07-07T18:15:53.924+07:00,540284532495932004,218306,177723,188728,1330
1783422953943076229,2026-07-07T18:15:53.943+07:00,540284533260166810,218195,177663,188755,1276
1783422953961258047,2026-07-07T18:15:53.961+07:00,540284533260166810,218119,177606,188692,1229
1783422953979439865,2026-07-07T18:15:53.979+07:00,540284533260166810,217962,177563,188711,1303
1783422953997621683,2026-07-07T18:15:53.997+07:00,540284533260166810,217912,177524,188699,1323
1783422954015803501,2026-07-07T18:15:54.015+07:00,540284533260166810,217788,177514,188719,1282
1783422954033985319,2026-07-07T18:15:54.033+07:00,540284533260166810,217679,177478,188705,1221
1783422954052167137,2026-07-07T18:15:54.052+07:00,540284533260166810,217601,177416,188764,1258
1783422954070348955,2026-07-07T18:15:54.070+07:00,540284533260166810,217536,177453,188792,1282
1783422954088530773,2026-07-07T18:15:54.088+07:00,540284533260166810,217505,177518,188854,1338
1783422954106712591,2026-07-07T18:15:54.106+07:00,540284533260166810,217470,177508,188830,1294
1783422954124894409,2026-07-07T18:15:54.124+07:00,540284533260166810,217455,177625,188918,1335
1783422954143076227,2026-07-07T18:15:54.143+07:00,540284533260166810,217384,177652,188952,1324
1783422954161258045,2026-07-07T18:15:54.161+07:00,540284533260166810,217436,177825,189007,1374
1783422954179439863,2026-07-07T18:15:54.179+07:00,540284533260166810,217417,177880,188998,1251
1783422954197621681,2026-07-07T18:15:54.197+07:00,540284533260166810,217493,178102,189109,1311
1783422954215803499,2026-07-07T18:15:54.215+07:00,540284533260166810,217501,178166,189146,1327
1783422954233985317,2026-07-07T18:15:54.233+07:00,540284533260166810,217551,178272,189120,1285
1783422954252167135,2026-07-07T18:15:54.252+07:00,540284533260166810,217613,178397,189173,1297
1783422954270348953,2026-07-07T18:15:54.270+07:00,540284533260166810,217706,178485,189144,1289
1783422954288530771,2026-07-07T18:15:54.288+07:00,540284533260166810,217704,178586,189213,1299
1783422954306712589,2026-07-07T18:15:54.306+07:00,540284533260166810,217834,178714,189209,1332
1783422954324894407,2026-07-07T18:15:54.324+07:00,540284533260166810,217886,178837,189285,1344
1783422954343076225,2026-07-07T18:15:54.343+07:00,540284533260166810,217866,178912,189299,1293
1783422954361258043,2026-07-07T18:15:54.361+07:00,540284533260166810,217891,179040,189343,1318
1783422954379439861,2026-07-07T18:15:54.379+07:00,540284533260166810,217942,179106,189384,1314
1783422954397621679,2026-07-07T18:15:54.397+07:00,540284533260166810,217984,179187,189490,1340
1783422954415803497,2026-07-07T18:15:54.415+07:00,540284533260166810,217965,179292,189467,1258
1783422954433985315,2026-07-07T18:15:54.433+07:00,540284533260166810,218011,179349,189471,1252
1783422954452167133,2026-07-07T18:15:54.452+07:00,540284533260166810,217958,179458,189432,1275
1783422954470348951,2026-07-07T18:15:54.470+07:00,540284533260166810,217967,179456,189411,1289
1783422954488530769,2026-07-07T18:15:54.488+07:00,540284533260166810,217845,179421,189281,1337
1783422954506712587,2026-07-07T18:15:54.506+07:00,540284533260166810,217712,179313,189058,1262
1783422954524894405,2026-07-07T18:15:54.524+07:00,540284533260166810,217556,179265,188934,1268
1783422954543076223,2026-07-07T18:15:54.543+07:00,540284533260166810,217412,179261,188742,1315
1783422954561258041,2026-07-07T18:15:54.561+07:00,540284533260166810,217273,179203,188647,1338
1783422954579439859,2026-07-07T18:15:54.579+07:00,540284533260166810,217177,179145,188617,1288
1783422954597621677,2026-07-07T18:15:54.597+07:00,540284533260166810,217038,179088,188469,1311
1783422954615803495,2026-07-07T18:15:54.615+07:00,540284533260166810,216911,179025,188359,1299
1783422954633985313,2026-07-07T18:15:54.633+07:00,540284533260166810,216794,179023,188310,1296
1783422954652167131,2026-07-07T18:15:54.652+07:00,540284533260166810,216801,178981,188239,1327
1783422954670348949,2026-07-07T18:15:54.670+07:00,540284533260166810,216689,178949,188146,1256
1783422954688530767,2026-07-07T18:15:54.688+07:00,540284533260166810,216685,178964,188126,1311
1783422954706712585,2026-07-07T18:15:54.706+07:00,540284534024319218,216628,178940,188053,1273
1783422954724894403,2026-07-07T18:15:54.724+07:00,540284534024319218,216551,178880,187987,1230
1783422954743076221,2026-07-07T18:15:54.743+07:00,540284534024319218,216567,178939,188012,1351
1783422954761258039,2026-07-07T18:15:54.761+07:00,540284534024319218,216427,178896,187951,1273
1783422954779439857,2026-07-07T18:15:54.779+07:00,540284534024319218,216424,178883,187896,1267
1783422954797621675,2026-07-07T18:15:54.797+07:00,540284534024319218,216443,178944,187964,1337
1783422954815803493,2026-07-07T18:15:54.815+07:00,540284534024319218,216307,178868,187846,1294
1783422954833985311,2026-07-07T18:15:54.833+07:00,540284534024319218,216361,178960,187877,1311
1783422954852167129,2026-07-07T18:15:54.852+07:00,540284534024319218,216322,178938,187887,1302
1783422954870348947,2026-07-07T18:15:54.870+07:00,540284534024319218,216339,178931,187786,1282
1783422954888530765,2026-07-07T18:15:54.888+07:00,540284534024319218,216383,178944,187835,1326
1783422954906712583,2026-07-07T18:15:54.906+07:00,540284534024319218,216432,179032,187868,1325
1783422954924894401,2026-07-07T18:15:54.924+07:00,540284534024319218,216429,179004,187818,1304
1783422954943076219,2026-07-07T18:15:54.943+07:00,540284534024319218,216494,179027,187884,1332
1783422954961258037,2026-07-07T18:15:54.961+07:00,540284534024319218,216568,179084,187916,1318
1783422954979439855,2026-07-07T18:15:54.979+07:00,540284534024319218,216576,179090,187927,1272
1783422954997621673,2026-07-07T18:15:54.997+07:00,540284534024319218,216711,179066,188016,1318
1783422955015803491,2026-07-07T18:15:55.015+07:00,540284534024319218,216724,179222,188043,1357
1783422955033985309,2026-07-07T18:15:55.033+07:00,540284534024319218,216832,179295,188111,1350
1783422955052167127,2026-07-07T18:15:55.052+07:00,540284534024319218,216876,179318,188135,1302
1783422955070348945,2026-07-07T18:15:55.070+07:00,540284534024319218,217014,179320,188158,1353
1783422955088530763,2026-07-07T18:15:55.088+07:00,540284534024319218,217026,179348,188129,1271
1783422955106712581,2026-07-07T18:15:55.106+07:00,540284534024319218,217163,179504,188293,1332
1783422955124894399,2026-07-07T18:15:55.124+07:00,540284534024319218,217218,179545,188316,1343
1783422955143076217,2026-07-07T18:15:55.143+07:00,540284534024319218,217265,179616,188343,1315
1783422955161258035,2026-07-07T18:15:55.161+07:00,540284534024319218,217359,179702,188409,1360
1783422955179439853,2026-07-07T18:15:55.179+07:00,540284534024319218,217418,179802,188392,1236
1783422955197621671,2026-07-07T18:15:55.197+07:00,540284534024319218,217523,179787,188487,1279
1783422955215803489,2026-07-07T18:15:55.215+07:00,540284534024319218,217632,179930,188540,1372
1783422955233985307,2026-07-07T18:15:55.233+07:00,540284534024319218,217725,179953,188582,1275
1783422955252167125,2026-07-07T18:15:55.252+07:00,540284534024319218,217754,180014,188637,1277
1783422955270348943,2026-07-07T18:15:55.270+07:00,540284534024319218,217757,180043,188604,1269
1783422955288530761,2026-07-07T18:15:55.288+07:00,540284534024319218,217720,179982,188629,1309
1783422955306712579,2026-07-07T18:15:55.306+07:00,540284534024319218,217600,179898,188519,1274
1783422955324894397,2026-07-07T18:15:55.324+07:00,540284534024319218,217489,179806,188324,1272
1783422955343076215,2026-07-07T18:15:55.343+07:00,540284534024319218,217329,179696,188185,1311
1783422955361258033,2026-07-07T18:15:55.361+07:00,540284534024319218,217233,179623,188069,1350
1783422955379439851,2026-07-07T18:15:55.379+07:00,540284534024319218,217077,179546,187946,1320
1783422955397621669,2026-07-07T18:15:55.397+07:00,540284534024319218,217009,179486,187819,1362
1783422955415803487,2026-07-07T18:15:55.415+07:00,540284534024319218,216950,179472,187843,1387
1783422955433985305,2026-07-07T18:15:55.433+07:00,540284534024319218,216777,179387,187679,1318
1783422955452167123,2026-07-07T18:15:55.452+07:00,540284534024319218,216790,179353,187672,1331
1783422955470348941,2026-07-07T18:15:55.470+07:00,540284534806716813,216722,179355,187577,1331
1783422955488530759,2026-07-07T18:15:55.488+07:00,540284534806716813,216623,179243,187623,1301
1783422955506712577,2026-07-07T18:15:55.506+07:00,540284534806716813,216616,179271,187590,1272
1783422955524894395,2026-07-07T18:15:55.524+07:00,540284534806716813,216569,179267,187599,1334
1783422955543076213,2026-07-07T18:15:55.543+07:00,540284534806716813,216536,179184,187678,1322
1783422955561258031,2026-07-07T18:15:55.561+07:00,540284534806716813,216455,179103,187561,1262
1783422955579439849,2026-07-07T18:15:55.579+07:00,540284534806716813,216497,179101,187580,1362
1783422955597621667,2026-07-07T18:15:55.597+07:00,540284534806716813,216400,179063,187474,1259
1783422955615803485,2026-07-07T18:15:55.615+07:00,540284534806716813,216353,179014,187429,1289
1783422955633985303,2026-07-07T18:15:55.633+07:00,540284534806716813,216410,179042,187483,1270
1783422955652167121,2026-07-07T18:15:55.652+07:00,540284534806716813,216467,179042,187477,1245
1783422955670348939,2026-07-07T18:15:55.670+07:00,540284534806716813,216475,179033,187462,1297
1783422955688530757,2026-07-07T18:15:55.688+07:00,540284534806716813,216543,179098,187453,1320
1783422955706712575,2026-07-07T18:15:55.706+07:00,540284534806716813,216579,179238,187459,1317
1783422955724894393,2026-07-07T18:15:55.724+07:00,540284534806716813,216669,179313,187499,1289
1783422955743076211,2026-07-07T18:15:55.743+07:00,540284534806716813,216746,179391,187487,1283
1783422955761258029,2026-07-07T18:15:55.761+07:00,540284534806716813,216840,179414,187473,1226
1783422955779439847,2026-07-07T18:15:55.779+07:00,540284534806716813,216995,179548,187512,1292
1783422955797621665,2026-07-07T18:15:55.797+07:00,540284534806716813,217073,179587,187529,1230
1783422955815803483,2026-07-07T18:15:55.815+07:00,540284534806716813,217163,179625,187490,1234
1783422955833985301,2026-07-07T18:15:55.833+07:00,540284534806716813,217250,179711,187480,1259
1783422955852167119,2026-07-07T18:15:55.852+07:00,540284534806716813,217403,179863,187644,1323
1783422955870348937,2026-07-07T18:15:55.870+07:00,540284534806716813,217386,179834,187562,1258
1783422955888530755,2026-07-07T18:15:55.888+07:00,540284534806716813,217551,179952,187636,1338
1783422955906712573,2026-07-07T18:15:55.906+07:00,540284534806716813,217549,179931,187633,1234
1783422955924894391,2026-07-07T18:15:55.924+07:00,540284534806716813,217642,179978,187636,1259
1783422955943076209,2026-07-07T18:15:55.943+07:00,540284534806716813,217711,180087,187728,1297
1783422955961258027,2026-07-07T18:15:55.961+07:00,540284534806716813,217744,180070,187683,1274
1783422955979439845,2026-07-07T18:15:55.979+07:00,540284534806716813,217822,180052,187796,1265
1783422955997621663,2026-07-07T18:15:55.997+07:00,540284534806716813,217774,180003,187863,1292
1783422956015803481,2026-07-07T18:15:56.015+07:00,540284534806716813,217851,180048,187928,1306
1783422956033985299,2026-07-07T18:15:56.033+07:00,540284534806716813,217915,179983,187985,1315
1783422956052167117,2026-07-07T18:15:56.052+07:00,540284534806716813,217951,179959,187926,1327
1783422956070348935,2026-07-07T18:15:56.070+07:00,540284534806716813,217871,179838,187868,1340
1783422956088530753,2026-07-07T18:15:56.088+07:00,540284534806716813,217785,179689,187711,1315
1783422956106712571,2026-07-07T18:15:56.106+07:00,540284534806716813,217724,179660,187589,1314
1783422956124894389,2026-07-07T18:15:56.124+07:00,540284534806716813,217678,179577,187415,1304
1783422956143076207,2026-07-07T18:15:56.143+07:00,540284534806716813,217683,179612,187369,1311
1783422956161258025,2026-07-07T18:15:56.161+07:00,540284534806716813,217754,179620,187332,1333
1783422956179439843,2026-07-07T18:15:56.179+07:00,540284534806716813,217886,179711,187226,1275
1783422956197621661,2026-07-07T18:15:56.197+07:00,540284534806716813,217914,179770,187102,1282
1783422956215803479,2026-07-07T18:15:56.215+07:00,540284534806716813,218121,179853,187069,1322
1783422956233985297,2026-07-07T18:15:56.233+07:00,540284534806716813,218297,179966,186957,1283
1783422956252167115,2026-07-07T18:15:56.252+07:00,540284535570933309,218477,179961,186927,1309
1783422956270348933,2026-07-07T18:15:56.270+07:00,540284535570933309,218608,180057,186849,1258
1783422956288530751,2026-07-07T18:15:56.288+07:00,540284535570933309,218762,180136,186736,1290
1783422956306712569,2026-07-07T18:15:56.306+07:00,540284535570933309,218820,180088,186700,1304
1783422956324894387,2026-07-07T18:15:56.324+07:00,540284535570933309,218850,180141,186612,1309
1783422956343076205,2026-07-07T18:15:56.343+07:00,540284535570933309,218941,180125,186548,1283
1783422956361258023,2026-07-07T18:15:56.361+07:00,540284535570933309,218956,180119,186429,1303
1783422956379439841,2026-07-07T18:15:56.379+07:00,540284535570933309,219043,180107,186244,1337
1783422956397621659,2026-07-07T18:15:56.397+07:00,540284535570933309,219054,180237,186158,1333
1783422956415803477,2026-07-07T18:15:56.415+07:00,540284535570933309,219028,180266,186024,1289
1783422956433985295,2026-07-07T18:15:56.433+07:00,540284535570933309,219113,180403,185948,1290
1783422956452167113,2026-07-07T18:15:56.452+07:00,540284535570933309,219151,180644,185818,1249
1783422956470348931,2026-07-07T18:15:56.470+07:00,540284535570933309,219247,180772,185705,1324
1783422956488530749,2026-07-07T18:15:56.488+07:00,540284535570933309,219284,181029,185609,1290
1783422956506712567,2026-07-07T18:15:56.506+07:00,540284535570933309,219427,181248,185517,1341
1783422956524894385,2026-07-07T18:15:56.524+07:00,540284535570933309,219434,181312,185344,1253
1783422956543076203,2026-07-07T18:15:56.543+07:00,540284535570933309,219514,181529,185302,1255
1783422956561258021,2026-07-07T18:15:56.561+07:00,540284535570933309,219604,181702,185164,1264
1783422956579439839,2026-07-07T18:15:56.579+07:00,540284535570933309,219721,181912,185160,1291
1783422956597621657,2026-07-07T18:15:56.597+07:00,540284535570933309,219753,182039,185104,1209
1783422956615803475,2026-07-07T18:15:56.615+07:00,540284535570933309,219810,182081,184942,1232
1783422956633985293,2026-07-07T18:15:56.633+07:00,540284535570933309,219938,182291,184962,1271
1783422956652167111,2026-07-07T18:15:56.652+07:00,540284535570933309,219999,182321,184877,1256
1783422956670348929,2026-07-07T18:15:56.670+07:00,540284535570933309,220077,182442,184872,1351
1783422956688530747,2026-07-07T18:15:56.688+07:00,540284535570933309,220068,182446,184777,1255
1783422956706712565,2026-07-07T18:15:56.706+07:00,540284535570933309,220153,182517,184801,1283
1783422956724894383,2026-07-07T18:15:56.724+07:00,540284535570933309,220234,182537,184675,1264
1783422956743076201,2026-07-07T18:15:56.743+07:00,540284535570933309,220286,182599,184651,1273
1783422956761258019,2026-07-07T18:15:56.761+07:00,540284535570933309,220343,182605,184672,1274
1783422956779439837,2026-07-07T18:15:56.779+07:00,540284535570933309,220279,182718,184555,1304
1783422956797621655,2026-07-07T18:15:56.797+07:00,540284535570933309,220125,182616,184381,1291
1783422956815803473,2026-07-07T18:15:56.815+07:00,540284535570933309,219943,182525,184217,1268
1783422956833985291,2026-07-07T18:15:56.833+07:00,540284535570933309,219726,182381,184081,1286
1783422956852167109,2026-07-07T18:15:56.852+07:00,540284535570933309,219362,182112,183821,1293
1783422956870348927,2026-07-07T18:15:56.870+07:00,540284535570933309,219024,181943,183672,1256
1783422956888530745,2026-07-07T18:15:56.888+07:00,540284535570933309,218843,181864,183563,1266
1783422956906712563,2026-07-07T18:15:56.906+07:00,540284535570933309,218663,181662,183427,1267
1783422956924894381,2026-07-07T18:15:56.924+07:00,540284535570933309,218579,181675,183405,1298
1783422956943076199,2026-07-07T18:15:56.943+07:00,540284535570933309,218447,181637,183392,1274
1783422956961258017,2026-07-07T18:15:56.961+07:00,540284535570933309,218549,181542,183299,1265
1783422956979439835,2026-07-07T18:15:56.979+07:00,540284535570933309,218553,181548,183249,1293
1783422956997621653,2026-07-07T18:15:56.997+07:00,540284535570933309,218692,181562,183253,1270
1783422957015803471,2026-07-07T18:15:57.015+07:00,540284536207790564,218752,181594,183134,1300
1783422957033985289,2026-07-07T18:15:57.033+07:00,540284536207790564,218830,181571,183002,1320
1783422957052167107,2026-07-07T18:15:57.052+07:00,540284536207790564,218811,181468,182777,1311
1783422957070348925,2026-07-07T18:15:57.070+07:00,540284536207790564,218830,181381,182604,1281
1783422957088530743,2026-07-07T18:15:57.088+07:00,540284536207790564,218790,181316,182354,1280
1783422957106712561,2026-07-07T18:15:57.106+07:00,540284536207790564,218812,181265,182112,1250
1783422957124894379,2026-07-07T18:15:57.124+07:00,540284536207790564,218789,181234,181954,1299
1783422957143076197,2026-07-07T18:15:57.143+07:00,540284536207790564,218841,181222,181747,1292
1783422957161258015,2026-07-07T18:15:57.161+07:00,540284536207790564,218902,181148,181527,1314
1783422957179439833,2026-07-07T18:15:57.179+07:00,540284536207790564,218918,181148,181273,1311
1783422957197621651,2026-07-07T18:15:57.197+07:00,540284536207790564,218915,181161,181046,1301
1783422957215803469,2026-07-07T18:15:57.215+07:00,540284536207790564,218940,181115,180795,1248
1783422957233985287,2026-07-07T18:15:57.233+07:00,540284536207790564,218995,181148,180658,1315
1783422957252167105,2026-07-07T18:15:57.252+07:00,540284536207790564,218948,181223,180472,1296
1783422957270348923,2026-07-07T18:15:57.270+07:00,540284536207790564,218981,181290,180274,1275
1783422957288530741,2026-07-07T18:15:57.288+07:00,540284536207790564,219027,181380,180199,1326
1783422957306712559,2026-07-07T18:15:57.306+07:00,540284536207790564,219041,181406,180140,1309
1783422957324894377,2026-07-07T18:15:57.324+07:00,540284536207790564,219026,181529,179996,1298
1783422957343076195,2026-07-07T18:15:57.343+07:00,540284536207790564,219068,181622,179958,1294
1783422957361258013,2026-07-07T18:15:57.361+07:00,540284536207790564,219027,181707,179901,1343
1783422957379439831,2026-07-07T18:15:57.379+07:00,540284536207790564,219061,181807,179891,1290
1783422957397621649,2026-07-07T18:15:57.397+07:00,540284536207790564,219122,181935,179924,1305
1783422957415803467,2026-07-07T18:15:57.415+07:00,540284536207790564,219146,182065,180039,1284
1783422957433985285,2026-07-07T18:15:57.433+07:00,540284536207790564,219099,182203,180231,1322
1783422957452167103,2026-07-07T18:15:57.452+07:00,540284536207790564,218981,182300,180457,1305
1783422957470348921,2026-07-07T18:15:57.470+07:00,540284536207790564,218639,182171,180847,1281
1783422957488530739,2026-07-07T18:15:57.488+07:00,540284536207790564,218061,181756,181440,1277
1783422957506712557,2026-07-07T18:15:57.506+07:00,540284536207790564,217669,181274,182288,1309
1783422957524894375,2026-07-07T18:15:57.524+07:00,540284536207790564,219662,182069,183548,1307
1783422957543076193,2026-07-07T18:15:57.543+07:00,540284536207790564,221928,182785,184776,1277
1783422957561258011,2026-07-07T18:15:57.561+07:00,540284536207790564,222855,183227,185271,1296
1783422957579439829,2026-07-07T18:15:57.579+07:00,540284536207790564,223094,183535,185381,1322
1783422957597621647,2026-07-07T18:15:57.597+07:00,540284536207790564,222963,183526,185277,1351
1783422957615803465,2026-07-07T18:15:57.615+07:00,540284536207790564,222548,183274,185061,1367
1783422957633985283,2026-07-07T18:15:57.633+07:00,540284536207790564,222069,183065,184809,1394
1783422957652167101,2026-07-07T18:15:57.652+07:00,540284536971973490,221670,182826,184507,1333
1783422957670348919,2026-07-07T18:15:57.670+07:00,540284536971973490,221359,182603,184212,1386
1783422957688530737,2026-07-07T18:15:57.688+07:00,540284536971973490,221071,182337,183896,1370
1783422957706712555,2026-07-07T18:15:57.706+07:00,540284536971973490,220801,182184,183636,1379
1783422957724894373,2026-07-07T18:15:57.724+07:00,540284536971973490,220597,181955,183485,1356
1783422957743076191,2026-07-07T18:15:57.743+07:00,540284536971973490,220628,181808,183438,1353
1783422957761258009,2026-07-07T18:15:57.761+07:00,540284536971973490,220537,181567,183343,1385
1783422957779439827,2026-07-07T18:15:57.779+07:00,540284536971973490,220505,181317,183280,1393
1783422957797621645,2026-07-07T18:15:57.797+07:00,540284536971973490,220549,181171,183273,1366
1783422957815803463,2026-07-07T18:15:57.815+07:00,540284536971973490,220620,181018,183281,1315
1783422957833985281,2026-07-07T18:15:57.833+07:00,540284536971973490,220728,181031,183349,1370
1783422957852167099,2026-07-07T18:15:57.852+07:00,540284536971973490,220825,181012,183407,1377
1783422957870348917,2026-07-07T18:15:57.870+07:00,540284536971973490,220991,181006,183488,1383
1783422957888530735,2026-07-07T18:15:57.888+07:00,540284536971973490,221254,180961,183658,1389
1783422957906712553,2026-07-07T18:15:57.906+07:00,540284536971973490,221302,181050,183712,1310
1783422957924894371,2026-07-07T18:15:57.924+07:00,540284536971973490,221348,181090,183747,1342
1783422957943076189,2026-07-07T18:15:57.943+07:00,540284536971973490,221502,181098,183704,1353
1783422957961258007,2026-07-07T18:15:57.961+07:00,540284536971973490,221664,181261,183741,1347
1783422957979439825,2026-07-07T18:15:57.979+07:00,540284536971973490,221585,181311,183699,1393
1783422957997621643,2026-07-07T18:15:57.997+07:00,540284536971973490,221528,181341,183664,1387
1783422958015803461,2026-07-07T18:15:58.015+07:00,540284536971973490,221525,181453,183709,1309
1783422958033985279,2026-07-07T18:15:58.033+07:00,540284536971973490,221639,181562,183826,1385
1783422958052167097,2026-07-07T18:15:58.052+07:00,540284536971973490,221568,181566,183708,1297
1783422958070348915,2026-07-07T18:15:58.070+07:00,540284536971973490,221667,181630,183765,1341
1783422958088530733,2026-07-07T18:15:58.088+07:00,540284536971973490,221647,181721,183759,1353
1783422958106712551,2026-07-07T18:15:58.106+07:00,540284536971973490,221693,181768,183772,1376
1783422958124894369,2026-07-07T18:15:58.124+07:00,540284536971973490,221630,181840,183740,1328
1783422958143076187,2026-07-07T18:15:58.143+07:00,540284536971973490,221706,181842,183816,1352
1783422958161258005,2026-07-07T18:15:58.161+07:00,540284536971973490,221739,181880,183763,1360
1783422958179439823,2026-07-07T18:15:58.179+07:00,540284536971973490,221712,181895,183752,1391
1783422958197621641,2026-07-07T18:15:58.197+07:00,540284536971973490,221716,181833,183751,1373
1783422958215803459,2026-07-07T18:15:58.215+07:00,540284536971973490,221770,181950,183824,1355
1783422958233985277,2026-07-07T18:15:58.233+07:00,540284536971973490,221782,181935,183786,1340
1783422958252167095,2026-07-07T18:15:58.252+07:00,540284536971973490,221829,181915,183792,1352
1783422958270348913,2026-07-07T18:15:58.270+07:00,540284536971973490,221805,181789,183732,1333
1783422958288530731,2026-07-07T18:15:58.288+07:00,540284536971973490,221705,181695,183543,1358
1783422958306712549,2026-07-07T18:15:58.306+07:00,540284536971973490,221575,181580,183424,1372
1783422958324894367,2026-07-07T18:15:58.324+07:00,540284536971973490,221442,181430,183266,1330
1783422958343076185,2026-07-07T18:15:58.343+07:00,540284536971973490,221409,181369,183249,1355
1783422958361258003,2026-07-07T18:15:58.361+07:00,540284536971973490,221354,181223,183107,1361
1783422958379439821,2026-07-07T18:15:58.379+07:00,540284536971973490,221319,181135,183047,1373
1783422958397621639,2026-07-07T18:15:58.397+07:00,540284536971973490,221297,181070,182939,1408
1783422958415803457,2026-07-07T18:15:58.415+07:00,540284537736260180,221204,180978,182834,1380
1783422958433985275,2026-07-07T18:15:58.433+07:00,540284537736260180,221187,180886,182684,1348
1783422958452167093,2026-07-07T18:15:58.452+07:00,540284537736260180,221215,180826,182600,1343
1783422958470348911,2026-07-07T18:15:58.470+07:00,540284537736260180,221203,180866,182621,1325
1783422958488530729,2026-07-07T18:15:58.488+07:00,540284537736260180,221158,180787,182474,1323
1783422958506712547,2026-07-07T18:15:58.506+07:00,540284537736260180,221178,180753,182500,1300
1783422958524894365,2026-07-07T18:15:58.524+07:00,540284537736260180,221113,180719,182427,1326
1783422958543076183,2026-07-07T18:15:58.543+07:00,540284537736260180,221003,180672,182322,1316
1783422958561258001,2026-07-07T18:15:58.561+07:00,540284537736260180,220994,180548,182247,1386
1783422958579439819,2026-07-07T18:15:58.579+07:00,540284537736260180,220968,180489,182162,1378
1783422958597621637,2026-07-07T18:15:58.597+07:00,540284537736260180,220937,180442,182115,1387
1783422958615803455,2026-07-07T18:15:58.615+07:00,540284537736260180,220898,180389,182098,1358
1783422958633985273,2026-07-07T18:15:58.633+07:00,540284537736260180,220969,180382,182104,1375
1783422958652167091,2026-07-07T18:15:58.652+07:00,540284537736260180,220957,180322,182164,1355
1783422958670348909,2026-07-07T18:15:58.670+07:00,540284537736260180,221004,180250,182146,1331
1783422958688530727,2026-07-07T18:15:58.688+07:00,540284537736260180,221119,180269,182166,1325
1783422958706712545,2026-07-07T18:15:58.706+07:00,540284537736260180,221295,180304,182176,1387
1783422958724894363,2026-07-07T18:15:58.724+07:00,540284537736260180,221371,180333,182248,1386
1783422958743076181,2026-07-07T18:15:58.743+07:00,540284537736260180,221479,180391,182257,1372
1783422958761257999,2026-07-07T18:15:58.761+07:00,540284537736260180,221632,180369,182251,1308
1783422958779439817,2026-07-07T18:15:58.779+07:00,540284537736260180,221738,180409,182412,1374
1783422958797621635,2026-07-07T18:15:58.797+07:00,540284537736260180,221773,180439,182408,1368
1783422958815803453,2026-07-07T18:15:58.815+07:00,540284537736260180,221825,180462,182338,1380
1783422958833985271,2026-07-07T18:15:58.833+07:00,540284537736260180,221775,180499,182350,1354
1783422958852167089,2026-07-07T18:15:58.852+07:00,540284537736260180,221758,180531,182421,1369
1783422958870348907,2026-07-07T18:15:58.870+07:00,540284537736260180,221807,180595,182443,1391
1783422958888530725,2026-07-07T18:15:58.888+07:00,540284537736260180,221793,180611,182433,1385
1783422958906712543,2026-07-07T18:15:58.906+07:00,540284537736260180,221776,180708,182443,1321
1783422958924894361,2026-07-07T18:15:58.924+07:00,540284537736260180,221744,180664,182442,1349
1783422958943076179,2026-07-07T18:15:58.943+07:00,540284537736260180,221732,180573,182381,1362
1783422958961257997,2026-07-07T18:15:58.961+07:00,540284537736260180,221676,180521,182316,1331
1783422958979439815,2026-07-07T18:15:58.979+07:00,540284537736260180,221514,180441,182105,1359
1783422958997621633,2026-07-07T18:15:58.997+07:00,540284537736260180,221274,180295,181959,1355
1783422959015803451,2026-07-07T18:15:59.015+07:00,540284537736260180,221066,180121,181763,1366
1783422959033985269,2026-07-07T18:15:59.033+07:00,540284537736260180,220919,179966,181564,1370
1783422959052167087,2026-07-07T18:15:59.052+07:00,540284537736260180,220697,179896,181402,1344
1783422959070348905,2026-07-07T18:15:59.070+07:00,540284537736260180,220501,179792,181239,1390
1783422959088530723,2026-07-07T18:15:59.088+07:00,540284537736260180,220371,179612,181069,1407
1783422959106712541,2026-07-07T18:15:59.106+07:00,540284537736260180,220308,179537,180949,1374
1783422959124894359,2026-07-07T18:15:59.124+07:00,540284537736260180,220075,179511,180818,1341
1783422959143076177,2026-07-07T18:15:59.143+07:00,540284537736260180,219974,179444,180677,1351
1783422959161257995,2026-07-07T18:15:59.161+07:00,540284537736260180,219834,179403,180579,1366
1783422959179439813,2026-07-07T18:15:59.179+07:00,540284538500485830,219688,179304,180468,1317
1783422959197621631,2026-07-07T18:15:59.197+07:00,540284538500485830,219563,179286,180359,1339
1783422959215803449,2026-07-07T18:15:59.215+07:00,540284538500485830,219494,179174,180228,1323
1783422959233985267,2026-07-07T18:15:59.233+07:00,540284538500485830,219436,179057,180200,1355
1783422959252167085,2026-07-07T18:15:59.252+07:00,540284538500485830,219292,178946,180035,1274
1783422959270348903,2026-07-07T18:15:59.270+07:00,540284538500485830,219236,178938,180002,1307
1783422959288530721,2026-07-07T18:15:59.288+07:00,540284538500485830,219109,178854,179863,1323
1783422959306712539,2026-07-07T18:15:59.306+07:00,540284538500485830,219027,178784,179842,1349
1783422959324894357,2026-07-07T18:15:59.324+07:00,540284538500485830,218898,178685,179705,1315
1783422959343076175,2026-07-07T18:15:59.343+07:00,540284538500485830,218891,178658,179681,1383
1783422959361257993,2026-07-07T18:15:59.361+07:00,540284538500485830,218869,178647,179628,1410
1783422959379439811,2026-07-07T18:15:59.379+07:00,540284538500485830,218813,178666,179597,1423
1783422959397621629,2026-07-07T18:15:59.397+07:00,540284538500485830,218783,178563,179546,1410
1783422959415803447,2026-07-07T18:15:59.415+07:00,540284538500485830,218752,178550,179536,1340
1783422959433985265,2026-07-07T18:15:59.433+07:00,540284538500485830,218743,178597,179531,1358
1783422959452167083,2026-07-07T18:15:59.452+07:00,540284538500485830,218782,178543,179544,1359
1783422959470348901,2026-07-07T18:15:59.470+07:00,540284538500485830,218660,178545,179552,1347
1783422959488530719,2026-07-07T18:15:59.488+07:00,540284538500485830,218622,178490,179528,1371
1783422959506712537,2026-07-07T18:15:59.506+07:00,540284538500485830,218593,178422,179509,1365
1783422959524894355,2026-07-07T18:15:59.524+07:00,540284538500485830,218621,178478,179521,1401
1783422959543076173,2026-07-07T18:15:59.543+07:00,540284538500485830,218581,178410,179552,1317
1783422959561257991,2026-07-07T18:15:59.561+07:00,540284538500485830,218527,178380,179439,1289
1783422959579439809,2026-07-07T18:15:59.579+07:00,540284538500485830,218541,178416,179492,1338
1783422959597621627,2026-07-07T18:15:59.597+07:00,540284538500485830,218476,178363,179433,1384
1783422959615803445,2026-07-07T18:15:59.615+07:00,540284538500485830,218375,178218,179270,1300
1783422959633985263,2026-07-07T18:15:59.633+07:00,540284538500485830,218196,178156,179143,1367
1783422959652167081,2026-07-07T18:15:59.652+07:00,540284538500485830,217917,177950,178924,1341
1783422959670348899,2026-07-07T18:15:59.670+07:00,540284538500485830,217677,177745,178747,1337
1783422959688530717,2026-07-07T18:15:59.688+07:00,540284538500485830,217407,177544,178527,1348
1783422959706712535,2026-07-07T18:15:59.706+07:00,540284538500485830,217144,177283,178286,1290
1783422959724894353,2026-07-07T18:15:59.724+07:00,540284538500485830,216924,177128,178104,1317
1783422959743076171,2026-07-07T18:15:59.743+07:00,540284538500485830,216744,177043,178007,1350
1783422959761257989,2026-07-07T18:15:59.761+07:00,540284538500485830,216568,176872,177842,1358
1783422959779439807,2026-07-07T18:15:59.779+07:00,540284538500485830,216462,176742,177761,1386
1783422959797621625,2026-07-07T18:15:59.797+07:00,540284538500485830,216162,176610,177566,1340
1783422959815803443,2026-07-07T18:15:59.815+07:00,540284538500485830,215917,176439,177342,1318
1783422959833985261,2026-07-07T18:15:59.833+07:00,540284538500485830,215736,176302,177225,1337
1783422959852167079,2026-07-07T18:15:59.852+07:00,540284538500485830,215533,176115,177027,1360
1783422959870348897,2026-07-07T18:15:59.870+07:00,540284538500485830,215346,175960,176904,1317
1783422959888530715,2026-07-07T18:15:59.888+07:00,540284538500485830,215127,175764,176828,1359
1783422959906712533,2026-07-07T18:15:59.906+07:00,540284538500485830,214874,175645,176626,1397
1783422959924894351,2026-07-07T18:15:59.924+07:00,540284538500485830,214607,175371,176396,1361
1783422959943076169,2026-07-07T18:15:59.943+07:00,540284539264705376,214470,175271,176281,1390
1783422959961257987,2026-07-07T18:15:59.961+07:00,540284539264705376,214255,175070,176126,1372
1783422959979439805,2026-07-07T18:15:59.979+07:00,540284539264705376,214059,174891,175984,1330
1783422959997621623,2026-07-07T18:15:59.997+07:00,540284539264705376,213976,174825,175895,1355
1783422960015803441,2026-07-07T18:16:00.015+07:00,540284539264705376,213798,174705,175787,1392
1783422960033985259,2026-07-07T18:16:00.033+07:00,540284539264705376,213703,174626,175721,1370
1783422960052167077,2026-07-07T18:16:00.052+07:00,540284539264705376,213628,174539,175707,1385
1783422960070348895,2026-07-07T18:16:00.070+07:00,540284539264705376,213567,174420,175651,1361
1783422960088530713,2026-07-07T18:16:00.088+07:00,540284539264705376,213411,174324,175563,1304
1783422960106712531,2026-07-07T18:16:00.106+07:00,540284539264705376,213387,174307,175482,1335
1783422960124894349,2026-07-07T18:16:00.124+07:00,540284539264705376,213281,174263,175459,1358
1783422960143076167,2026-07-07T18:16:00.143+07:00,540284539264705376,213172,174136,175408,1351
1783422960161257985,2026-07-07T18:16:00.161+07:00,540284539264705376,213090,174110,175349,1347
1783422960179439803,2026-07-07T18:16:00.179+07:00,540284539264705376,212989,174020,175356,1303
1783422960197621621,2026-07-07T18:16:00.197+07:00,540284539264705376,212894,173919,175284,1373
1783422960215803439,2026-07-07T18:16:00.215+07:00,540284539264705376,212742,173777,175192,1369
1783422960233985257,2026-07-07T18:16:00.233+07:00,540284539264705376,212688,173699,175095,1337
1783422960252167075,2026-07-07T18:16:00.252+07:00,540284539264705376,212498,173497,174994,1308
1783422960270348893,2026-07-07T18:16:00.270+07:00,540284539264705376,212323,173387,174798,1352
1783422960288530711,2026-07-07T18:16:00.288+07:00,540284539264705376,212022,173103,174563,1395
1783422960306712529,2026-07-07T18:16:00.306+07:00,540284539264705376,211751,172918,174333,1408
1783422960324894347,2026-07-07T18:16:00.324+07:00,540284539264705376,211424,172646,174046,1368
1783422960343076165,2026-07-07T18:16:00.343+07:00,540284539264705376,211159,172453,173832,1322
1783422960361257983,2026-07-07T18:16:00.361+07:00,540284539264705376,210957,172286,173664,1378
1783422960379439801,2026-07-07T18:16:00.379+07:00,540284539264705376,210793,172117,173491,1447
1783422960397621619,2026-07-07T18:16:00.397+07:00,540284539264705376,210641,171966,173361,1336
1783422960415803437,2026-07-07T18:16:00.415+07:00,540284539264705376,210495,171811,173208,1375
1783422960433985255,2026-07-07T18:16:00.433+07:00,540284539264705376,210316,171622,173066,1322
1783422960452167073,2026-07-07T18:16:00.452+07:00,540284539264705376,210168,171531,172924,1334
1783422960470348891,2026-07-07T18:16:00.470+07:00,540284539264705376,210015,171419,172806,1332
1783422960488530709,2026-07-07T18:16:00.488+07:00,540284539264705376,209902,171260,172685,1376
1783422960506712527,2026-07-07T18:16:00.506+07:00,540284539264705376,209789,171177,172626,1327
1783422960524894345,2026-07-07T18:16:00.524+07:00,540284539264705376,209588,171038,172482,1361
1783422960543076163,2026-07-07T18:16:00.543+07:00,540284539264705376,209501,170959,172395,1392
1783422960561257981,2026-07-07T18:16:00.561+07:00,540284539264705376,209309,170765,172231,1297
1783422960579439799,2026-07-07T18:16:00.579+07:00,540284539264705376,209183,170652,172086,1356
1783422960597621617,2026-07-07T18:16:00.597+07:00,540284539264705376,209110,170581,172053,1359
1783422960615803435,2026-07-07T18:16:00.615+07:00,540284539264705376,208949,170507,171949,1370
1783422960633985253,2026-07-07T18:16:00.633+07:00,540284539264705376,208914,170431,171901,1417
1783422960652167071,2026-07-07T18:16:00.652+07:00,540284539264705376,208814,170321,171865,1438
1783422960670348889,2026-07-07T18:16:00.670+07:00,540284539264705376,208813,170288,171830,1424
1783422960688530707,2026-07-07T18:16:00.688+07:00,540284539264705376,208818,170219,171779,1395
1783422960706712525,2026-07-07T18:16:00.706+07:00,540284540047145707,208700,170198,171751,1383
1783422960724894343,2026-07-07T18:16:00.724+07:00,540284540047145707,208660,170205,171709,1407
1783422960743076161,2026-07-07T18:16:00.743+07:00,540284540047145707,208680,170149,171748,1384
1783422960761257979,2026-07-07T18:16:00.761+07:00,540284540047145707,208633,170109,171653,1371
1783422960779439797,2026-07-07T18:16:00.779+07:00,540284540047145707,208634,170093,171653,1375
1783422960797621615,2026-07-07T18:16:00.797+07:00,540284540047145707,208614,170017,171662,1396
1783422960815803433,2026-07-07T18:16:00.815+07:00,540284540047145707,208613,170037,171705,1353
1783422960833985251,2026-07-07T18:16:00.833+07:00,540284540047145707,208545,169955,171636,1350
1783422960852167069,2026-07-07T18:16:00.852+07:00,540284540047145707,208590,169985,171671,1416
1783422960870348887,2026-07-07T18:16:00.870+07:00,540284540047145707,208603,169994,171691,1352
1783422960888530705,2026-07-07T18:16:00.888+07:00,540284540047145707,208653,169896,171641,1353
1783422960906712523,2026-07-07T18:16:00.906+07:00,540284540047145707,208648,169971,171654,1314
1783422960924894341,2026-07-07T18:16:00.924+07:00,540284540047145707,208618,169925,171652,1326
1783422960943076159,2026-07-07T18:16:00.943+07:00,540284540047145707,208450,169814,171541,1324
1783422960961257977,2026-07-07T18:16:00.961+07:00,540284540047145707,208288,169683,171393,1321
1783422960979439795,2026-07-07T18:16:00.979+07:00,540284540047145707,208033,169482,171141,1322
1783422960997621613,2026-07-07T18:16:00.997+07:00,540284540047145707,207835,169302,170942,1410
1783422961015803431,2026-07-07T18:16:01.015+07:00,540284540047145707,207556,169095,170724,1368
1783422961033985249,2026-07-07T18:16:01.033+07:00,540284540047145707,207353,168975,170553,1419
1783422961052167067,2026-07-07T18:16:01.052+07:00,540284540047145707,207151,168788,170352,1380
1783422961070348885,2026-07-07T18:16:01.070+07:00,540284540047145707,206989,168595,170201,1337
1783422961088530703,2026-07-07T18:16:01.088+07:00,540284540047145707,206885,168530,170096,1356
1783422961106712521,2026-07-07T18:16:01.106+07:00,540284540047145707,206772,168449,169985,1348
1783422961124894339,2026-07-07T18:16:01.124+07:00,540284540047145707,206614,168370,169830,1359
1783422961143076157,2026-07-07T18:16:01.143+07:00,540284540047145707,206524,168274,169734,1314
1783422961161257975,2026-07-07T18:16:01.161+07:00,540284540047145707,206465,168223,169687,1433
1783422961179439793,2026-07-07T18:16:01.179+07:00,540284540047145707,206378,168207,169603,1356
1783422961197621611,2026-07-07T18:16:01.197+07:00,540284540047145707,206317,168127,169498,1327
1783422961215803429,2026-07-07T18:16:01.215+07:00,540284540047145707,206201,168008,169416,1340
1783422961233985247,2026-07-07T18:16:01.233+07:00,540284540047145707,206157,167939,169289,1344
1783422961252167065,2026-07-07T18:16:01.252+07:00,540284540047145707,206024,167845,169229,1345
1783422961270348883,2026-07-07T18:16:01.270+07:00,540284540047145707,205997,167734,169100,1352
1783422961288530701,2026-07-07T18:16:01.288+07:00,540284540047145707,205944,167707,169073,1375
1783422961306712519,2026-07-07T18:16:01.306+07:00,540284540047145707,205811,167617,169021,1338
1783422961324894337,2026-07-07T18:16:01.324+07:00,540284540047145707,205843,167647,169027,1339
1783422961343076155,2026-07-07T18:16:01.343+07:00,540284540047145707,205803,167624,168973,1355
1783422961361257973,2026-07-07T18:16:01.361+07:00,540284540047145707,205783,167616,169016,1309
1783422961379439791,2026-07-07T18:16:01.379+07:00,540284540047145707,205769,167543,168961,1291
1783422961397621609,2026-07-07T18:16:01.397+07:00,540284540047145707,205828,167526,169061,1334
1783422961415803427,2026-07-07T18:16:01.415+07:00,540284540047145707,205799,167542,168955,1270
1783422961433985245,2026-07-07T18:16:01.433+07:00,540284540047145707,205924,167649,169076,1330
1783422961452167063,2026-07-07T18:16:01.452+07:00,540284540047145707,205940,167632,169061,1328
1783422961470348881,2026-07-07T18:16:01.470+07:00,540284540047145707,205941,167671,169072,1322
1783422961488530699,2026-07-07T18:16:01.488+07:00,540284540829540248,206040,167667,169154,1393
1783422961506712517,2026-07-07T18:16:01.506+07:00,540284540829540248,205980,167718,169130,1311
1783422961524894335,2026-07-07T18:16:01.524+07:00,540284540829540248,206124,167731,169186,1352
1783422961543076153,2026-07-07T18:16:01.543+07:00,540284540829540248,206128,167781,169222,1355
1783422961561257971,2026-07-07T18:16:01.561+07:00,540284540829540248,206241,167841,169263,1347
1783422961579439789,2026-07-07T18:16:01.579+07:00,540284540829540248,206297,167905,169363,1400
1783422961597621607,2026-07-07T18:16:01.597+07:00,540284540829540248,206303,167935,169359,1404
1783422961615803425,2026-07-07T18:16:01.615+07:00,540284540829540248,206360,167939,169322,1376
1783422961633985243,2026-07-07T18:16:01.633+07:00,540284540829540248,206326,167951,169322,1393
1783422961652167061,2026-07-07T18:16:01.652+07:00,540284540829540248,206185,167835,169213,1388
1783422961670348879,2026-07-07T18:16:01.670+07:00,540284540829540248,206043,167679,169097,1343
1783422961688530697,2026-07-07T18:16:01.688+07:00,540284540829540248,205984,167513,168899,1341
1783422961706712515,2026-07-07T18:16:01.706+07:00,540284540829540248,205708,167474,168758,1394
1783422961724894333,2026-07-07T18:16:01.724+07:00,540284540829540248,205509,167299,168543,1300
1783422961743076151,2026-07-07T18:16:01.743+07:00,540284540829540248,205421,167230,168471,1349
1783422961761257969,2026-07-07T18:16:01.761+07:00,540284540829540248,205322,167205,168375,1369
1783422961779439787,2026-07-07T18:16:01.779+07:00,540284540829540248,205264,167049,168300,1315
1783422961797621605,2026-07-07T18:16:01.797+07:00,540284540829540248,205283,167093,168236,1384
1783422961815803423,2026-07-07T18:16:01.815+07:00,540284540829540248,205250,166998,168210,1374
1783422961833985241,2026-07-07T18:16:01.833+07:00,540284540829540248,205205,167038,168230,1419
1783422961852167059,2026-07-07T18:16:01.852+07:00,540284540829540248,205120,167042,168183,1358
1783422961870348877,2026-07-07T18:16:01.870+07:00,540284540829540248,205106,166992,168108,1330
1783422961888530695,2026-07-07T18:16:01.888+07:00,540284540829540248,205078,167014,168106,1418
1783422961906712513,2026-07-07T18:16:01.906+07:00,540284540829540248,205030,166919,168050,1332
1783422961924894331,2026-07-07T18:16:01.924+07:00,540284540829540248,205043,166865,168028,1325
1783422961943076149,2026-07-07T18:16:01.943+07:00,540284540829540248,204988,166822,168067,1373
1783422961961257967,2026-07-07T18:16:01.961+07:00,540284540829540248,204976,166783,168001,1345
1783422961979439785,2026-07-07T18:16:01.979+07:00,540284540829540248,204995,166839,168016,1384
1783422961997621603,2026-07-07T18:16:01.997+07:00,540284540829540248,204937,166804,168015,1344
1783422962015803421,2026-07-07T18:16:02.015+07:00,540284540829540248,204965,166768,167994,1354
1783422962033985239,2026-07-07T18:16:02.033+07:00,540284540829540248,205032,166895,167994,1350
1783422962052167057,2026-07-07T18:16:02.052+07:00,540284540829540248,205072,166933,168044,1331
1783422962070348875,2026-07-07T18:16:02.070+07:00,540284540829540248,205143,166998,168134,1379
1783422962088530693,2026-07-07T18:16:02.088+07:00,540284540829540248,205206,167068,168178,1328
1783422962106712511,2026-07-07T18:16:02.106+07:00,540284540829540248,205273,167124,168296,1389
1783422962124894329,2026-07-07T18:16:02.124+07:00,540284540829540248,205323,167114,168391,1339
1783422962143076147,2026-07-07T18:16:02.143+07:00,540284540829540248,205492,167187,168441,1394
1783422962161257965,2026-07-07T18:16:02.161+07:00,540284540829540248,205570,167254,168552,1356
1783422962179439783,2026-07-07T18:16:02.179+07:00,540284540829540248,205680,167357,168659,1355
1783422962197621601,2026-07-07T18:16:02.197+07:00,540284540829540248,205722,167386,168699,1333
1783422962215803419,2026-07-07T18:16:02.215+07:00,540284540829540248,205880,167480,168796,1371
1783422962233985237,2026-07-07T18:16:02.233+07:00,540284540829540248,205934,167551,168828,1335
1783422962252167055,2026-07-07T18:16:02.252+07:00,540284540829540248,206006,167610,168852,1348
1783422962270348873,2026-07-07T18:16:02.270+07:00,540284541611797459,206102,167734,169021,1379
1783422962288530691,2026-07-07T18:16:02.288+07:00,540284541611797459,206220,167742,169116,1391
1783422962306712509,2026-07-07T18:16:02.306+07:00,540284541611797459,206334,167780,169179,1375
1783422962324894327,2026-07-07T18:16:02.324+07:00,540284541611797459,206426,167920,169350,1352
1783422962343076145,2026-07-07T18:16:02.343+07:00,540284541611797459,206563,167981,169407,1366
1783422962361257963,2026-07-07T18:16:02.361+07:00,540284541611797459,206556,167990,169473,1388
1783422962379439781,2026-07-07T18:16:02.379+07:00,540284541611797459,206612,168004,169422,1331
1783422962397621599,2026-07-07T18:16:02.397+07:00,540284541611797459,206571,167993,169418,1371
1783422962415803417,2026-07-07T18:16:02.415+07:00,540284541611797459,206423,167863,169266,1348
1783422962433985235,2026-07-07T18:16:02.433+07:00,540284541611797459,206317,167747,169136,1314
1783422962452167053,2026-07-07T18:16:02.452+07:00,540284541611797459,206278,167658,169036,1378
1783422962470348871,2026-07-07T18:16:02.470+07:00,540284541611797459,206181,167599,168973,1326
1783422962488530689,2026-07-07T18:16:02.488+07:00,540284541611797459,206152,167602,168966,1324
1783422962506712507,2026-07-07T18:16:02.506+07:00,540284541611797459,206151,167595,168926,1353
1783422962524894325,2026-07-07T18:16:02.524+07:00,540284541611797459,206036,167540,168881,1336
1783422962543076143,2026-07-07T18:16:02.543+07:00,540284541611797459,206154,167614,168854,1308
1783422962561257961,2026-07-07T18:16:02.561+07:00,540284541611797459,206127,167585,168887,1355
1783422962579439779,2026-07-07T18:16:02.579+07:00,540284541611797459,206116,167527,168848,1316
1783422962597621597,2026-07-07T18:16:02.597+07:00,540284541611797459,206190,167581,168932,1387
1783422962615803415,2026-07-07T18:16:02.615+07:00,540284541611797459,206159,167531,168930,1301
1783422962633985233,2026-07-07T18:16:02.633+07:00,540284541611797459,206164,167578,168882,1325
1783422962652167051,2026-07-07T18:16:02.652+07:00,540284541611797459,206213,167615,168963,1374
1783422962670348869,2026-07-07T18:16:02.670+07:00,540284541611797459,206275,167614,168964,1355
1783422962688530687,2026-07-07T18:16:02.688+07:00,540284541611797459,206228,167531,168965,1333
1783422962706712505,2026-07-07T18:16:02.706+07:00,540284541611797459,206193,167529,168874,1274
1783422962724894323,2026-07-07T18:16:02.724+07:00,540284541611797459,206245,167553,168935,1311
1783422962743076141,2026-07-07T18:16:02.743+07:00,540284541611797459,206283,167550,168980,1356
1783422962761257959,2026-07-07T18:16:02.761+07:00,540284541611797459,206321,167568,168960,1371
1783422962779439777,2026-07-07T18:16:02.779+07:00,540284541611797459,206452,167652,169029,1385
1783422962797621595,2026-07-07T18:16:02.797+07:00,540284541611797459,206450,167589,169100,1343
1783422962815803413,2026-07-07T18:16:02.815+07:00,540284541611797459,206510,167698,169103,1291
1783422962833985231,2026-07-07T18:16:02.833+07:00,540284541611797459,206628,167772,169203,1367
1783422962852167049,2026-07-07T18:16:02.852+07:00,540284541611797459,206746,167850,169315,1351
1783422962870348867,2026-07-07T18:16:02.870+07:00,540284541611797459,206849,167881,169398,1345
1783422962888530685,2026-07-07T18:16:02.888+07:00,540284541611797459,206896,167905,169439,1356
1783422962906712503,2026-07-07T18:16:02.906+07:00,540284541611797459,207068,168068,169575,1371
1783422962924894321,2026-07-07T18:16:02.924+07:00,540284541611797459,207152,168073,169710,1354
1783422962943076139,2026-07-07T18:16:02.943+07:00,540284541611797459,207287,168224,169764,1386
1783422962961257957,2026-07-07T18:16:02.961+07:00,540284541611797459,207369,168189,169865,1392
1783422962979439775,2026-07-07T18:16:02.979+07:00,540284541611797459,207452,168246,169936,1402
1783422962997621593,2026-07-07T18:16:02.997+07:00,540284541611797459,207435,168304,170046,1377
1783422963015803411,2026-07-07T18:16:03.015+07:00,540284541611797459,207509,168353,170049,1361
1783422963033985229,2026-07-07T18:16:03.033+07:00,540284541611797459,207563,168391,170125,1335
1783422963052167047,2026-07-07T18:16:03.052+07:00,540284542394048564,207743,168461,170188,1395
1783422963070348865,2026-07-07T18:16:03.070+07:00,540284542394048564,207798,168513,170326,1386
1783422963088530683,2026-07-07T18:16:03.088+07:00,540284542394048564,207879,168539,170438,1376
1783422963106712501,2026-07-07T18:16:03.106+07:00,540284542394048564,207985,168567,170463,1313
1783422963124894319,2026-07-07T18:16:03.124+07:00,540284542394048564,208103,168667,170570,1341
1783422963143076137,2026-07-07T18:16:03.143+07:00,540284542394048564,208139,168697,170549,1370
1783422963161257955,2026-07-07T18:16:03.161+07:00,540284542394048564,208073,168574,170423,1330
1783422963179439773,2026-07-07T18:16:03.179+07:00,540284542394048564,207957,168536,170338,1281
1783422963197621591,2026-07-07T18:16:03.197+07:00,540284542394048564,207863,168515,170306,1303
1783422963215803409,2026-07-07T18:16:03.215+07:00,540284542394048564,207782,168387,170213,1318
1783422963233985227,2026-07-07T18:16:03.233+07:00,540284542394048564,207789,168324,170152,1367
1783422963252167045,2026-07-07T18:16:03.252+07:00,540284542394048564,207804,168307,170167,1393
1783422963270348863,2026-07-07T18:16:03.270+07:00,540284542394048564,207705,168356,170150,1396
1783422963288530681,2026-07-07T18:16:03.288+07:00,540284542394048564,207733,168313,170176,1396
1783422963306712499,2026-07-07T18:16:03.306+07:00,540284542394048564,207741,168242,170236,1371
1783422963324894317,2026-07-07T18:16:03.324+07:00,540284542394048564,207773,168264,170206,1351
1783422963343076135,2026-07-07T18:16:03.343+07:00,540284542394048564,207824,168377,170288,1372
1783422963361257953,2026-07-07T18:16:03.361+07:00,540284542394048564,207860,168401,170334,1352
1783422963379439771,2026-07-07T18:16:03.379+07:00,540284542394048564,207948,168425,170310,1376
1783422963397621589,2026-07-07T18:16:03.397+07:00,540284542394048564,207989,168394,170353,1389
1783422963415803407,2026-07-07T18:16:03.415+07:00,540284542394048564,208009,168437,170371,1341
1783422963433985225,2026-07-07T18:16:03.433+07:00,540284542394048564,208061,168492,170497,1373
1783422963452167043,2026-07-07T18:16:03.452+07:00,540284542394048564,208151,168516,170515,1358
1783422963470348861,2026-07-07T18:16:03.470+07:00,540284542394048564,208164,168554,170506,1284
1783422963488530679,2026-07-07T18:16:03.488+07:00,540284542394048564,208286,168723,170687,1349
1783422963506712497,2026-07-07T18:16:03.506+07:00,540284542394048564,208360,168674,170701,1315
1783422963524894315,2026-07-07T18:16:03.524+07:00,540284542394048564,208467,168760,170764,1382
1783422963543076133,2026-07-07T18:16:03.543+07:00,540284542394048564,208541,168871,170933,1373
1783422963561257951,2026-07-07T18:16:03.561+07:00,540284542394048564,208699,168920,171079,1384
1783422963579439769,2026-07-07T18:16:03.579+07:00,540284542394048564,208780,169024,171192,1339
1783422963597621587,2026-07-07T18:16:03.597+07:00,540284542394048564,208881,169048,171236,1274
1783422963615803405,2026-07-07T18:16:03.615+07:00,540284542394048564,209049,169174,171375,1292
1783422963633985223,2026-07-07T18:16:03.633+07:00,540284542394048564,209203,169271,171505,1366
1783422963652167041,2026-07-07T18:16:03.652+07:00,540284542394048564,209330,169385,171645,1266
1783422963670348859,2026-07-07T18:16:03.670+07:00,540284542394048564,209471,169491,171783,1323
1783422963688530677,2026-07-07T18:16:03.688+07:00,540284542394048564,209546,169614,171893,1311
1783422963706712495,2026-07-07T18:16:03.706+07:00,540284542394048564,209764,169786,172052,1379
1783422963724894313,2026-07-07T18:16:03.724+07:00,540284542394048564,209847,169853,172242,1388
1783422963743076131,2026-07-07T18:16:03.743+07:00,540284542394048564,209978,169892,172300,1379
1783422963761257949,2026-07-07T18:16:03.761+07:00,540284542394048564,210082,169976,172438,1380
1783422963779439767,2026-07-07T18:16:03.779+07:00,540284542394048564,210173,170062,172573,1362
1783422963797621585,2026-07-07T18:16:03.797+07:00,540284542394048564,210339,170236,172668,1306
1783422963815803403,2026-07-07T18:16:03.815+07:00,540284542394048564,210534,170347,172900,1335
1783422963833985221,2026-07-07T18:16:03.833+07:00,540284543103468467,210631,170445,173000,1354
1783422963852167039,2026-07-07T18:16:03.852+07:00,540284543103468467,210798,170520,173093,1382
1783422963870348857,2026-07-07T18:16:03.870+07:00,540284543103468467,210909,170639,173214,1345
1783422963888530675,2026-07-07T18:16:03.888+07:00,540284543103468467,210957,170603,173289,1316
1783422963906712493,2026-07-07T18:16:03.906+07:00,540284543103468467,211006,170629,173287,1344
1783422963924894311,2026-07-07T18:16:03.924+07:00,540284543103468467,210889,170590,173227,1348
1783422963943076129,2026-07-07T18:16:03.943+07:00,540284543103468467,210842,170573,173195,1331
1783422963961257947,2026-07-07T18:16:03.961+07:00,540284543103468467,210771,170496,173184,1373
1783422963979439765,2026-07-07T18:16:03.979+07:00,540284543103468467,210735,170397,173074,1330
1783422963997621583,2026-07-07T18:16:03.997+07:00,540284543103468467,210774,170400,173087,1342
1783422964015803401,2026-07-07T18:16:04.015+07:00,540284543103468467,210758,170409,173117,1372
1783422964033985219,2026-07-07T18:16:04.033+07:00,540284543103468467,210694,170403,173144,1324
1783422964052167037,2026-07-07T18:16:04.052+07:00,540284543103468467,210792,170431,173225,1385
1783422964070348855,2026-07-07T18:16:04.070+07:00,540284543103468467,210832,170382,173219,1424
1783422964088530673,2026-07-07T18:16:04.088+07:00,540284543103468467,210800,170426,173296,1379
1783422964106712491,2026-07-07T18:16:04.106+07:00,540284543103468467,210734,170347,173250,1351
1783422964124894309,2026-07-07T18:16:04.124+07:00,540284543103468467,210688,170217,173206,1359
1783422964143076127,2026-07-07T18:16:04.143+07:00,540284543103468467,210646,170143,173191,1397
1783422964161257945,2026-07-07T18:16:04.161+07:00,540284543103468467,210690,170168,173186,1360
1783422964179439763,2026-07-07T18:16:04.179+07:00,540284543103468467,210913,170360,173300,1318
1783422964197621581,2026-07-07T18:16:04.197+07:00,540284543103468467,211331,170733,173520,1341
1783422964215803399,2026-07-07T18:16:04.215+07:00,540284543103468467,211779,171183,173835,1366
1783422964233985217,2026-07-07T18:16:04.233+07:00,540284543103468467,212332,171597,174169,1319
1783422964252167035,2026-07-07T18:16:04.252+07:00,540284543103468467,212873,172081,174525,1305
1783422964270348853,2026-07-07T18:16:04.270+07:00,540284543103468467,213414,172649,174979,1335
1783422964288530671,2026-07-07T18:16:04.288+07:00,540284543103468467,214029,173129,175443,1283
1783422964306712489,2026-07-07T18:16:04.306+07:00,540284543103468467,214570,173655,175932,1323
1783422964324894307,2026-07-07T18:16:04.324+07:00,540284543103468467,215051,174086,176330,1320
1783422964343076125,2026-07-07T18:16:04.343+07:00,540284543103468467,215621,174573,176828,1388
1783422964361257943,2026-07-07T18:16:04.361+07:00,540284543103468467,216178,175023,177212,1374
1783422964379439761,2026-07-07T18:16:04.379+07:00,540284543103468467,216664,175523,177705,1317
1783422964397621579,2026-07-07T18:16:04.397+07:00,540284543103468467,217117,175820,178117,1358
1783422964415803397,2026-07-07T18:16:04.415+07:00,540284543103468467,217483,176184,178457,1365
1783422964433985215,2026-07-07T18:16:04.433+07:00,540284543103468467,217854,176431,178792,1372
1783422964452167033,2026-07-07T18:16:04.452+07:00,540284543103468467,218203,176588,179071,1340
1783422964470348851,2026-07-07T18:16:04.470+07:00,540284543103468467,218564,176802,179335,1395
1783422964488530669,2026-07-07T18:16:04.488+07:00,540284543103468467,218878,176968,179651,1344
1783422964506712487,2026-07-07T18:16:04.506+07:00,540284543103468467,219171,177207,179941,1321
1783422964524894305,2026-07-07T18:16:04.524+07:00,540284543103468467,219437,177394,180192,1340
1783422964543076123,2026-07-07T18:16:04.543+07:00,540284543867475915,219668,177593,180498,1308
1783422964561257941,2026-07-07T18:16:04.561+07:00,540284543867475915,219888,177854,180729,1335
1783422964579439759,2026-07-07T18:16:04.579+07:00,540284543867475915,220100,177999,180952,1334
1783422964597621577,2026-07-07T18:16:04.597+07:00,540284543867475915,220349,178219,181282,1344
1783422964615803395,2026-07-07T18:16:04.615+07:00,540284543867475915,220577,178391,181516,1343
1783422964633985213,2026-07-07T18:16:04.633+07:00,540284543867475915,220837,178577,181734,1342
1783422964652167031,2026-07-07T18:16:04.652+07:00,540284543867475915,221041,178726,181923,1351
1783422964670348849,2026-07-07T18:16:04.670+07:00,540284543867475915,221217,178879,182112,1352
1783422964688530667,2026-07-07T18:16:04.688+07:00,540284543867475915,221454,178987,182334,1360
1783422964706712485,2026-07-07T18:16:04.706+07:00,540284543867475915,221694,179156,182535,1358
1783422964724894303,2026-07-07T18:16:04.724+07:00,540284543867475915,221900,179304,182685,1353
1783422964743076121,2026-07-07T18:16:04.743+07:00,540284543867475915,222124,179552,182898,1352
1783422964761257939,2026-07-07T18:16:04.761+07:00,540284543867475915,222387,179770,183098,1369
