host_timestamp_ns,host_timestamp_iso,pmd_timestamp,ppg0,ppg1,ppg2,ambient
1783333582664069897,2026-07-06T17:26:22.664+07:00,540195162328070571,166708,186830,135932,1273
1783333582682251715,2026-07-06T17:26:22.682+07:00,540195162328070571,166674,186873,135931,1266
1783333582700433533,2026-07-06T17:26:22.700+07:00,540195162328070571,166751,186932,135980,1284
1783333582718615351,2026-07-06T17:26:22.718+07:00,540195162328070571,166820,186944,136015,1252
1783333582736797169,2026-07-06T17:26:22.736+07:00,540195162328070571,166905,187028,136078,1256
1783333582754978987,2026-07-06T17:26:22.754+07:00,540195162328070571,166968,187121,136104,1247
1783333582773160805,2026-07-06T17:26:22.773+07:00,540195162328070571,166963,187183,136214,1314
1783333582791342623,2026-07-06T17:26:22.791+07:00,540195162328070571,167015,187215,136245,1251
1783333582809524441,2026-07-06T17:26:22.809+07:00,540195162328070571,167141,187343,136338,1255
1783333582827706259,2026-07-06T17:26:22.827+07:00,540195162328070571,167162,187337,136372,1253
1783333582845888077,2026-07-06T17:26:22.845+07:00,540195162328070571,167120,187273,136252,1223
1783333582864069895,2026-07-06T17:26:22.864+07:00,540195162328070571,167093,187254,136278,1258
1783333582882251713,2026-07-06T17:26:22.882+07:00,540195162328070571,167014,187169,136180,1258
1783333582900433531,2026-07-06T17:26:22.900+07:00,540195162328070571,166927,187049,136192,1286
1783333582918615349,2026-07-06T17:26:22.918+07:00,540195162328070571,166789,186912,136093,1279
1783333582936797167,2026-07-06T17:26:22.936+07:00,540195162328070571,166749,186821,136023,1274
1783333582954978985,2026-07-06T17:26:22.954+07:00,540195162328070571,166703,186756,135969,1283
1783333582973160803,2026-07-06T17:26:22.973+07:00,540195162328070571,166626,186613,135919,1297
1783333582991342621,2026-07-06T17:26:22.991+07:00,540195162328070571,166518,186552,135902,1249
1783333583009524439,2026-07-06T17:26:23.009+07:00,540195162328070571,166551,186493,135852,1267
1783333583027706257,2026-07-06T17:26:23.027+07:00,540195162328070571,166536,186462,135804,1263
1783333583045888075,2026-07-06T17:26:23.045+07:00,540195162328070571,166501,186443,135828,1239
1783333583064069893,2026-07-06T17:26:23.064+07:00,540195162328070571,166501,186473,135844,1301
1783333583082251711,2026-07-06T17:26:23.082+07:00,540195162328070571,166540,186409,135804,1240
1783333583100433529,2026-07-06T17:26:23.100+07:00,540195162328070571,166564,186402,135807,1266
1783333583118615347,2026-07-06T17:26:23.118+07:00,540195162328070571,166583,186442,135856,1304
1783333583136797165,2026-07-06T17:26:23.136+07:00,540195162328070571,166606,186527,135859,1299
1783333583154978983,2026-07-06T17:26:23.154+07:00,540195162328070571,166644,186487,135937,1267
1783333583173160801,2026-07-06T17:26:23.173+07:00,540195162328070571,166681,186520,135925,1224
1783333583191342619,2026-07-06T17:26:23.191+07:00,540195162328070571,166745,186544,135906,1207
1783333583209524437,2026-07-06T17:26:23.209+07:00,540195162328070571,166683,186584,135960,1258
1783333583227706255,2026-07-06T17:26:23.227+07:00,540195162328070571,166697,186557,135905,1265
1783333583245888073,2026-07-06T17:26:23.245+07:00,540195162328070571,166822,186598,136036,1294
1783333583264069891,2026-07-06T17:26:23.264+07:00,540195162328070571,166826,186595,136016,1246
1783333583282251709,2026-07-06T17:26:23.282+07:00,540195162328070571,166962,186708,136124,1299
1783333583300433527,2026-07-06T17:26:23.300+07:00,540195162328070571,167017,186746,136130,1302
1783333583318615345,2026-07-06T17:26:23.318+07:00,540195162328070571,167036,186879,136236,1330
1783333583336797163,2026-07-06T17:26:23.336+07:00,540195162328070571,167166,186949,136325,1314
1783333583354978981,2026-07-06T17:26:23.354+07:00,540195162328070571,167188,187023,136283,1269
1783333583373160799,2026-07-06T17:26:23.373+07:00,540195162328070571,167260,187071,136382,1247
1783333583391342617,2026-07-06T17:26:23.391+07:00,540195162328070571,167284,187149,136438,1248
1783333583409524435,2026-07-06T17:26:23.409+07:00,540195162328070571,167381,187201,136520,1240
1783333583427706253,2026-07-06T17:26:23.427+07:00,540195162328070571,167393,187197,136513,1189
1783333583445888071,2026-07-06T17:26:23.445+07:00,540195163110675688,167532,187307,136621,1223
1783333583464069889,2026-07-06T17:26:23.464+07:00,540195163110675688,167664,187425,136745,1221
1783333583482251707,2026-07-06T17:26:23.482+07:00,540195163110675688,167710,187501,136765,1216
1783333583500433525,2026-07-06T17:26:23.500+07:00,540195163110675688,167841,187707,136853,1277
1783333583518615343,2026-07-06T17:26:23.518+07:00,540195163110675688,167914,187696,136929,1228
1783333583536797161,2026-07-06T17:26:23.536+07:00,540195163110675688,168017,187793,136971,1263
1783333583554978979,2026-07-06T17:26:23.554+07:00,540195163110675688,168074,187990,137136,1279
1783333583573160797,2026-07-06T17:26:23.573+07:00,540195163110675688,168091,187887,137080,1317
1783333583591342615,2026-07-06T17:26:23.591+07:00,540195163110675688,168014,187860,137068,1263
1783333583609524433,2026-07-06T17:26:23.609+07:00,540195163110675688,168065,187883,137055,1326
1783333583627706251,2026-07-06T17:26:23.627+07:00,540195163110675688,167997,187781,136965,1307
1783333583645888069,2026-07-06T17:26:23.645+07:00,540195163110675688,167933,187675,136910,1319
1783333583664069887,2026-07-06T17:26:23.664+07:00,540195163110675688,167872,187555,136898,1239
1783333583682251705,2026-07-06T17:26:23.682+07:00,540195163110675688,167799,187527,136847,1263
1783333583700433523,2026-07-06T17:26:23.700+07:00,540195163110675688,167782,187478,136895,1296
1783333583718615341,2026-07-06T17:26:23.718+07:00,540195163110675688,167798,187415,136879,1237
1783333583736797159,2026-07-06T17:26:23.736+07:00,540195163110675688,167789,187408,136870,1223
1783333583754978977,2026-07-06T17:26:23.754+07:00,540195163110675688,167761,187389,136863,1215
1783333583773160795,2026-07-06T17:26:23.773+07:00,540195163110675688,167794,187429,136926,1265
1783333583791342613,2026-07-06T17:26:23.791+07:00,540195163110675688,167843,187403,136964,1254
1783333583809524431,2026-07-06T17:26:23.809+07:00,540195163110675688,167885,187454,136943,1256
1783333583827706249,2026-07-06T17:26:23.827+07:00,540195163110675688,167908,187507,137004,1284
1783333583845888067,2026-07-06T17:26:23.845+07:00,540195163110675688,167968,187484,137025,1237
1783333583864069885,2026-07-06T17:26:23.864+07:00,540195163110675688,168015,187575,137100,1253
1783333583882251703,2026-07-06T17:26:23.882+07:00,540195163110675688,168053,187563,137124,1260
1783333583900433521,2026-07-06T17:26:23.900+07:00,540195163110675688,168057,187541,137105,1213
1783333583918615339,2026-07-06T17:26:23.918+07:00,540195163110675688,168104,187631,137100,1224
1783333583936797157,2026-07-06T17:26:23.936+07:00,540195163110675688,168156,187646,137207,1218
1783333583954978975,2026-07-06T17:26:23.954+07:00,540195163110675688,168212,187753,137199,1270
1783333583973160793,2026-07-06T17:26:23.973+07:00,540195163110675688,168301,187797,137336,1269
1783333583991342611,2026-07-06T17:26:23.991+07:00,540195163110675688,168270,187873,137389,1259
1783333584009524429,2026-07-06T17:26:24.009+07:00,540195163110675688,168444,187967,137493,1257
1783333584027706247,2026-07-06T17:26:24.027+07:00,540195163110675688,168453,187974,137460,1248
1783333584045888065,2026-07-06T17:26:24.045+07:00,540195163110675688,168524,188100,137554,1240
1783333584064069883,2026-07-06T17:26:24.064+07:00,540195163110675688,168601,188200,137628,1208
1783333584082251701,2026-07-06T17:26:24.082+07:00,540195163110675688,168638,188310,137664,1233
1783333584100433519,2026-07-06T17:26:24.100+07:00,540195163110675688,168766,188304,137741,1233
1783333584118615337,2026-07-06T17:26:24.118+07:00,540195163110675688,168890,188426,137826,1284
1783333584136797155,2026-07-06T17:26:24.136+07:00,540195163110675688,168963,188547,137971,1337
1783333584154978973,2026-07-06T17:26:24.154+07:00,540195163110675688,168998,188627,137986,1286
1783333584173160791,2026-07-06T17:26:24.173+07:00,540195163110675688,169099,188726,138117,1199
1783333584191342609,2026-07-06T17:26:24.191+07:00,540195163110675688,169188,188805,138169,1265
1783333584209524427,2026-07-06T17:26:24.209+07:00,540195163110675688,169295,188997,138245,1232
1783333584227706245,2026-07-06T17:26:24.227+07:00,540195163893161783,169348,189103,138369,1238
1783333584245888063,2026-07-06T17:26:24.245+07:00,540195163893161783,169511,189168,138481,1289
1783333584264069881,2026-07-06T17:26:24.264+07:00,540195163893161783,169584,189295,138471,1247
1783333584282251699,2026-07-06T17:26:24.282+07:00,540195163893161783,169741,189446,138620,1224
1783333584300433517,2026-07-06T17:26:24.300+07:00,540195163893161783,169798,189591,138756,1297
1783333584318615335,2026-07-06T17:26:24.318+07:00,540195163893161783,169876,189649,138797,1271
1783333584336797153,2026-07-06T17:26:24.336+07:00,540195163893161783,169917,189659,138834,1276
1783333584354978971,2026-07-06T17:26:24.354+07:00,540195163893161783,169963,189652,138867,1273
1783333584373160789,2026-07-06T17:26:24.373+07:00,540195163893161783,169897,189632,138805,1262
1783333584391342607,2026-07-06T17:26:24.391+07:00,540195163893161783,169877,189493,138823,1262
1783333584409524425,2026-07-06T17:26:24.409+07:00,540195163893161783,169883,189493,138825,1260
1783333584427706243,2026-07-06T17:26:24.427+07:00,540195163893161783,169887,189412,138794,1311
1783333584445888061,2026-07-06T17:26:24.445+07:00,540195163893161783,169852,189427,138830,1239
1783333584464069879,2026-07-06T17:26:24.464+07:00,540195163893161783,169892,189408,138820,1250
1783333584482251697,2026-07-06T17:26:24.482+07:00,540195163893161783,169896,189364,138795,1237
1783333584500433515,2026-07-06T17:26:24.500+07:00,540195163893161783,169904,189435,138862,1276
1783333584518615333,2026-07-06T17:26:24.518+07:00,540195163893161783,169956,189533,138846,1326
1783333584536797151,2026-07-06T17:26:24.536+07:00,540195163893161783,169987,189508,138931,1285
1783333584554978969,2026-07-06T17:26:24.554+07:00,540195163893161783,170037,189585,138978,1254
1783333584573160787,2026-07-06T17:26:24.573+07:00,540195163893161783,170099,189586,139030,1222
1783333584591342605,2026-07-06T17:26:24.591+07:00,540195163893161783,170170,189608,139095,1259
1783333584609524423,2026-07-06T17:26:24.609+07:00,540195163893161783,170237,189692,139195,1297
1783333584627706241,2026-07-06T17:26:24.627+07:00,540195163893161783,170249,189745,139116,1239
1783333584645888059,2026-07-06T17:26:24.645+07:00,540195163893161783,170303,189739,139171,1301
1783333584664069877,2026-07-06T17:26:24.664+07:00,540195163893161783,170399,189801,139241,1292
1783333584682251695,2026-07-06T17:26:24.682+07:00,540195163893161783,170397,189889,139293,1292
1783333584700433513,2026-07-06T17:26:24.700+07:00,540195163893161783,170366,189912,139296,1281
1783333584718615331,2026-07-06T17:26:24.718+07:00,540195163893161783,170471,189973,139362,1270
1783333584736797149,2026-07-06T17:26:24.736+07:00,540195163893161783,170607,190019,139434,1207
1783333584754978967,2026-07-06T17:26:24.754+07:00,540195163893161783,170647,190154,139573,1223
1783333584773160785,2026-07-06T17:26:24.773+07:00,540195163893161783,170747,190187,139567,1231
1783333584791342603,2026-07-06T17:26:24.791+07:00,540195163893161783,170747,190267,139640,1197
1783333584809524421,2026-07-06T17:26:24.809+07:00,540195163893161783,170885,190337,139713,1281
1783333584827706239,2026-07-06T17:26:24.827+07:00,540195163893161783,170970,190464,139777,1242
1783333584845888057,2026-07-06T17:26:24.845+07:00,540195163893161783,171011,190472,139816,1232
1783333584864069875,2026-07-06T17:26:24.864+07:00,540195163893161783,171119,190650,139932,1255
1783333584882251693,2026-07-06T17:26:24.882+07:00,540195163893161783,171206,190711,140023,1276
1783333584900433511,2026-07-06T17:26:24.900+07:00,540195163893161783,171324,190785,140071,1308
1783333584918615329,2026-07-06T17:26:24.918+07:00,540195163893161783,171338,190949,140114,1234
1783333584936797147,2026-07-06T17:26:24.936+07:00,540195163893161783,171431,191056,140266,1202
1783333584954978965,2026-07-06T17:26:24.954+07:00,540195163893161783,171519,191100,140294,1230
1783333584973160783,2026-07-06T17:26:24.973+07:00,540195163893161783,171633,191284,140398,1260
1783333584991342601,2026-07-06T17:26:24.991+07:00,540195163893161783,171765,191331,140456,1290
1783333585009524419,2026-07-06T17:26:25.009+07:00,540195164675605154,171815,191399,140560,1222
1783333585027706237,2026-07-06T17:26:25.027+07:00,540195164675605154,171945,191549,140656,1238
1783333585045888055,2026-07-06T17:26:25.045+07:00,540195164675605154,172059,191664,140755,1294
1783333585064069873,2026-07-06T17:26:25.064+07:00,540195164675605154,172148,191870,140879,1343
1783333585082251691,2026-07-06T17:26:25.082+07:00,540195164675605154,172177,191857,140886,1302
1783333585100433509,2026-07-06T17:26:25.100+07:00,540195164675605154,172144,191842,140887,1300
1783333585118615327,2026-07-06T17:26:25.118+07:00,540195164675605154,172186,191860,140947,1307
1783333585136797145,2026-07-06T17:26:25.136+07:00,540195164675605154,172152,191792,140887,1252
1783333585154978963,2026-07-06T17:26:25.154+07:00,540195164675605154,172121,191720,140848,1245
1783333585173160781,2026-07-06T17:26:25.173+07:00,540195164675605154,172109,191660,140817,1234
1783333585191342599,2026-07-06T17:26:25.191+07:00,540195164675605154,172137,191647,140886,1304
1783333585209524417,2026-07-06T17:26:25.209+07:00,540195164675605154,172128,191699,140889,1241
1783333585227706235,2026-07-06T17:26:25.227+07:00,540195164675605154,172165,191719,140894,1257
1783333585245888053,2026-07-06T17:26:25.245+07:00,540195164675605154,172164,191793,140911,1287
1783333585264069871,2026-07-06T17:26:25.264+07:00,540195164675605154,172272,191788,141013,1307
1783333585282251689,2026-07-06T17:26:25.282+07:00,540195164675605154,172292,191850,141002,1302
1783333585300433507,2026-07-06T17:26:25.300+07:00,540195164675605154,172316,191926,141021,1287
1783333585318615325,2026-07-06T17:26:25.318+07:00,540195164675605154,172409,191906,141094,1308
1783333585336797143,2026-07-06T17:26:25.336+07:00,540195164675605154,172488,191960,141181,1305
1783333585354978961,2026-07-06T17:26:25.354+07:00,540195164675605154,172554,192028,141237,1266
1783333585373160779,2026-07-06T17:26:25.373+07:00,540195164675605154,172518,192114,141274,1281
1783333585391342597,2026-07-06T17:26:25.391+07:00,540195164675605154,172580,192183,141307,1336
1783333585409524415,2026-07-06T17:26:25.409+07:00,540195164675605154,172639,192253,141321,1309
1783333585427706233,2026-07-06T17:26:25.427+07:00,540195164675605154,172673,192296,141433,1283
1783333585445888051,2026-07-06T17:26:25.445+07:00,540195164675605154,172736,192338,141507,1264
1783333585464069869,2026-07-06T17:26:25.464+07:00,540195164675605154,172755,192371,141536,1219
1783333585482251687,2026-07-06T17:26:25.482+07:00,540195164675605154,172856,192448,141539,1277
1783333585500433505,2026-07-06T17:26:25.500+07:00,540195164675605154,172997,192521,141577,1287
1783333585518615323,2026-07-06T17:26:25.518+07:00,540195164675605154,173056,192669,141683,1320
1783333585536797141,2026-07-06T17:26:25.536+07:00,540195164675605154,173042,192664,141735,1290
1783333585554978959,2026-07-06T17:26:25.554+07:00,540195164675605154,173146,192709,141735,1271
1783333585573160777,2026-07-06T17:26:25.573+07:00,540195164675605154,173236,192861,141876,1263
1783333585591342595,2026-07-06T17:26:25.591+07:00,540195164675605154,173267,192878,141905,1241
1783333585609524413,2026-07-06T17:26:25.609+07:00,540195164675605154,173368,193029,142041,1308
1783333585627706231,2026-07-06T17:26:25.627+07:00,540195164675605154,173420,193038,142051,1256
1783333585645888049,2026-07-06T17:26:25.645+07:00,540195164675605154,173488,193144,142167,1265
1783333585664069867,2026-07-06T17:26:25.664+07:00,540195164675605154,173509,193224,142196,1224
1783333585682251685,2026-07-06T17:26:25.682+07:00,540195164675605154,173637,193314,142332,1277
1783333585700433503,2026-07-06T17:26:25.700+07:00,540195164675605154,173710,193437,142387,1260
1783333585718615321,2026-07-06T17:26:25.718+07:00,540195164675605154,173791,193562,142451,1274
1783333585736797139,2026-07-06T17:26:25.736+07:00,540195164675605154,173844,193625,142481,1283
1783333585754978957,2026-07-06T17:26:25.754+07:00,540195164675605154,173998,193694,142557,1288
1783333585773160775,2026-07-06T17:26:25.773+07:00,540195164675605154,174074,193772,142642,1250
1783333585791342593,2026-07-06T17:26:25.791+07:00,540195165458048525,174071,193868,142649,1306
1783333585809524411,2026-07-06T17:26:25.809+07:00,540195165458048525,174003,193881,142636,1272
1783333585827706229,2026-07-06T17:26:25.827+07:00,540195165458048525,174072,193819,142651,1231
1783333585845888047,2026-07-06T17:26:25.845+07:00,540195165458048525,173944,193842,142685,1217
1783333585864069865,2026-07-06T17:26:25.864+07:00,540195165458048525,173991,193729,142599,1252
1783333585882251683,2026-07-06T17:26:25.882+07:00,540195165458048525,173948,193651,142646,1225
1783333585900433501,2026-07-06T17:26:25.900+07:00,540195165458048525,173912,193627,142617,1252
1783333585918615319,2026-07-06T17:26:25.918+07:00,540195165458048525,173918,193633,142652,1275
1783333585936797137,2026-07-06T17:26:25.936+07:00,540195165458048525,173972,193627,142639,1260
1783333585954978955,2026-07-06T17:26:25.954+07:00,540195165458048525,174005,193612,142605,1255
1783333585973160773,2026-07-06T17:26:25.973+07:00,540195165458048525,174082,193714,142725,1281
1783333585991342591,2026-07-06T17:26:25.991+07:00,540195165458048525,174109,193766,142735,1265
1783333586009524409,2026-07-06T17:26:26.009+07:00,540195165458048525,174076,193764,142724,1238
1783333586027706227,2026-07-06T17:26:26.027+07:00,540195165458048525,174201,193818,142834,1305
1783333586045888045,2026-07-06T17:26:26.045+07:00,540195165458048525,174149,193937,142838,1239
1783333586064069863,2026-07-06T17:26:26.064+07:00,540195165458048525,174206,193984,142836,1271
1783333586082251681,2026-07-06T17:26:26.082+07:00,540195165458048525,174312,194024,142909,1324
1783333586100433499,2026-07-06T17:26:26.100+07:00,540195165458048525,174381,193994,142929,1258
1783333586118615317,2026-07-06T17:26:26.118+07:00,540195165458048525,174371,194021,142951,1203
1783333586136797135,2026-07-06T17:26:26.136+07:00,540195165458048525,174385,194059,142976,1252
1783333586154978953,2026-07-06T17:26:26.154+07:00,540195165458048525,174452,194147,143036,1282
1783333586173160771,2026-07-06T17:26:26.173+07:00,540195165458048525,174483,194222,143066,1269
1783333586191342589,2026-07-06T17:26:26.191+07:00,540195165458048525,174566,194242,143125,1326
1783333586209524407,2026-07-06T17:26:26.209+07:00,540195165458048525,174651,194278,143174,1302
1783333586227706225,2026-07-06T17:26:26.227+07:00,540195165458048525,174665,194348,143207,1246
1783333586245888043,2026-07-06T17:26:26.245+07:00,540195165458048525,174679,194417,143193,1255
1783333586264069861,2026-07-06T17:26:26.264+07:00,540195165458048525,174841,194583,143304,1243
1783333586282251679,2026-07-06T17:26:26.282+07:00,540195165458048525,174839,194606,143362,1217
1783333586300433497,2026-07-06T17:26:26.300+07:00,540195165458048525,174854,194719,143385,1252
1783333586318615315,2026-07-06T17:26:26.318+07:00,540195165458048525,174979,194787,143464,1271
1783333586336797133,2026-07-06T17:26:26.336+07:00,540195165458048525,175015,194891,143466,1212
1783333586354978951,2026-07-06T17:26:26.354+07:00,540195165458048525,175076,194936,143588,1247
1783333586373160769,2026-07-06T17:26:26.373+07:00,540195165458048525,175187,195028,143626,1215
1783333586391342587,2026-07-06T17:26:26.391+07:00,540195165458048525,175313,195140,143754,1242
1783333586409524405,2026-07-06T17:26:26.409+07:00,540195165458048525,175353,195263,143834,1246
1783333586427706223,2026-07-06T17:26:26.427+07:00,540195165458048525,175387,195310,143881,1263
1783333586445888041,2026-07-06T17:26:26.445+07:00,540195165458048525,175505,195451,143915,1291
1783333586464069859,2026-07-06T17:26:26.464+07:00,540195165458048525,175554,195525,144026,1288
1783333586482251677,2026-07-06T17:26:26.482+07:00,540195165458048525,175552,195633,144065,1206
1783333586500433495,2026-07-06T17:26:26.500+07:00,540195165458048525,175615,195710,144099,1233
1783333586518615313,2026-07-06T17:26:26.518+07:00,540195165458048525,175694,195775,144171,1306
1783333586536797131,2026-07-06T17:26:26.536+07:00,540195165458048525,175702,195784,144185,1268
1783333586554978949,2026-07-06T17:26:26.554+07:00,540195165458048525,175730,195801,144147,1299
1783333586573160767,2026-07-06T17:26:26.573+07:00,540195166222326057,175726,195710,144159,1298
1783333586591342585,2026-07-06T17:26:26.591+07:00,540195166222326057,175643,195605,144044,1253
1783333586609524403,2026-07-06T17:26:26.609+07:00,540195166222326057,175568,195583,144048,1308
1783333586627706221,2026-07-06T17:26:26.627+07:00,540195166222326057,175581,195547,143988,1328
1783333586645888039,2026-07-06T17:26:26.645+07:00,540195166222326057,175505,195469,143900,1296
1783333586664069857,2026-07-06T17:26:26.664+07:00,540195166222326057,175513,195459,143956,1293
1783333586682251675,2026-07-06T17:26:26.682+07:00,540195166222326057,175487,195422,143907,1221
1783333586700433493,2026-07-06T17:26:26.700+07:00,540195166222326057,175611,195455,143957,1301
1783333586718615311,2026-07-06T17:26:26.718+07:00,540195166222326057,175569,195487,143956,1229
1783333586736797129,2026-07-06T17:26:26.736+07:00,540195166222326057,175634,195491,143958,1283
1783333586754978947,2026-07-06T17:26:26.754+07:00,540195166222326057,175540,195513,143958,1237
1783333586773160765,2026-07-06T17:26:26.773+07:00,540195166222326057,175672,195594,144060,1294
1783333586791342583,2026-07-06T17:26:26.791+07:00,540195166222326057,175663,195512,144062,1271
1783333586809524401,2026-07-06T17:26:26.809+07:00,540195166222326057,175627,195457,143978,1223
1783333586827706219,2026-07-06T17:26:26.827+07:00,540195166222326057,175686,195593,143980,1235
1783333586845888037,2026-07-06T17:26:26.845+07:00,540195166222326057,175733,195601,144029,1302
1783333586864069855,2026-07-06T17:26:26.864+07:00,540195166222326057,175724,195606,144018,1268
1783333586882251673,2026-07-06T17:26:26.882+07:00,540195166222326057,175745,195604,144063,1251
1783333586900433491,2026-07-06T17:26:26.900+07:00,540195166222326057,175741,195697,144080,1270
1783333586918615309,2026-07-06T17:26:26.918+07:00,540195166222326057,175833,195696,144043,1249
1783333586936797127,2026-07-06T17:26:26.936+07:00,540195166222326057,175847,195766,144114,1221
1783333586954978945,2026-07-06T17:26:26.954+07:00,540195166222326057,175878,195795,144166,1256
1783333586973160763,2026-07-06T17:26:26.973+07:00,540195166222326057,175837,195816,144164,1256
1783333586991342581,2026-07-06T17:26:26.991+07:00,540195166222326057,175954,195850,144227,1290
1783333587009524399,2026-07-06T17:26:27.009+07:00,540195166222326057,175979,195929,144261,1298
1783333587027706217,2026-07-06T17:26:27.027+07:00,540195166222326057,176048,195998,144306,1342
1783333587045888035,2026-07-06T17:26:27.045+07:00,540195166222326057,176113,196102,144346,1284
1783333587064069853,2026-07-06T17:26:27.064+07:00,540195166222326057,176112,196101,144342,1263
1783333587082251671,2026-07-06T17:26:27.082+07:00,540195166222326057,176109,196185,144362,1241
1783333587100433489,2026-07-06T17:26:27.100+07:00,540195166222326057,176313,196289,144462,1338
1783333587118615307,2026-07-06T17:26:27.118+07:00,540195166222326057,176362,196424,144510,1290
1783333587136797125,2026-07-06T17:26:27.136+07:00,540195166222326057,176373,196444,144505,1220
1783333587154978943,2026-07-06T17:26:27.154+07:00,540195166222326057,176429,196475,144532,1217
1783333587173160761,2026-07-06T17:26:27.173+07:00,540195166222326057,176564,196569,144623,1232
1783333587191342579,2026-07-06T17:26:27.191+07:00,540195166222326057,176638,196614,144624,1226
1783333587209524397,2026-07-06T17:26:27.209+07:00,540195166222326057,176767,196775,144731,1267
1783333587227706215,2026-07-06T17:26:27.227+07:00,540195166222326057,176828,196940,144755,1257
1783333587245888033,2026-07-06T17:26:27.245+07:00,540195166222326057,176973,197107,144873,1276
1783333587264069851,2026-07-06T17:26:27.264+07:00,540195166222326057,177066,197218,144887,1260
1783333587282251669,2026-07-06T17:26:27.282+07:00,540195166222326057,177133,197315,144923,1237
1783333587300433487,2026-07-06T17:26:27.300+07:00,540195166222326057,177156,197352,144914,1259
1783333587318615305,2026-07-06T17:26:27.318+07:00,540195166222326057,177145,197319,144887,1276
1783333587336797123,2026-07-06T17:26:27.336+07:00,540195167004799956,177094,197251,144824,1250
1783333587354978941,2026-07-06T17:26:27.354+07:00,540195167004799956,177074,197223,144789,1298
1783333587373160759,2026-07-06T17:26:27.373+07:00,540195167004799956,176957,197032,144679,1201
1783333587391342577,2026-07-06T17:26:27.391+07:00,540195167004799956,176910,196850,144509,1229
1783333587409524395,2026-07-06T17:26:27.409+07:00,540195167004799956,176882,196727,144468,1292
1783333587427706213,2026-07-06T17:26:27.427+07:00,540195167004799956,176865,196736,144488,1286
1783333587445888031,2026-07-06T17:26:27.445+07:00,540195167004799956,176863,196722,144469,1310
1783333587464069849,2026-07-06T17:26:27.464+07:00,540195167004799956,176804,196651,144406,1321
1783333587482251667,2026-07-06T17:26:27.482+07:00,540195167004799956,176789,196625,144430,1325
1783333587500433485,2026-07-06T17:26:27.500+07:00,540195167004799956,176839,196634,144410,1318
1783333587518615303,2026-07-06T17:26:27.518+07:00,540195167004799956,176813,196600,144401,1271
1783333587536797121,2026-07-06T17:26:27.536+07:00,540195167004799956,176839,196589,144374,1247
1783333587554978939,2026-07-06T17:26:27.554+07:00,540195167004799956,176835,196596,144387,1277
1783333587573160757,2026-07-06T17:26:27.573+07:00,540195167004799956,176818,196567,144345,1285
1783333587591342575,2026-07-06T17:26:27.591+07:00,540195167004799956,176827,196574,144386,1310
1783333587609524393,2026-07-06T17:26:27.609+07:00,540195167004799956,176840,196623,144394,1303
1783333587627706211,2026-07-06T17:26:27.627+07:00,540195167004799956,176789,196554,144324,1248
1783333587645888029,2026-07-06T17:26:27.645+07:00,540195167004799956,176852,196561,144365,1305
1783333587664069847,2026-07-06T17:26:27.664+07:00,540195167004799956,176814,196528,144337,1280
1783333587682251665,2026-07-06T17:26:27.682+07:00,540195167004799956,176774,196498,144247,1263
1783333587700433483,2026-07-06T17:26:27.700+07:00,540195167004799956,176782,196450,144214,1256
1783333587718615301,2026-07-06T17:26:27.718+07:00,540195167004799956,176808,196463,144260,1243
1783333587736797119,2026-07-06T17:26:27.736+07:00,540195167004799956,176863,196449,144335,1285
1783333587754978937,2026-07-06T17:26:27.754+07:00,540195167004799956,176792,196454,144299,1256
1783333587773160755,2026-07-06T17:26:27.773+07:00,540195167004799956,176890,196410,144276,1277
1783333587791342573,2026-07-06T17:26:27.791+07:00,540195167004799956,176844,196428,144266,1276
1783333587809524391,2026-07-06T17:26:27.809+07:00,540195167004799956,176828,196436,144305,1270
1783333587827706209,2026-07-06T17:26:27.827+07:00,540195167004799956,176888,196398,144256,1250
1783333587845888027,2026-07-06T17:26:27.845+07:00,540195167004799956,176872,196468,144253,1245
1783333587864069845,2026-07-06T17:26:27.864+07:00,540195167004799956,176861,196418,144323,1248
1783333587882251663,2026-07-06T17:26:27.882+07:00,540195167004799956,176840,196496,144303,1206
1783333587900433481,2026-07-06T17:26:27.900+07:00,540195167004799956,176892,196519,144319,1288
1783333587918615299,2026-07-06T17:26:27.918+07:00,540195167004799956,177008,196633,144385,1281
1783333587936797117,2026-07-06T17:26:27.936+07:00,540195167004799956,176998,196607,144424,1301
1783333587954978935,2026-07-06T17:26:27.954+07:00,540195167004799956,177121,196724,144512,1387
1783333587973160753,2026-07-06T17:26:27.973+07:00,540195167004799956,177117,196668,144427,1337
1783333587991342571,2026-07-06T17:26:27.991+07:00,540195167004799956,177130,196711,144441,1335
1783333588009524389,2026-07-06T17:26:28.009+07:00,540195167004799956,177123,196755,144485,1260
1783333588027706207,2026-07-06T17:26:28.027+07:00,540195167004799956,177171,196765,144507,1248
1783333588045888025,2026-07-06T17:26:28.045+07:00,540195167004799956,177197,196781,144495,1254
1783333588064069843,2026-07-06T17:26:28.064+07:00,540195167004799956,177099,196685,144466,1273
1783333588082251661,2026-07-06T17:26:28.082+07:00,540195167004799956,176984,196536,144377,1300
1783333588100433479,2026-07-06T17:26:28.100+07:00,540195167004799956,176865,196359,144253,1257
1783333588118615297,2026-07-06T17:26:28.118+07:00,540195167769077488,176752,196210,144137,1263
1783333588136797115,2026-07-06T17:26:28.136+07:00,540195167769077488,176694,196026,144033,1274
1783333588154978933,2026-07-06T17:26:28.154+07:00,540195167769077488,176594,195895,143953,1272
1783333588173160751,2026-07-06T17:26:28.173+07:00,540195167769077488,176467,195751,143862,1268
1783333588191342569,2026-07-06T17:26:28.191+07:00,540195167769077488,176367,195643,143794,1282
1783333588209524387,2026-07-06T17:26:28.209+07:00,540195167769077488,176308,195504,143751,1269
1783333588227706205,2026-07-06T17:26:28.227+07:00,540195167769077488,176321,195546,143725,1328
1783333588245888023,2026-07-06T17:26:28.245+07:00,540195167769077488,176228,195445,143693,1250
1783333588264069841,2026-07-06T17:26:28.264+07:00,540195167769077488,176291,195422,143684,1285
1783333588282251659,2026-07-06T17:26:28.282+07:00,540195167769077488,176247,195414,143605,1285
1783333588300433477,2026-07-06T17:26:28.300+07:00,540195167769077488,176253,195377,143599,1305
1783333588318615295,2026-07-06T17:26:28.318+07:00,540195167769077488,176183,195383,143569,1296
1783333588336797113,2026-07-06T17:26:28.336+07:00,540195167769077488,176161,195259,143538,1271
1783333588354978931,2026-07-06T17:26:28.354+07:00,540195167769077488,176057,195195,143475,1263
1783333588373160749,2026-07-06T17:26:28.373+07:00,540195167769077488,176092,195223,143435,1318
1783333588391342567,2026-07-06T17:26:28.391+07:00,540195167769077488,176012,195250,143457,1357
1783333588409524385,2026-07-06T17:26:28.409+07:00,540195167769077488,176016,195219,143480,1344
1783333588427706203,2026-07-06T17:26:28.427+07:00,540195167769077488,176004,195186,143467,1302
1783333588445888021,2026-07-06T17:26:28.445+07:00,540195167769077488,176003,195187,143457,1294
1783333588464069839,2026-07-06T17:26:28.464+07:00,540195167769077488,176017,195143,143437,1269
1783333588482251657,2026-07-06T17:26:28.482+07:00,540195167769077488,176055,195093,143416,1292
1783333588500433475,2026-07-06T17:26:28.500+07:00,540195167769077488,176092,195244,143416,1286
1783333588518615293,2026-07-06T17:26:28.518+07:00,540195167769077488,176079,195251,143472,1260
1783333588536797111,2026-07-06T17:26:28.536+07:00,540195167769077488,176081,195320,143475,1274
1783333588554978929,2026-07-06T17:26:28.554+07:00,540195167769077488,176090,195403,143486,1256
1783333588573160747,2026-07-06T17:26:28.573+07:00,540195167769077488,176137,195399,143546,1279
1783333588591342565,2026-07-06T17:26:28.591+07:00,540195167769077488,176150,195463,143549,1276
1783333588609524383,2026-07-06T17:26:28.609+07:00,540195167769077488,176157,195429,143552,1280
1783333588627706201,2026-07-06T17:26:28.627+07:00,540195167769077488,176291,195512,143640,1336
1783333588645888019,2026-07-06T17:26:28.645+07:00,540195167769077488,176234,195537,143612,1267
1783333588664069837,2026-07-06T17:26:28.664+07:00,540195167769077488,176291,195659,143641,1313
1783333588682251655,2026-07-06T17:26:28.682+07:00,540195167769077488,176336,195658,143623,1322
1783333588700433473,2026-07-06T17:26:28.700+07:00,540195167769077488,176302,195677,143635,1264
1783333588718615291,2026-07-06T17:26:28.718+07:00,540195167769077488,176301,195708,143636,1318
1783333588736797109,2026-07-06T17:26:28.736+07:00,540195167769077488,176263,195599,143642,1305
1783333588754978927,2026-07-06T17:26:28.754+07:00,540195167769077488,176174,195515,143530,1281
1783333588773160745,2026-07-06T17:26:28.773+07:00,540195167769077488,176104,195419,143410,1268
1783333588791342563,2026-07-06T17:26:28.791+07:00,540195167769077488,175975,195222,143386,1280
1783333588809524381,2026-07-06T17:26:28.809+07:00,540195167769077488,175836,195011,143190,1225
1783333588827706199,2026-07-06T17:26:28.827+07:00,540195167769077488,175737,194918,143138,1288
1783333588845888017,2026-07-06T17:26:28.845+07:00,540195167769077488,175581,194778,143012,1301
1783333588864069835,2026-07-06T17:26:28.864+07:00,540195167769077488,175488,194626,142853,1322
1783333588882251653,2026-07-06T17:26:28.882+07:00,540195168533324502,175439,194602,142902,1306
1783333588900433471,2026-07-06T17:26:28.900+07:00,540195168533324502,175366,194527,142763,1238
1783333588918615289,2026-07-06T17:26:28.918+07:00,540195168533324502,175347,194524,142788,1272
1783333588936797107,2026-07-06T17:26:28.936+07:00,540195168533324502,175302,194474,142814,1283
1783333588954978925,2026-07-06T17:26:28.954+07:00,540195168533324502,175313,194457,142784,1324
1783333588973160743,2026-07-06T17:26:28.973+07:00,540195168533324502,175248,194425,142792,1245
1783333588991342561,2026-07-06T17:26:28.991+07:00,540195168533324502,175268,194417,142673,1267
1783333589009524379,2026-07-06T17:26:29.009+07:00,540195168533324502,175321,194447,142739,1332
1783333589027706197,2026-07-06T17:26:29.027+07:00,540195168533324502,175240,194345,142660,1306
1783333589045888015,2026-07-06T17:26:29.045+07:00,540195168533324502,175126,194364,142682,1303
1783333589064069833,2026-07-06T17:26:29.064+07:00,540195168533324502,175078,194209,142591,1253
1783333589082251651,2026-07-06T17:26:29.082+07:00,540195168533324502,175054,194169,142559,1260
1783333589100433469,2026-07-06T17:26:29.100+07:00,540195168533324502,175011,194113,142532,1279
1783333589118615287,2026-07-06T17:26:29.118+07:00,540195168533324502,175033,194166,142574,1292
1783333589136797105,2026-07-06T17:26:29.136+07:00,540195168533324502,174985,194152,142551,1332
1783333589154978923,2026-07-06T17:26:29.154+07:00,540195168533324502,175059,194175,142581,1357
1783333589173160741,2026-07-06T17:26:29.173+07:00,540195168533324502,175031,194193,142542,1324
1783333589191342559,2026-07-06T17:26:29.191+07:00,540195168533324502,175015,194151,142550,1285
1783333589209524377,2026-07-06T17:26:29.209+07:00,540195168533324502,175030,194247,142565,1315
1783333589227706195,2026-07-06T17:26:29.227+07:00,540195168533324502,174993,194222,142575,1248
1783333589245888013,2026-07-06T17:26:29.245+07:00,540195168533324502,175007,194247,142654,1294
1783333589264069831,2026-07-06T17:26:29.264+07:00,540195168533324502,175040,194305,142613,1269
1783333589282251649,2026-07-06T17:26:29.282+07:00,540195168533324502,175118,194366,142643,1279
1783333589300433467,2026-07-06T17:26:29.300+07:00,540195168533324502,175131,194327,142677,1260
1783333589318615285,2026-07-06T17:26:29.318+07:00,540195168533324502,175166,194458,142723,1299
1783333589336797103,2026-07-06T17:26:29.336+07:00,540195168533324502,175206,194520,142761,1328
1783333589354978921,2026-07-06T17:26:29.354+07:00,540195168533324502,175279,194523,142806,1309
1783333589373160739,2026-07-06T17:26:29.373+07:00,540195168533324502,175279,194600,142866,1273
1783333589391342557,2026-07-06T17:26:29.391+07:00,540195168533324502,175360,194685,142862,1324
1783333589409524375,2026-07-06T17:26:29.409+07:00,540195168533324502,175312,194654,142821,1305
1783333589427706193,2026-07-06T17:26:29.427+07:00,540195168533324502,175253,194465,142723,1257
1783333589445888011,2026-07-06T17:26:29.445+07:00,540195168533324502,175126,194411,142634,1311
1783333589464069829,2026-07-06T17:26:29.464+07:00,540195168533324502,174949,194242,142506,1284
1783333589482251647,2026-07-06T17:26:29.482+07:00,540195168533324502,174799,194008,142337,1199
1783333589500433465,2026-07-06T17:26:29.500+07:00,540195168533324502,174669,193824,142191,1260
1783333589518615283,2026-07-06T17:26:29.518+07:00,540195168533324502,174540,193733,142175,1310
1783333589536797101,2026-07-06T17:26:29.536+07:00,540195168533324502,174442,193564,142060,1251
1783333589554978919,2026-07-06T17:26:29.554+07:00,540195168533324502,174336,193400,141913,1258
1783333589573160737,2026-07-06T17:26:29.573+07:00,540195168533324502,174267,193414,141833,1301
1783333589591342555,2026-07-06T17:26:29.591+07:00,540195168533324502,174227,193360,141812,1304
1783333589609524373,2026-07-06T17:26:29.609+07:00,540195168533324502,174150,193310,141803,1277
1783333589627706191,2026-07-06T17:26:29.627+07:00,540195168533324502,174178,193344,141815,1304
1783333589645888009,2026-07-06T17:26:29.645+07:00,540195169406767970,174184,193294,141767,1316
1783333589664069827,2026-07-06T17:26:29.664+07:00,540195169406767970,174125,193390,141816,1319
1783333589682251645,2026-07-06T17:26:29.682+07:00,540195169406767970,174090,193344,141752,1276
1783333589700433463,2026-07-06T17:26:29.700+07:00,540195169406767970,174068,193352,141789,1358
1783333589718615281,2026-07-06T17:26:29.718+07:00,540195169406767970,174065,193297,141751,1327
1783333589736797099,2026-07-06T17:26:29.736+07:00,540195169406767970,174027,193295,141743,1316
1783333589754978917,2026-07-06T17:26:29.754+07:00,540195169406767970,174083,193292,141670,1267
1783333589773160735,2026-07-06T17:26:29.773+07:00,540195169406767970,174038,193257,141631,1268
1783333589791342553,2026-07-06T17:26:29.791+07:00,540195169406767970,174041,193255,141577,1274
1783333589809524371,2026-07-06T17:26:29.809+07:00,540195169406767970,173982,193251,141585,1230
1783333589827706189,2026-07-06T17:26:29.827+07:00,540195169406767970,174026,193236,141660,1293
1783333589845888007,2026-07-06T17:26:29.845+07:00,540195169406767970,173986,193196,141574,1276
1783333589864069825,2026-07-06T17:26:29.864+07:00,540195169406767970,174041,193246,141676,1277
1783333589882251643,2026-07-06T17:26:29.882+07:00,540195169406767970,173947,193201,141627,1236
1783333589900433461,2026-07-06T17:26:29.900+07:00,540195169406767970,173964,193270,141705,1286
1783333589918615279,2026-07-06T17:26:29.918+07:00,540195169406767970,173997,193229,141712,1256
1783333589936797097,2026-07-06T17:26:29.936+07:00,540195169406767970,174039,193311,141706,1304
1783333589954978915,2026-07-06T17:26:29.954+07:00,540195169406767970,174010,193348,141683,1262
1783333589973160733,2026-07-06T17:26:29.973+07:00,540195169406767970,174011,193374,141748,1269
1783333589991342551,2026-07-06T17:26:29.991+07:00,540195169406767970,174060,193435,141785,1279
1783333590009524369,2026-07-06T17:26:30.009+07:00,540195169406767970,174057,193433,141797,1305
1783333590027706187,2026-07-06T17:26:30.027+07:00,540195169406767970,174006,193509,141874,1252
1783333590045888005,2026-07-06T17:26:30.045+07:00,540195169406767970,174048,193543,141893,1264
1783333590064069823,2026-07-06T17:26:30.064+07:00,540195169406767970,174088,193593,141954,1272
1783333590082251641,2026-07-06T17:26:30.082+07:00,540195169406767970,174127,193685,142033,1258
1783333590100433459,2026-07-06T17:26:30.100+07:00,540195169406767970,174146,193655,141985,1317
1783333590118615277,2026-07-06T17:26:30.118+07:00,540195169406767970,174111,193664,141982,1256
1783333590136797095,2026-07-06T17:26:30.136+07:00,540195169406767970,174044,193526,141836,1241
1783333590154978913,2026-07-06T17:26:30.154+07:00,540195169406767970,173875,193375,141676,1231
1783333590173160731,2026-07-06T17:26:30.173+07:00,540195169406767970,173817,193325,141657,1287
1783333590191342549,2026-07-06T17:26:30.191+07:00,540195169406767970,173652,193107,141543,1240
1783333590209524367,2026-07-06T17:26:30.209+07:00,540195169406767970,173532,192956,141433,1209
1783333590227706185,2026-07-06T17:26:30.227+07:00,540195169406767970,173431,192859,141296,1284
1783333590245888003,2026-07-06T17:26:30.245+07:00,540195169406767970,173361,192747,141231,1272
1783333590264069821,2026-07-06T17:26:30.264+07:00,540195169406767970,173274,192696,141216,1253
1783333590282251639,2026-07-06T17:26:30.282+07:00,540195169406767970,173244,192688,141173,1253
1783333590300433457,2026-07-06T17:26:30.300+07:00,540195169406767970,173196,192606,141201,1271
1783333590318615275,2026-07-06T17:26:30.318+07:00,540195169406767970,173169,192606,141136,1243
1783333590336797093,2026-07-06T17:26:30.336+07:00,540195169406767970,173163,192559,141099,1302
1783333590354978911,2026-07-06T17:26:30.354+07:00,540195169406767970,173127,192599,141115,1247
1783333590373160729,2026-07-06T17:26:30.373+07:00,540195169406767970,173103,192609,141118,1293
1783333590391342547,2026-07-06T17:26:30.391+07:00,540195169406767970,173104,192580,141100,1256
1783333590409524365,2026-07-06T17:26:30.409+07:00,540195169406767970,173109,192546,141090,1269
1783333590427706183,2026-07-06T17:26:30.427+07:00,540195169406767970,173024,192492,141057,1249
1783333590445888001,2026-07-06T17:26:30.445+07:00,540195169406767970,173138,192528,141065,1229
1783333590464069819,2026-07-06T17:26:30.464+07:00,540195169406767970,173066,192547,141013,1250
1783333590482251637,2026-07-06T17:26:30.482+07:00,540195169406767970,173072,192541,141055,1267
1783333590500433455,2026-07-06T17:26:30.500+07:00,540195169406767970,173017,192553,141009,1239
1783333590518615273,2026-07-06T17:26:30.518+07:00,540195170243812618,173009,192556,141067,1267
1783333590536797091,2026-07-06T17:26:30.536+07:00,540195170243812618,172999,192543,141058,1285
1783333590554978909,2026-07-06T17:26:30.554+07:00,540195170243812618,172972,192579,141073,1291
1783333590573160727,2026-07-06T17:26:30.573+07:00,540195170243812618,173068,192675,141112,1331
1783333590591342545,2026-07-06T17:26:30.591+07:00,540195170243812618,173041,192662,141085,1254
1783333590609524363,2026-07-06T17:26:30.609+07:00,540195170243812618,173067,192655,141165,1286
1783333590627706181,2026-07-06T17:26:30.627+07:00,540195170243812618,173123,192696,141200,1234
1783333590645887999,2026-07-06T17:26:30.645+07:00,540195170243812618,173107,192763,141196,1215
1783333590664069817,2026-07-06T17:26:30.664+07:00,540195170243812618,173124,192815,141217,1300
1783333590682251635,2026-07-06T17:26:30.682+07:00,540195170243812618,173199,192851,141251,1266
1783333590700433453,2026-07-06T17:26:30.700+07:00,540195170243812618,173307,192995,141312,1254
1783333590718615271,2026-07-06T17:26:30.718+07:00,540195170243812618,173329,192980,141381,1230
1783333590736797089,2026-07-06T17:26:30.736+07:00,540195170243812618,173361,193069,141401,1250
1783333590754978907,2026-07-06T17:26:30.754+07:00,540195170243812618,173398,193073,141457,1233
1783333590773160725,2026-07-06T17:26:30.773+07:00,540195170243812618,173444,193229,141574,1218
1783333590791342543,2026-07-06T17:26:30.791+07:00,540195170243812618,173421,193309,141531,1212
1783333590809524361,2026-07-06T17:26:30.809+07:00,540195170243812618,173463,193364,141556,1248
1783333590827706179,2026-07-06T17:26:30.827+07:00,540195170243812618,173427,193284,141508,1222
1783333590845887997,2026-07-06T17:26:30.845+07:00,540195170243812618,173436,193298,141524,1221
1783333590864069815,2026-07-06T17:26:30.864+07:00,540195170243812618,173283,193167,141383,1207
1783333590882251633,2026-07-06T17:26:30.882+07:00,540195170243812618,173198,193046,141338,1236
1783333590900433451,2026-07-06T17:26:30.900+07:00,540195170243812618,173086,192913,141226,1257
1783333590918615269,2026-07-06T17:26:30.918+07:00,540195170243812618,173001,192882,141110,1273
1783333590936797087,2026-07-06T17:26:30.936+07:00,540195170243812618,172933,192757,141092,1249
1783333590954978905,2026-07-06T17:26:30.954+07:00,540195170243812618,172831,192665,140990,1239
1783333590973160723,2026-07-06T17:26:30.973+07:00,540195170243812618,172824,192633,141000,1246
1783333590991342541,2026-07-06T17:26:30.991+07:00,540195170243812618,172806,192628,140999,1332
1783333591009524359,2026-07-06T17:26:31.009+07:00,540195170243812618,172801,192621,140951,1301
1783333591027706177,2026-07-06T17:26:31.027+07:00,540195170243812618,172810,192611,140942,1277
1783333591045887995,2026-07-06T17:26:31.045+07:00,540195170243812618,172768,192507,140941,1258
1783333591064069813,2026-07-06T17:26:31.064+07:00,540195170243812618,172745,192618,140916,1238
1783333591082251631,2026-07-06T17:26:31.082+07:00,540195170243812618,172741,192608,140934,1231
1783333591100433449,2026-07-06T17:26:31.100+07:00,540195170243812618,172764,192652,140976,1259
1783333591118615267,2026-07-06T17:26:31.118+07:00,540195170243812618,172742,192581,140943,1274
1783333591136797085,2026-07-06T17:26:31.136+07:00,540195170243812618,172757,192615,140947,1254
1783333591154978903,2026-07-06T17:26:31.154+07:00,540195170243812618,172774,192649,140945,1249
1783333591173160721,2026-07-06T17:26:31.173+07:00,540195170243812618,172758,192631,140942,1251
1783333591191342539,2026-07-06T17:26:31.191+07:00,540195170243812618,172718,192654,140914,1213
1783333591209524357,2026-07-06T17:26:31.209+07:00,540195170243812618,172811,192706,140961,1247
1783333591227706175,2026-07-06T17:26:31.227+07:00,540195170243812618,172824,192712,140967,1271
1783333591245887993,2026-07-06T17:26:31.245+07:00,540195170243812618,172800,192687,140933,1206
1783333591264069811,2026-07-06T17:26:31.264+07:00,540195170243812618,172737,192774,140996,1274
1783333591282251629,2026-07-06T17:26:31.282+07:00,540195170243812618,172787,192785,140961,1293
1783333591300433447,2026-07-06T17:26:31.300+07:00,540195170243812618,172810,192861,141041,1275
1783333591318615265,2026-07-06T17:26:31.318+07:00,540195170243812618,172865,192872,141058,1263
1783333591336797083,2026-07-06T17:26:31.336+07:00,540195170243812618,172933,192929,141079,1322
1783333591354978901,2026-07-06T17:26:31.354+07:00,540195171062648713,172922,193017,141166,1273
1783333591373160719,2026-07-06T17:26:31.373+07:00,540195171062648713,173015,193080,141210,1293
1783333591391342537,2026-07-06T17:26:31.391+07:00,540195171062648713,173062,193142,141245,1260
1783333591409524355,2026-07-06T17:26:31.409+07:00,540195171062648713,173097,193212,141275,1264
1783333591427706173,2026-07-06T17:26:31.427+07:00,540195171062648713,173191,193365,141386,1279
1783333591445887991,2026-07-06T17:26:31.445+07:00,540195171062648713,173305,193473,141470,1335
1783333591464069809,2026-07-06T17:26:31.464+07:00,540195171062648713,173375,193572,141456,1302
1783333591482251627,2026-07-06T17:26:31.482+07:00,540195171062648713,173466,193602,141554,1280
1783333591500433445,2026-07-06T17:26:31.500+07:00,540195171062648713,173525,193761,141624,1284
1783333591518615263,2026-07-06T17:26:31.518+07:00,540195171062648713,173547,193832,141664,1326
1783333591536797081,2026-07-06T17:26:31.536+07:00,540195171062648713,173556,193816,141672,1225
1783333591554978899,2026-07-06T17:26:31.554+07:00,540195171062648713,173571,193881,141734,1319
1783333591573160717,2026-07-06T17:26:31.573+07:00,540195171062648713,173526,193837,141619,1293
1783333591591342535,2026-07-06T17:26:31.591+07:00,540195171062648713,173441,193706,141564,1269
1783333591609524353,2026-07-06T17:26:31.609+07:00,540195171062648713,173378,193598,141478,1280
1783333591627706171,2026-07-06T17:26:31.627+07:00,540195171062648713,173344,193510,141369,1280
1783333591645887989,2026-07-06T17:26:31.645+07:00,540195171062648713,173252,193409,141324,1264
1783333591664069807,2026-07-06T17:26:31.664+07:00,540195171062648713,173173,193309,141316,1299
1783333591682251625,2026-07-06T17:26:31.682+07:00,540195171062648713,173195,193268,141316,1320
1783333591700433443,2026-07-06T17:26:31.700+07:00,540195171062648713,173106,193253,141233,1262
1783333591718615261,2026-07-06T17:26:31.718+07:00,540195171062648713,173156,193237,141303,1249
1783333591736797079,2026-07-06T17:26:31.736+07:00,540195171062648713,173073,193238,141264,1233
1783333591754978897,2026-07-06T17:26:31.754+07:00,540195171062648713,173101,193228,141308,1254
1783333591773160715,2026-07-06T17:26:31.773+07:00,540195171062648713,173103,193264,141289,1324
1783333591791342533,2026-07-06T17:26:31.791+07:00,540195171062648713,173085,193319,141330,1265
1783333591809524351,2026-07-06T17:26:31.809+07:00,540195171062648713,173074,193361,141274,1260
1783333591827706169,2026-07-06T17:26:31.827+07:00,540195171062648713,173151,193400,141342,1280
1783333591845887987,2026-07-06T17:26:31.845+07:00,540195171062648713,173130,193359,141324,1243
1783333591864069805,2026-07-06T17:26:31.864+07:00,540195171062648713,173066,193281,141291,1226
1783333591882251623,2026-07-06T17:26:31.882+07:00,540195171062648713,173065,193405,141300,1208
1783333591900433441,2026-07-06T17:26:31.900+07:00,540195171062648713,173128,193416,141271,1249
1783333591918615259,2026-07-06T17:26:31.918+07:00,540195171062648713,173145,193406,141323,1264
1783333591936797077,2026-07-06T17:26:31.936+07:00,540195171062648713,173143,193417,141357,1247
1783333591954978895,2026-07-06T17:26:31.954+07:00,540195171062648713,173187,193452,141396,1239
1783333591973160713,2026-07-06T17:26:31.973+07:00,540195171062648713,173222,193476,141456,1249
1783333591991342531,2026-07-06T17:26:31.991+07:00,540195171062648713,173260,193526,141480,1215
1783333592009524349,2026-07-06T17:26:32.009+07:00,540195171062648713,173304,193592,141495,1221
1783333592027706167,2026-07-06T17:26:32.027+07:00,540195171062648713,173348,193686,141539,1293
1783333592045887985,2026-07-06T17:26:32.045+07:00,540195171062648713,173429,193763,141609,1263
1783333592064069803,2026-07-06T17:26:32.064+07:00,540195171062648713,173410,193831,141649,1235
1783333592082251621,2026-07-06T17:26:32.082+07:00,540195171062648713,173497,193840,141701,1252
1783333592100433439,2026-07-06T17:26:32.100+07:00,540195171062648713,173578,193954,141786,1297
1783333592118615257,2026-07-06T17:26:32.118+07:00,540195171062648713,173602,194004,141829,1264
1783333592136797075,2026-07-06T17:26:32.136+07:00,540195171062648713,173674,194065,141906,1270
1783333592154978893,2026-07-06T17:26:32.154+07:00,540195171062648713,173787,194234,141977,1314
1783333592173160711,2026-07-06T17:26:32.173+07:00,540195171863288441,173751,194241,141980,1304
1783333592191342529,2026-07-06T17:26:32.191+07:00,540195171863288441,173818,194276,142032,1240
1783333592209524347,2026-07-06T17:26:32.209+07:00,540195171863288441,173928,194367,142085,1286
1783333592227706165,2026-07-06T17:26:32.227+07:00,540195171863288441,173980,194438,142125,1304
1783333592245887983,2026-07-06T17:26:32.245+07:00,540195171863288441,173920,194406,142068,1274
1783333592264069801,2026-07-06T17:26:32.264+07:00,540195171863288441,173946,194403,142046,1264
1783333592282251619,2026-07-06T17:26:32.282+07:00,540195171863288441,173885,194332,142106,1229
1783333592300433437,2026-07-06T17:26:32.300+07:00,540195171863288441,173772,194252,141986,1230
1783333592318615255,2026-07-06T17:26:32.318+07:00,540195171863288441,173686,194165,141975,1246
1783333592336797073,2026-07-06T17:26:32.336+07:00,540195171863288441,173664,194130,141961,1299
1783333592354978891,2026-07-06T17:26:32.354+07:00,540195171863288441,173655,194108,141971,1289
1783333592373160709,2026-07-06T17:26:32.373+07:00,540195171863288441,173629,194090,141955,1252
1783333592391342527,2026-07-06T17:26:32.391+07:00,540195171863288441,173696,194126,142009,1322
1783333592409524345,2026-07-06T17:26:32.409+07:00,540195171863288441,173685,194188,142056,1291
1783333592427706163,2026-07-06T17:26:32.427+07:00,540195171863288441,173668,194150,142026,1255
1783333592445887981,2026-07-06T17:26:32.445+07:00,540195171863288441,173721,194266,142104,1266
1783333592464069799,2026-07-06T17:26:32.464+07:00,540195171863288441,173805,194322,142183,1286
1783333592482251617,2026-07-06T17:26:32.482+07:00,540195171863288441,173719,194278,142119,1288
1783333592500433435,2026-07-06T17:26:32.500+07:00,540195171863288441,173800,194358,142247,1326
1783333592518615253,2026-07-06T17:26:32.518+07:00,540195171863288441,173801,194287,142179,1294
1783333592536797071,2026-07-06T17:26:32.536+07:00,540195171863288441,173897,194358,142263,1320
1783333592554978889,2026-07-06T17:26:32.554+07:00,540195171863288441,173830,194266,142244,1252
1783333592573160707,2026-07-06T17:26:32.573+07:00,540195171863288441,173879,194344,142303,1319
1783333592591342525,2026-07-06T17:26:32.591+07:00,540195171863288441,173855,194342,142331,1250
1783333592609524343,2026-07-06T17:26:32.609+07:00,540195171863288441,173905,194396,142361,1263
1783333592627706161,2026-07-06T17:26:32.627+07:00,540195171863288441,173954,194442,142416,1296
1783333592645887979,2026-07-06T17:26:32.645+07:00,540195171863288441,173995,194470,142455,1308
1783333592664069797,2026-07-06T17:26:32.664+07:00,540195171863288441,173984,194605,142500,1282
1783333592682251615,2026-07-06T17:26:32.682+07:00,540195171863288441,173986,194612,142503,1281
1783333592700433433,2026-07-06T17:26:32.700+07:00,540195171863288441,174122,194662,142611,1308
1783333592718615251,2026-07-06T17:26:32.718+07:00,540195171863288441,174146,194739,142613,1259
1783333592736797069,2026-07-06T17:26:32.736+07:00,540195171863288441,174277,194822,142720,1280
1783333592754978887,2026-07-06T17:26:32.754+07:00,540195171863288441,174223,194899,142769,1247
1783333592773160705,2026-07-06T17:26:32.773+07:00,540195171863288441,174335,194901,142789,1265
1783333592791342523,2026-07-06T17:26:32.791+07:00,540195171863288441,174393,195036,142898,1265
1783333592809524341,2026-07-06T17:26:32.809+07:00,540195171863288441,174478,195150,142961,1271
1783333592827706159,2026-07-06T17:26:32.827+07:00,540195171863288441,174502,195191,143010,1298
1783333592845887977,2026-07-06T17:26:32.845+07:00,540195171863288441,174594,195221,143159,1308
1783333592864069795,2026-07-06T17:26:32.864+07:00,540195171863288441,174695,195345,143229,1333
1783333592882251613,2026-07-06T17:26:32.882+07:00,540195171863288441,174716,195396,143284,1287
1783333592900433431,2026-07-06T17:26:32.900+07:00,540195171863288441,174713,195460,143282,1282
1783333592918615249,2026-07-06T17:26:32.918+07:00,540195171863288441,174673,195413,143277,1287
1783333592936797067,2026-07-06T17:26:32.936+07:00,540195171863288441,174647,195332,143218,1292
1783333592954978885,2026-07-06T17:26:32.954+07:00,540195171863288441,174579,195293,143166,1289
1783333592973160703,2026-07-06T17:26:32.973+07:00,540195172700391077,174557,195235,143235,1258
1783333592991342521,2026-07-06T17:26:32.991+07:00,540195172700391077,174507,195151,143217,1322
1783333593009524339,2026-07-06T17:26:33.009+07:00,540195172700391077,174500,195173,143212,1256
1783333593027706157,2026-07-06T17:26:33.027+07:00,540195172700391077,174462,195111,143185,1251
1783333593045887975,2026-07-06T17:26:33.045+07:00,540195172700391077,174460,195110,143202,1257
1783333593064069793,2026-07-06T17:26:33.064+07:00,540195172700391077,174521,195147,143257,1305
1783333593082251611,2026-07-06T17:26:33.082+07:00,540195172700391077,174453,195192,143260,1250
1783333593100433429,2026-07-06T17:26:33.100+07:00,540195172700391077,174528,195183,143296,1331
1783333593118615247,2026-07-06T17:26:33.118+07:00,540195172700391077,174555,195206,143368,1253
1783333593136797065,2026-07-06T17:26:33.136+07:00,540195172700391077,174583,195281,143431,1248
1783333593154978883,2026-07-06T17:26:33.154+07:00,540195172700391077,174541,195238,143370,1242
1783333593173160701,2026-07-06T17:26:33.173+07:00,540195172700391077,174654,195329,143471,1280
1783333593191342519,2026-07-06T17:26:33.191+07:00,540195172700391077,174655,195325,143501,1231
1783333593209524337,2026-07-06T17:26:33.209+07:00,540195172700391077,174695,195329,143488,1279
1783333593227706155,2026-07-06T17:26:33.227+07:00,540195172700391077,174748,195422,143502,1305
1783333593245887973,2026-07-06T17:26:33.245+07:00,540195172700391077,174773,195413,143544,1269
1783333593264069791,2026-07-06T17:26:33.264+07:00,540195172700391077,174741,195382,143582,1254
1783333593282251609,2026-07-06T17:26:33.282+07:00,540195172700391077,174783,195490,143638,1253
1783333593300433427,2026-07-06T17:26:33.300+07:00,540195172700391077,174835,195537,143754,1259
1783333593318615245,2026-07-06T17:26:33.318+07:00,540195172700391077,174846,195531,143780,1229
1783333593336797063,2026-07-06T17:26:33.336+07:00,540195172700391077,174900,195607,143839,1285
1783333593354978881,2026-07-06T17:26:33.354+07:00,540195172700391077,174925,195691,143841,1239
1783333593373160699,2026-07-06T17:26:33.373+07:00,540195172700391077,175006,195766,143890,1231
1783333593391342517,2026-07-06T17:26:33.391+07:00,540195172700391077,175115,195908,144056,1311
1783333593409524335,2026-07-06T17:26:33.409+07:00,540195172700391077,175204,195948,144020,1308
1783333593427706153,2026-07-06T17:26:33.427+07:00,540195172700391077,175224,195994,144033,1233
1783333593445887971,2026-07-06T17:26:33.445+07:00,540195172700391077,175304,196075,144188,1310
1783333593464069789,2026-07-06T17:26:33.464+07:00,540195172700391077,175422,196178,144289,1322
1783333593482251607,2026-07-06T17:26:33.482+07:00,540195172700391077,175460,196276,144335,1296
1783333593500433425,2026-07-06T17:26:33.500+07:00,540195172700391077,175478,196346,144413,1255
1783333593518615243,2026-07-06T17:26:33.518+07:00,540195172700391077,175545,196464,144511,1200
1783333593536797061,2026-07-06T17:26:33.536+07:00,540195172700391077,175661,196506,144483,1259
1783333593554978879,2026-07-06T17:26:33.554+07:00,540195172700391077,175765,196566,144564,1291
1783333593573160697,2026-07-06T17:26:33.573+07:00,540195172700391077,175754,196621,144568,1307
1783333593591342515,2026-07-06T17:26:33.591+07:00,540195172700391077,175754,196664,144626,1319
1783333593609524333,2026-07-06T17:26:33.609+07:00,540195172700391077,175704,196602,144604,1215
1783333593627706151,2026-07-06T17:26:33.627+07:00,540195172700391077,175709,196546,144597,1283
1783333593645887969,2026-07-06T17:26:33.645+07:00,540195172700391077,175632,196424,144543,1279
1783333593664069787,2026-07-06T17:26:33.664+07:00,540195172700391077,175631,196426,144584,1282
1783333593682251605,2026-07-06T17:26:33.682+07:00,540195172700391077,175683,196437,144617,1304
1783333593700433423,2026-07-06T17:26:33.700+07:00,540195172700391077,175594,196301,144570,1263
1783333593718615241,2026-07-06T17:26:33.718+07:00,540195172700391077,175598,196361,144650,1288
1783333593736797059,2026-07-06T17:26:33.736+07:00,540195172700391077,175577,196256,144560,1162
1783333593754978877,2026-07-06T17:26:33.754+07:00,540195172700391077,175605,196325,144613,1281
1783333593773160695,2026-07-06T17:26:33.773+07:00,540195172700391077,175628,196278,144602,1296
1783333593791342513,2026-07-06T17:26:33.791+07:00,540195172700391077,175609,196334,144601,1259
1783333593809524331,2026-07-06T17:26:33.809+07:00,540195173464819675,175677,196391,144623,1243
1783333593827706149,2026-07-06T17:26:33.827+07:00,540195173464819675,175714,196434,144724,1302
1783333593845887967,2026-07-06T17:26:33.845+07:00,540195173464819675,175739,196446,144785,1251
1783333593864069785,2026-07-06T17:26:33.864+07:00,540195173464819675,175690,196444,144728,1284
1783333593882251603,2026-07-06T17:26:33.882+07:00,540195173464819675,175726,196455,144793,1233
1783333593900433421,2026-07-06T17:26:33.900+07:00,540195173464819675,175730,196479,144770,1284
1783333593918615239,2026-07-06T17:26:33.918+07:00,540195173464819675,175764,196532,144856,1270
1783333593936797057,2026-07-06T17:26:33.936+07:00,540195173464819675,175850,196526,144846,1313
1783333593954978875,2026-07-06T17:26:33.954+07:00,540195173464819675,175840,196531,144909,1305
1783333593973160693,2026-07-06T17:26:33.973+07:00,540195173464819675,175929,196603,144998,1229
1783333593991342511,2026-07-06T17:26:33.991+07:00,540195173464819675,176001,196664,145022,1283
1783333594009524329,2026-07-06T17:26:34.009+07:00,540195173464819675,176003,196693,145052,1266
1783333594027706147,2026-07-06T17:26:34.027+07:00,540195173464819675,176072,196768,145062,1248
1783333594045887965,2026-07-06T17:26:34.045+07:00,540195173464819675,176070,196790,145107,1262
1783333594064069783,2026-07-06T17:26:34.064+07:00,540195173464819675,176116,196937,145184,1299
1783333594082251601,2026-07-06T17:26:34.082+07:00,540195173464819675,176177,197072,145300,1285
1783333594100433419,2026-07-06T17:26:34.100+07:00,540195173464819675,176214,197074,145268,1207
1783333594118615237,2026-07-06T17:26:34.118+07:00,540195173464819675,176287,197107,145362,1263
1783333594136797055,2026-07-06T17:26:34.136+07:00,540195173464819675,176389,197183,145436,1272
1783333594154978873,2026-07-06T17:26:34.154+07:00,540195173464819675,176435,197267,145484,1284
1783333594173160691,2026-07-06T17:26:34.173+07:00,540195173464819675,176467,197311,145483,1232
1783333594191342509,2026-07-06T17:26:34.191+07:00,540195173464819675,176538,197414,145577,1232
1783333594209524327,2026-07-06T17:26:34.209+07:00,540195173464819675,176643,197467,145604,1236
1783333594227706145,2026-07-06T17:26:34.227+07:00,540195173464819675,176642,197499,145680,1233
1783333594245887963,2026-07-06T17:26:34.245+07:00,540195173464819675,176745,197623,145736,1246
1783333594264069781,2026-07-06T17:26:34.264+07:00,540195173464819675,176775,197683,145733,1248
1783333594282251599,2026-07-06T17:26:34.282+07:00,540195173464819675,176780,197693,145806,1291
1783333594300433417,2026-07-06T17:26:34.300+07:00,540195173464819675,176822,197671,145812,1257
1783333594318615235,2026-07-06T17:26:34.318+07:00,540195173464819675,176848,197687,145839,1287
1783333594336797053,2026-07-06T17:26:34.336+07:00,540195173464819675,176789,197605,145772,1289
1783333594354978871,2026-07-06T17:26:34.354+07:00,540195173464819675,176728,197556,145825,1317
1783333594373160689,2026-07-06T17:26:34.373+07:00,540195173464819675,176599,197489,145700,1230
1783333594391342507,2026-07-06T17:26:34.391+07:00,540195173464819675,176599,197445,145714,1321
1783333594409524325,2026-07-06T17:26:34.409+07:00,540195173464819675,176573,197413,145775,1276
1783333594427706143,2026-07-06T17:26:34.427+07:00,540195173464819675,176566,197365,145700,1248
1783333594445887961,2026-07-06T17:26:34.445+07:00,540195173464819675,176685,197392,145713,1297
1783333594464069779,2026-07-06T17:26:34.464+07:00,540195173464819675,176669,197375,145687,1285
1783333594482251597,2026-07-06T17:26:34.482+07:00,540195173464819675,176651,197328,145656,1231
1783333594500433415,2026-07-06T17:26:34.500+07:00,540195173464819675,176688,197422,145793,1291
1783333594518615233,2026-07-06T17:26:34.518+07:00,540195173464819675,176723,197439,145789,1311
1783333594536797051,2026-07-06T17:26:34.536+07:00,540195173464819675,176722,197435,145835,1325
1783333594554978869,2026-07-06T17:26:34.554+07:00,540195173464819675,176787,197393,145862,1307
1783333594573160687,2026-07-06T17:26:34.573+07:00,540195174229233011,176841,197512,145878,1333
1783333594591342505,2026-07-06T17:26:34.591+07:00,540195174229233011,176801,197487,145884,1256
1783333594609524323,2026-07-06T17:26:34.609+07:00,540195174229233011,176867,197510,145874,1307
1783333594627706141,2026-07-06T17:26:34.627+07:00,540195174229233011,176867,197586,145922,1286
1783333594645887959,2026-07-06T17:26:34.645+07:00,540195174229233011,176924,197547,145928,1252
1783333594664069777,2026-07-06T17:26:34.664+07:00,540195174229233011,176892,197527,145930,1263
1783333594682251595,2026-07-06T17:26:34.682+07:00,540195174229233011,177002,197620,145957,1253
1783333594700433413,2026-07-06T17:26:34.700+07:00,540195174229233011,177053,197724,146033,1290
1783333594718615231,2026-07-06T17:26:34.718+07:00,540195174229233011,177063,197784,146061,1299
1783333594736797049,2026-07-06T17:26:34.736+07:00,540195174229233011,177129,197767,146103,1311
1783333594754978867,2026-07-06T17:26:34.754+07:00,540195174229233011,177221,197819,146181,1222
1783333594773160685,2026-07-06T17:26:34.773+07:00,540195174229233011,177226,197817,146194,1260
1783333594791342503,2026-07-06T17:26:34.791+07:00,540195174229233011,177208,197908,146273,1237
1783333594809524321,2026-07-06T17:26:34.809+07:00,540195174229233011,177339,197931,146253,1249
1783333594827706139,2026-07-06T17:26:34.827+07:00,540195174229233011,177361,197993,146382,1313
1783333594845887957,2026-07-06T17:26:34.845+07:00,540195174229233011,177377,198030,146376,1252
1783333594864069775,2026-07-06T17:26:34.864+07:00,540195174229233011,177394,198097,146392,1235
1783333594882251593,2026-07-06T17:26:34.882+07:00,540195174229233011,177590,198170,146491,1287
1783333594900433411,2026-07-06T17:26:34.900+07:00,540195174229233011,177563,198212,146486,1228
1783333594918615229,2026-07-06T17:26:34.918+07:00,540195174229233011,177680,198332,146540,1275
1783333594936797047,2026-07-06T17:26:34.936+07:00,540195174229233011,177736,198412,146637,1290
1783333594954978865,2026-07-06T17:26:34.954+07:00,540195174229233011,177757,198464,146665,1234
1783333594973160683,2026-07-06T17:26:34.973+07:00,540195174229233011,177831,198523,146752,1258
1783333594991342501,2026-07-06T17:26:34.991+07:00,540195174229233011,177927,198608,146788,1264
1783333595009524319,2026-07-06T17:26:35.009+07:00,540195174229233011,177948,198627,146853,1267
1783333595027706137,2026-07-06T17:26:35.027+07:00,540195174229233011,177964,198632,146848,1242
1783333595045887955,2026-07-06T17:26:35.045+07:00,540195174229233011,177969,198610,146871,1318
1783333595064069773,2026-07-06T17:26:35.064+07:00,540195174229233011,177992,198542,146854,1336
1783333595082251591,2026-07-06T17:26:35.082+07:00,540195174229233011,177893,198396,146740,1280
1783333595100433409,2026-07-06T17:26:35.100+07:00,540195174229233011,177814,198359,146648,1282
1783333595118615227,2026-07-06T17:26:35.118+07:00,540195174229233011,177804,198311,146635,1256
1783333595136797045,2026-07-06T17:26:35.136+07:00,540195174229233011,177809,198255,146629,1259
1783333595154978863,2026-07-06T17:26:35.154+07:00,540195174229233011,177804,198235,146647,1300
1783333595173160681,2026-07-06T17:26:35.173+07:00,540195174229233011,177813,198206,146654,1287
1783333595191342499,2026-07-06T17:26:35.191+07:00,540195174229233011,177802,198200,146567,1279
1783333595209524317,2026-07-06T17:26:35.209+07:00,540195174229233011,177771,198124,146580,1275
1783333595227706135,2026-07-06T17:26:35.227+07:00,540195174229233011,177859,198204,146676,1294
1783333595245887953,2026-07-06T17:26:35.245+07:00,540195174229233011,177828,198194,146695,1235
1783333595264069771,2026-07-06T17:26:35.264+07:00,540195174229233011,177870,198216,146738,1324
1783333595282251589,2026-07-06T17:26:35.282+07:00,540195174229233011,177836,198232,146717,1237
1783333595300433407,2026-07-06T17:26:35.300+07:00,540195174229233011,177883,198228,146720,1271
1783333595318615225,2026-07-06T17:26:35.318+07:00,540195174229233011,177921,198198,146671,1271
1783333595336797043,2026-07-06T17:26:35.336+07:00,540195175066488241,177905,198152,146684,1246
1783333595354978861,2026-07-06T17:26:35.354+07:00,540195175066488241,177937,198210,146689,1243
1783333595373160679,2026-07-06T17:26:35.373+07:00,540195175066488241,177932,198205,146697,1249
1783333595391342497,2026-07-06T17:26:35.391+07:00,540195175066488241,177984,198201,146758,1296
1783333595409524315,2026-07-06T17:26:35.409+07:00,540195175066488241,178021,198202,146778,1264
1783333595427706133,2026-07-06T17:26:35.427+07:00,540195175066488241,178044,198176,146768,1281
1783333595445887951,2026-07-06T17:26:35.445+07:00,540195175066488241,178113,198199,146769,1277
1783333595464069769,2026-07-06T17:26:35.464+07:00,540195175066488241,178109,198261,146793,1258
1783333595482251587,2026-07-06T17:26:35.482+07:00,540195175066488241,178129,198294,146834,1287
1783333595500433405,2026-07-06T17:26:35.500+07:00,540195175066488241,178202,198300,146902,1344
1783333595518615223,2026-07-06T17:26:35.518+07:00,540195175066488241,178193,198290,146911,1304
1783333595536797041,2026-07-06T17:26:35.536+07:00,540195175066488241,178224,198317,146949,1291
1783333595554978859,2026-07-06T17:26:35.554+07:00,540195175066488241,178313,198404,147003,1281
1783333595573160677,2026-07-06T17:26:35.573+07:00,540195175066488241,178343,198412,146979,1269
1783333595591342495,2026-07-06T17:26:35.591+07:00,540195175066488241,178441,198473,147027,1284
1783333595609524313,2026-07-06T17:26:35.609+07:00,540195175066488241,178424,198486,147069,1285
1783333595627706131,2026-07-06T17:26:35.627+07:00,540195175066488241,178453,198545,147103,1267
1783333595645887949,2026-07-06T17:26:35.645+07:00,540195175066488241,178495,198570,147069,1292
1783333595664069767,2026-07-06T17:26:35.664+07:00,540195175066488241,178593,198614,147151,1265
1783333595682251585,2026-07-06T17:26:35.682+07:00,540195175066488241,178619,198707,147183,1286
1783333595700433403,2026-07-06T17:26:35.700+07:00,540195175066488241,178704,198753,147193,1240
1783333595718615221,2026-07-06T17:26:35.718+07:00,540195175066488241,178819,198833,147283,1303
1783333595736797039,2026-07-06T17:26:35.736+07:00,540195175066488241,178806,198920,147307,1300
1783333595754978857,2026-07-06T17:26:35.754+07:00,540195175066488241,178787,198820,147241,1235
1783333595773160675,2026-07-06T17:26:35.773+07:00,540195175066488241,178853,198785,147260,1281
1783333595791342493,2026-07-06T17:26:35.791+07:00,540195175066488241,178731,198753,147226,1248
1783333595809524311,2026-07-06T17:26:35.809+07:00,540195175066488241,178730,198651,147174,1299
1783333595827706129,2026-07-06T17:26:35.827+07:00,540195175066488241,178646,198488,147123,1296
1783333595845887947,2026-07-06T17:26:35.845+07:00,540195175066488241,178613,198386,147069,1265
1783333595864069765,2026-07-06T17:26:35.864+07:00,540195175066488241,178629,198319,147069,1335
1783333595882251583,2026-07-06T17:26:35.882+07:00,540195175066488241,178551,198332,146998,1318
1783333595900433401,2026-07-06T17:26:35.900+07:00,540195175066488241,178548,198302,147015,1285
1783333595918615219,2026-07-06T17:26:35.918+07:00,540195175066488241,178561,198227,146988,1292
1783333595936797037,2026-07-06T17:26:35.936+07:00,540195175066488241,178516,198184,146937,1303
1783333595954978855,2026-07-06T17:26:35.954+07:00,540195175066488241,178563,198132,146928,1250
1783333595973160673,2026-07-06T17:26:35.973+07:00,540195175066488241,178570,198119,146940,1309
1783333595991342491,2026-07-06T17:26:35.991+07:00,540195175066488241,178608,198123,146936,1291
1783333596009524309,2026-07-06T17:26:36.009+07:00,540195175066488241,178500,198122,146901,1235
1783333596027706127,2026-07-06T17:26:36.027+07:00,540195175066488241,178546,198143,146912,1289
1783333596045887945,2026-07-06T17:26:36.045+07:00,540195175066488241,178503,198070,146870,1255
1783333596064069763,2026-07-06T17:26:36.064+07:00,540195175066488241,178483,198003,146895,1269
1783333596082251581,2026-07-06T17:26:36.082+07:00,540195175066488241,178490,197938,146844,1276
1783333596100433399,2026-07-06T17:26:36.100+07:00,540195175066488241,178442,197883,146801,1279
1783333596118615217,2026-07-06T17:26:36.118+07:00,540195175066488241,178428,197835,146811,1254
1783333596136797035,2026-07-06T17:26:36.136+07:00,540195175066488241,178465,197851,146796,1268
1783333596154978853,2026-07-06T17:26:36.154+07:00,540195175066488241,178434,197779,146757,1287
1783333596173160671,2026-07-06T17:26:36.173+07:00,540195175903687007,178389,197752,146762,1291
1783333596191342489,2026-07-06T17:26:36.191+07:00,540195175903687007,178338,197697,146717,1239
1783333596209524307,2026-07-06T17:26:36.209+07:00,540195175903687007,178408,197678,146729,1277
1783333596227706125,2026-07-06T17:26:36.227+07:00,540195175903687007,178395,197743,146812,1311
1783333596245887943,2026-07-06T17:26:36.245+07:00,540195175903687007,178401,197777,146811,1225
1783333596264069761,2026-07-06T17:26:36.264+07:00,540195175903687007,178441,197830,146807,1223
1783333596282251579,2026-07-06T17:26:36.282+07:00,540195175903687007,178479,197913,146860,1286
1783333596300433397,2026-07-06T17:26:36.300+07:00,540195175903687007,178557,197989,146857,1298
1783333596318615215,2026-07-06T17:26:36.318+07:00,540195175903687007,178584,197991,146968,1323
1783333596336797033,2026-07-06T17:26:36.336+07:00,540195175903687007,178603,197993,146926,1217
1783333596354978851,2026-07-06T17:26:36.354+07:00,540195175903687007,178642,198074,146923,1248
1783333596373160669,2026-07-06T17:26:36.373+07:00,540195175903687007,178690,198071,146930,1251
1783333596391342487,2026-07-06T17:26:36.391+07:00,540195175903687007,178699,198066,146926,1239
1783333596409524305,2026-07-06T17:26:36.409+07:00,540195175903687007,178716,198135,146956,1221
1783333596427706123,2026-07-06T17:26:36.427+07:00,540195175903687007,178760,198088,147019,1263
1783333596445887941,2026-07-06T17:26:36.445+07:00,540195175903687007,178712,198072,147010,1321
1783333596464069759,2026-07-06T17:26:36.464+07:00,540195175903687007,178641,197989,146968,1241
1783333596482251577,2026-07-06T17:26:36.482+07:00,540195175903687007,178613,197942,146918,1290
1783333596500433395,2026-07-06T17:26:36.500+07:00,540195175903687007,178508,197755,146800,1255
1783333596518615213,2026-07-06T17:26:36.518+07:00,540195175903687007,178335,197530,146673,1236
1783333596536797031,2026-07-06T17:26:36.536+07:00,540195175903687007,178222,197404,146625,1279
1783333596554978849,2026-07-06T17:26:36.554+07:00,540195175903687007,178119,197225,146586,1283
1783333596573160667,2026-07-06T17:26:36.573+07:00,540195175903687007,178002,197076,146492,1274
1783333596591342485,2026-07-06T17:26:36.591+07:00,540195175903687007,177944,196989,146439,1245
1783333596609524303,2026-07-06T17:26:36.609+07:00,540195175903687007,177872,196915,146393,1252
1783333596627706121,2026-07-06T17:26:36.627+07:00,540195175903687007,177840,196886,146394,1267
1783333596645887939,2026-07-06T17:26:36.645+07:00,540195175903687007,177828,196865,146400,1291
1783333596664069757,2026-07-06T17:26:36.664+07:00,540195175903687007,177740,196825,146372,1188
1783333596682251575,2026-07-06T17:26:36.682+07:00,540195175903687007,177795,196858,146384,1242
1783333596700433393,2026-07-06T17:26:36.700+07:00,540195175903687007,177738,196819,146243,1213
1783333596718615211,2026-07-06T17:26:36.718+07:00,540195175903687007,177757,196784,146244,1260
1783333596736797029,2026-07-06T17:26:36.736+07:00,540195175903687007,177775,196673,146295,1284
1783333596754978847,2026-07-06T17:26:36.754+07:00,540195175903687007,177730,196628,146198,1266
1783333596773160665,2026-07-06T17:26:36.773+07:00,540195175903687007,177637,196592,146138,1221
1783333596791342483,2026-07-06T17:26:36.791+07:00,540195175903687007,177646,196532,146137,1267
1783333596809524301,2026-07-06T17:26:36.809+07:00,540195175903687007,177637,196526,146091,1310
1783333596827706119,2026-07-06T17:26:36.827+07:00,540195175903687007,177586,196526,146131,1257
1783333596845887937,2026-07-06T17:26:36.845+07:00,540195175903687007,177576,196519,146117,1241
1783333596864069755,2026-07-06T17:26:36.864+07:00,540195175903687007,177579,196521,146117,1265
1783333596882251573,2026-07-06T17:26:36.882+07:00,540195175903687007,177596,196571,146145,1254
1783333596900433391,2026-07-06T17:26:36.900+07:00,540195175903687007,177665,196518,146159,1243
1783333596918615209,2026-07-06T17:26:36.918+07:00,540195175903687007,177628,196609,146152,1306
1783333596936797027,2026-07-06T17:26:36.936+07:00,540195175903687007,177610,196602,146096,1300
1783333596954978845,2026-07-06T17:26:36.954+07:00,540195175903687007,177694,196633,146208,1314
1783333596973160663,2026-07-06T17:26:36.973+07:00,540195175903687007,177674,196684,146183,1306
1783333596991342481,2026-07-06T17:26:36.991+07:00,540195175903687007,177657,196675,146161,1281
1783333597009524299,2026-07-06T17:26:37.009+07:00,540195176740759123,177718,196658,146175,1303
1783333597027706117,2026-07-06T17:26:37.027+07:00,540195176740759123,177703,196680,146114,1317
1783333597045887935,2026-07-06T17:26:37.045+07:00,540195176740759123,177681,196683,146126,1306
1783333597064069753,2026-07-06T17:26:37.064+07:00,540195176740759123,177700,196716,146184,1321
1783333597082251571,2026-07-06T17:26:37.082+07:00,540195176740759123,177665,196714,146184,1260
1783333597100433389,2026-07-06T17:26:37.100+07:00,540195176740759123,177733,196722,146227,1300
1783333597118615207,2026-07-06T17:26:37.118+07:00,540195176740759123,177768,196809,146269,1264
1783333597136797025,2026-07-06T17:26:37.136+07:00,540195176740759123,177783,196804,146250,1275
1783333597154978843,2026-07-06T17:26:37.154+07:00,540195176740759123,177715,196795,146268,1228
1783333597173160661,2026-07-06T17:26:37.173+07:00,540195176740759123,177665,196769,146225,1223
1783333597191342479,2026-07-06T17:26:37.191+07:00,540195176740759123,177604,196703,146154,1194
1783333597209524297,2026-07-06T17:26:37.209+07:00,540195176740759123,177589,196647,146084,1292
1783333597227706115,2026-07-06T17:26:37.227+07:00,540195176740759123,177420,196485,145890,1303
1783333597245887933,2026-07-06T17:26:37.245+07:00,540195176740759123,177286,196330,145894,1313
1783333597264069751,2026-07-06T17:26:37.264+07:00,540195176740759123,177192,196198,145800,1336
1783333597282251569,2026-07-06T17:26:37.282+07:00,540195176740759123,177037,196060,145691,1266
1783333597300433387,2026-07-06T17:26:37.300+07:00,540195176740759123,177014,195929,145640,1297
1783333597318615205,2026-07-06T17:26:37.318+07:00,540195176740759123,176932,195914,145553,1267
1783333597336797023,2026-07-06T17:26:37.336+07:00,540195176740759123,176808,195785,145509,1286
1783333597354978841,2026-07-06T17:26:37.354+07:00,540195176740759123,176772,195713,145387,1238
1783333597373160659,2026-07-06T17:26:37.373+07:00,540195176740759123,176685,195678,145391,1263
1783333597391342477,2026-07-06T17:26:37.391+07:00,540195176740759123,176672,195606,145368,1272
1783333597409524295,2026-07-06T17:26:37.409+07:00,540195176740759123,176649,195497,145291,1309
1783333597427706113,2026-07-06T17:26:37.427+07:00,540195176740759123,176556,195509,145283,1307
1783333597445887931,2026-07-06T17:26:37.445+07:00,540195176740759123,176502,195454,145179,1303
1783333597464069749,2026-07-06T17:26:37.464+07:00,540195176740759123,176421,195373,145119,1294
1783333597482251567,2026-07-06T17:26:37.482+07:00,540195176740759123,176426,195306,145102,1287
1783333597500433385,2026-07-06T17:26:37.500+07:00,540195176740759123,176366,195258,145131,1233
1783333597518615203,2026-07-06T17:26:37.518+07:00,540195176740759123,176294,195203,145053,1235
1783333597536797021,2026-07-06T17:26:37.536+07:00,540195176740759123,176337,195162,145055,1254
1783333597554978839,2026-07-06T17:26:37.554+07:00,540195176740759123,176264,195178,145007,1290
1783333597573160657,2026-07-06T17:26:37.573+07:00,540195176740759123,176257,195135,144990,1280
1783333597591342475,2026-07-06T17:26:37.591+07:00,540195176740759123,176231,195186,145015,1304
1783333597609524293,2026-07-06T17:26:37.609+07:00,540195176740759123,176207,195157,144967,1300
1783333597627706111,2026-07-06T17:26:37.627+07:00,540195176740759123,176191,195169,144990,1285
1783333597645887929,2026-07-06T17:26:37.645+07:00,540195176740759123,176213,195258,144938,1311
1783333597664069747,2026-07-06T17:26:37.664+07:00,540195176740759123,176276,195236,144873,1317
1783333597682251565,2026-07-06T17:26:37.682+07:00,540195176740759123,176199,195216,144871,1239
1783333597700433383,2026-07-06T17:26:37.700+07:00,540195176740759123,176207,195246,144908,1297
1783333597718615201,2026-07-06T17:26:37.718+07:00,540195176740759123,176246,195266,144969,1273
1783333597736797019,2026-07-06T17:26:37.736+07:00,540195176740759123,176248,195302,145007,1290
1783333597754978837,2026-07-06T17:26:37.754+07:00,540195176740759123,176298,195337,144932,1262
1783333597773160655,2026-07-06T17:26:37.773+07:00,540195176740759123,176275,195359,144904,1268
1783333597791342473,2026-07-06T17:26:37.791+07:00,540195176740759123,176324,195380,144938,1232
1783333597809524291,2026-07-06T17:26:37.809+07:00,540195176740759123,176337,195434,144947,1249
1783333597827706109,2026-07-06T17:26:37.827+07:00,540195176740759123,176351,195517,144968,1298
1783333597845887927,2026-07-06T17:26:37.845+07:00,540195177559633364,176372,195544,144947,1262
1783333597864069745,2026-07-06T17:26:37.864+07:00,540195177559633364,176418,195630,144947,1287
1783333597882251563,2026-07-06T17:26:37.882+07:00,540195177559633364,176450,195651,145000,1243
1783333597900433381,2026-07-06T17:26:37.900+07:00,540195177559633364,176485,195717,145050,1289
1783333597918615199,2026-07-06T17:26:37.918+07:00,540195177559633364,176389,195640,144926,1246
1783333597936797017,2026-07-06T17:26:37.936+07:00,540195177559633364,176367,195567,144898,1367
1783333597954978835,2026-07-06T17:26:37.954+07:00,540195177559633364,176151,195388,144759,1291
1783333597973160653,2026-07-06T17:26:37.973+07:00,540195177559633364,176037,195234,144594,1286
1783333597991342471,2026-07-06T17:26:37.991+07:00,540195177559633364,175854,195025,144462,1271
1783333598009524289,2026-07-06T17:26:38.009+07:00,540195177559633364,175730,194876,144308,1331
1783333598027706107,2026-07-06T17:26:38.027+07:00,540195177559633364,175560,194728,144210,1274
1783333598045887925,2026-07-06T17:26:38.045+07:00,540195177559633364,175440,194571,144115,1259
1783333598064069743,2026-07-06T17:26:38.064+07:00,540195177559633364,175314,194410,144008,1259
1783333598082251561,2026-07-06T17:26:38.082+07:00,540195177559633364,175232,194350,143927,1246
1783333598100433379,2026-07-06T17:26:38.100+07:00,540195177559633364,175193,194312,143857,1256
1783333598118615197,2026-07-06T17:26:38.118+07:00,540195177559633364,175093,194199,143756,1282
1783333598136797015,2026-07-06T17:26:38.136+07:00,540195177559633364,175058,194133,143742,1255
1783333598154978833,2026-07-06T17:26:38.154+07:00,540195177559633364,174973,194058,143695,1234
1783333598173160651,2026-07-06T17:26:38.173+07:00,540195177559633364,174912,194057,143667,1254
1783333598191342469,2026-07-06T17:26:38.191+07:00,540195177559633364,174816,193993,143642,1234
1783333598209524287,2026-07-06T17:26:38.209+07:00,540195177559633364,174835,193905,143602,1262
1783333598227706105,2026-07-06T17:26:38.227+07:00,540195177559633364,174681,193901,143482,1243
1783333598245887923,2026-07-06T17:26:38.245+07:00,540195177559633364,174602,193910,143479,1242
1783333598264069741,2026-07-06T17:26:38.264+07:00,540195177559633364,174578,193852,143412,1255
1783333598282251559,2026-07-06T17:26:38.282+07:00,540195177559633364,174517,193753,143405,1232
1783333598300433377,2026-07-06T17:26:38.300+07:00,540195177559633364,174457,193694,143291,1236
1783333598318615195,2026-07-06T17:26:38.318+07:00,540195177559633364,174391,193612,143248,1185
1783333598336797013,2026-07-06T17:26:38.336+07:00,540195177559633364,174361,193651,143185,1263
1783333598354978831,2026-07-06T17:26:38.354+07:00,540195177559633364,174387,193578,143197,1221
1783333598373160649,2026-07-06T17:26:38.373+07:00,540195177559633364,174341,193606,143176,1270
1783333598391342467,2026-07-06T17:26:38.391+07:00,540195177559633364,174350,193647,143227,1316
1783333598409524285,2026-07-06T17:26:38.409+07:00,540195177559633364,174252,193647,143200,1252
1783333598427706103,2026-07-06T17:26:38.427+07:00,540195177559633364,174264,193700,143147,1268
1783333598445887921,2026-07-06T17:26:38.445+07:00,540195177559633364,174318,193670,143141,1197
1783333598464069739,2026-07-06T17:26:38.464+07:00,540195177559633364,174302,193712,143199,1250
1783333598482251557,2026-07-06T17:26:38.482+07:00,540195177559633364,174330,193689,143183,1279
1783333598500433375,2026-07-06T17:26:38.500+07:00,540195177559633364,174347,193745,143251,1272
1783333598518615193,2026-07-06T17:26:38.518+07:00,540195177559633364,174324,193737,143181,1246
1783333598536797011,2026-07-06T17:26:38.536+07:00,540195177559633364,174368,193791,143222,1248
1783333598554978829,2026-07-06T17:26:38.554+07:00,540195177559633364,174328,193820,143135,1238
1783333598573160647,2026-07-06T17:26:38.573+07:00,540195177559633364,174337,193868,143193,1218
1783333598591342465,2026-07-06T17:26:38.591+07:00,540195177559633364,174368,193882,143218,1255
1783333598609524283,2026-07-06T17:26:38.609+07:00,540195177559633364,174371,193894,143226,1263
1783333598627706101,2026-07-06T17:26:38.627+07:00,540195177559633364,174410,194014,143322,1282
1783333598645887919,2026-07-06T17:26:38.645+07:00,540195177559633364,174393,194002,143241,1287
1783333598664069737,2026-07-06T17:26:38.664+07:00,540195178323880378,174400,194024,143308,1274
1783333598682251555,2026-07-06T17:26:38.682+07:00,540195178323880378,174330,193887,143105,1223
1783333598700433373,2026-07-06T17:26:38.700+07:00,540195178323880378,174306,193856,143086,1250
1783333598718615191,2026-07-06T17:26:38.718+07:00,540195178323880378,174086,193653,142927,1276
1783333598736797009,2026-07-06T17:26:38.736+07:00,540195178323880378,173914,193448,142767,1324
1783333598754978827,2026-07-06T17:26:38.754+07:00,540195178323880378,173702,193266,142660,1247
1783333598773160645,2026-07-06T17:26:38.773+07:00,540195178323880378,173528,193039,142515,1250
1783333598791342463,2026-07-06T17:26:38.791+07:00,540195178323880378,173413,192921,142420,1327
1783333598809524281,2026-07-06T17:26:38.809+07:00,540195178323880378,173269,192842,142353,1339
1783333598827706099,2026-07-06T17:26:38.827+07:00,540195178323880378,173142,192794,142251,1301
1783333598845887917,2026-07-06T17:26:38.845+07:00,540195178323880378,173021,192643,142143,1238
1783333598864069735,2026-07-06T17:26:38.864+07:00,540195178323880378,172934,192573,142029,1234
1783333598882251553,2026-07-06T17:26:38.882+07:00,540195178323880378,172862,192510,142041,1237
1783333598900433371,2026-07-06T17:26:38.900+07:00,540195178323880378,172830,192494,142021,1256
1783333598918615189,2026-07-06T17:26:38.918+07:00,540195178323880378,172799,192450,141918,1271
1783333598936797007,2026-07-06T17:26:38.936+07:00,540195178323880378,172712,192405,141891,1225
1783333598954978825,2026-07-06T17:26:38.954+07:00,540195178323880378,172660,192423,141871,1317
1783333598973160643,2026-07-06T17:26:38.973+07:00,540195178323880378,172587,192334,141797,1290
1783333598991342461,2026-07-06T17:26:38.991+07:00,540195178323880378,172507,192235,141692,1308
1783333599009524279,2026-07-06T17:26:39.009+07:00,540195178323880378,172448,192203,141610,1271
1783333599027706097,2026-07-06T17:26:39.027+07:00,540195178323880378,172329,192154,141581,1287
1783333599045887915,2026-07-06T17:26:39.045+07:00,540195178323880378,172267,192100,141531,1328
1783333599064069733,2026-07-06T17:26:39.064+07:00,540195178323880378,172251,192101,141560,1327
1783333599082251551,2026-07-06T17:26:39.082+07:00,540195178323880378,172113,192039,141420,1242
1783333599100433369,2026-07-06T17:26:39.100+07:00,540195178323880378,172132,192018,141440,1299
1783333599118615187,2026-07-06T17:26:39.118+07:00,540195178323880378,172207,191994,141416,1323
1783333599136797005,2026-07-06T17:26:39.136+07:00,540195178323880378,172209,192051,141483,1323
1783333599154978823,2026-07-06T17:26:39.154+07:00,540195178323880378,172118,191999,141410,1257
1783333599173160641,2026-07-06T17:26:39.173+07:00,540195178323880378,172172,192065,141414,1284
1783333599191342459,2026-07-06T17:26:39.191+07:00,540195178323880378,172103,192102,141351,1207
1783333599209524277,2026-07-06T17:26:39.209+07:00,540195178323880378,172087,192067,141396,1248
1783333599227706095,2026-07-06T17:26:39.227+07:00,540195178323880378,172099,192061,141389,1290
1783333599245887913,2026-07-06T17:26:39.245+07:00,540195178323880378,172105,192138,141405,1301
1783333599264069731,2026-07-06T17:26:39.264+07:00,540195178323880378,172120,192142,141382,1308
1783333599282251549,2026-07-06T17:26:39.282+07:00,540195178323880378,172076,192164,141421,1271
1783333599300433367,2026-07-06T17:26:39.300+07:00,540195178323880378,172084,192217,141349,1289
1783333599318615185,2026-07-06T17:26:39.318+07:00,540195178323880378,172112,192236,141384,1339
1783333599336797003,2026-07-06T17:26:39.336+07:00,540195178323880378,172136,192185,141416,1242
1783333599354978821,2026-07-06T17:26:39.354+07:00,540195178323880378,172163,192324,141453,1281
1783333599373160639,2026-07-06T17:26:39.373+07:00,540195178323880378,172109,192338,141409,1247
1783333599391342457,2026-07-06T17:26:39.391+07:00,540195178323880378,172126,192333,141416,1323
1783333599409524275,2026-07-06T17:26:39.409+07:00,540195178323880378,172048,192209,141300,1306
1783333599427706093,2026-07-06T17:26:39.427+07:00,540195179142716463,171905,192044,141203,1277
1783333599445887911,2026-07-06T17:26:39.445+07:00,540195179142716463,171727,191870,141049,1301
1783333599464069729,2026-07-06T17:26:39.464+07:00,540195179142716463,171576,191750,140968,1248
1783333599482251547,2026-07-06T17:26:39.482+07:00,540195179142716463,171354,191541,140774,1248
1783333599500433365,2026-07-06T17:26:39.500+07:00,540195179142716463,171225,191421,140712,1247
1783333599518615183,2026-07-06T17:26:39.518+07:00,540195179142716463,171113,191395,140605,1263
1783333599536797001,2026-07-06T17:26:39.536+07:00,540195179142716463,170984,191285,140494,1288
1783333599554978819,2026-07-06T17:26:39.554+07:00,540195179142716463,170886,191245,140431,1288
1783333599573160637,2026-07-06T17:26:39.573+07:00,540195179142716463,170854,191165,140361,1289
1783333599591342455,2026-07-06T17:26:39.591+07:00,540195179142716463,170796,191105,140273,1266
1783333599609524273,2026-07-06T17:26:39.609+07:00,540195179142716463,170700,191057,140236,1248
1783333599627706091,2026-07-06T17:26:39.627+07:00,540195179142716463,170657,191134,140227,1301
1783333599645887909,2026-07-06T17:26:39.645+07:00,540195179142716463,170666,191040,140230,1250
1783333599664069727,2026-07-06T17:26:39.664+07:00,540195179142716463,170590,190966,140157,1206
1783333599682251545,2026-07-06T17:26:39.682+07:00,540195179142716463,170576,190957,140171,1230
1783333599700433363,2026-07-06T17:26:39.700+07:00,540195179142716463,170472,190888,140071,1256
1783333599718615181,2026-07-06T17:26:39.718+07:00,540195179142716463,170479,190954,140049,1286
1783333599736796999,2026-07-06T17:26:39.736+07:00,540195179142716463,170329,190885,139968,1273
1783333599754978817,2026-07-06T17:26:39.754+07:00,540195179142716463,170322,190845,139973,1265
1783333599773160635,2026-07-06T17:26:39.773+07:00,540195179142716463,170291,190765,139878,1287
1783333599791342453,2026-07-06T17:26:39.791+07:00,540195179142716463,170291,190812,139880,1309
1783333599809524271,2026-07-06T17:26:39.809+07:00,540195179142716463,170301,190859,139876,1269
1783333599827706089,2026-07-06T17:26:39.827+07:00,540195179142716463,170242,190796,139808,1266
1783333599845887907,2026-07-06T17:26:39.845+07:00,540195179142716463,170221,190803,139781,1264
1783333599864069725,2026-07-06T17:26:39.864+07:00,540195179142716463,170188,190835,139817,1296
1783333599882251543,2026-07-06T17:26:39.882+07:00,540195179142716463,170172,190803,139785,1254
1783333599900433361,2026-07-06T17:26:39.900+07:00,540195179142716463,170237,190841,139819,1206
1783333599918615179,2026-07-06T17:26:39.918+07:00,540195179142716463,170228,190930,139903,1246
1783333599936796997,2026-07-06T17:26:39.936+07:00,540195179142716463,170331,191005,139960,1277
1783333599954978815,2026-07-06T17:26:39.954+07:00,540195179142716463,170337,191020,139940,1330
1783333599973160633,2026-07-06T17:26:39.973+07:00,540195179142716463,170336,191093,139940,1246
1783333599991342451,2026-07-06T17:26:39.991+07:00,540195179142716463,170403,191127,139978,1280
1783333600009524269,2026-07-06T17:26:40.009+07:00,540195179142716463,170392,191157,139973,1273
1783333600027706087,2026-07-06T17:26:40.027+07:00,540195179142716463,170431,191162,139953,1275
1783333600045887905,2026-07-06T17:26:40.045+07:00,540195179142716463,170462,191257,140007,1333
1783333600064069723,2026-07-06T17:26:40.064+07:00,540195179142716463,170451,191265,140000,1303
1783333600082251541,2026-07-06T17:26:40.082+07:00,540195179142716463,170488,191279,140007,1253
1783333600100433359,2026-07-06T17:26:40.100+07:00,540195179142716463,170421,191242,139998,1271
1783333600118615177,2026-07-06T17:26:40.118+07:00,540195179142716463,170298,191139,139908,1279
1783333600136796995,2026-07-06T17:26:40.136+07:00,540195179142716463,170211,191026,139836,1258
1783333600154978813,2026-07-06T17:26:40.154+07:00,540195179142716463,170031,190812,139697,1324
1783333600173160631,2026-07-06T17:26:40.173+07:00,540195179142716463,169887,190683,139551,1324
1783333600191342449,2026-07-06T17:26:40.191+07:00,540195179142716463,169648,190465,139370,1198
1783333600209524267,2026-07-06T17:26:40.209+07:00,540195179142716463,169484,190281,139242,1233
1783333600227706085,2026-07-06T17:26:40.227+07:00,540195179142716463,169338,190164,139154,1238
1783333600245887903,2026-07-06T17:26:40.245+07:00,540195180016172137,169182,190149,139098,1262
1783333600264069721,2026-07-06T17:26:40.264+07:00,540195180016172137,169078,190027,138981,1236
1783333600282251539,2026-07-06T17:26:40.282+07:00,540195180016172137,169039,189944,138952,1325
1783333600300433357,2026-07-06T17:26:40.300+07:00,540195180016172137,168983,189949,138899,1277
1783333600318615175,2026-07-06T17:26:40.318+07:00,540195180016172137,168937,189912,138817,1289
1783333600336796993,2026-07-06T17:26:40.336+07:00,540195180016172137,168880,189855,138775,1265
1783333600354978811,2026-07-06T17:26:40.354+07:00,540195180016172137,168879,189833,138749,1276
1783333600373160629,2026-07-06T17:26:40.373+07:00,540195180016172137,168826,189820,138708,1220
1783333600391342447,2026-07-06T17:26:40.391+07:00,540195180016172137,168807,189809,138716,1284
1783333600409524265,2026-07-06T17:26:40.409+07:00,540195180016172137,168777,189821,138690,1270
1783333600427706083,2026-07-06T17:26:40.427+07:00,540195180016172137,168711,189743,138604,1311
1783333600445887901,2026-07-06T17:26:40.445+07:00,540195180016172137,168651,189738,138566,1243
1783333600464069719,2026-07-06T17:26:40.464+07:00,540195180016172137,168649,189657,138511,1237
1783333600482251537,2026-07-06T17:26:40.482+07:00,540195180016172137,168636,189662,138537,1306
1783333600500433355,2026-07-06T17:26:40.500+07:00,540195180016172137,168603,189672,138538,1259
1783333600518615173,2026-07-06T17:26:40.518+07:00,540195180016172137,168557,189655,138494,1181
1783333600536796991,2026-07-06T17:26:40.536+07:00,540195180016172137,168580,189661,138515,1272
1783333600554978809,2026-07-06T17:26:40.554+07:00,540195180016172137,168590,189690,138491,1253
1783333600573160627,2026-07-06T17:26:40.573+07:00,540195180016172137,168578,189705,138509,1286
1783333600591342445,2026-07-06T17:26:40.591+07:00,540195180016172137,168631,189771,138534,1265
1783333600609524263,2026-07-06T17:26:40.609+07:00,540195180016172137,168615,189799,138556,1268
1783333600627706081,2026-07-06T17:26:40.627+07:00,540195180016172137,168618,189881,138536,1307
1783333600645887899,2026-07-06T17:26:40.645+07:00,540195180016172137,168684,189840,138590,1309
1783333600664069717,2026-07-06T17:26:40.664+07:00,540195180016172137,168673,189865,138558,1288
1783333600682251535,2026-07-06T17:26:40.682+07:00,540195180016172137,168709,189968,138642,1265
1783333600700433353,2026-07-06T17:26:40.700+07:00,540195180016172137,168772,189967,138636,1253
1783333600718615171,2026-07-06T17:26:40.718+07:00,540195180016172137,168795,189984,138656,1231
1783333600736796989,2026-07-06T17:26:40.736+07:00,540195180016172137,168845,190053,138632,1275
1783333600754978807,2026-07-06T17:26:40.754+07:00,540195180016172137,168828,190103,138699,1249
1783333600773160625,2026-07-06T17:26:40.773+07:00,540195180016172137,168903,190169,138780,1250
1783333600791342443,2026-07-06T17:26:40.791+07:00,540195180016172137,168916,190240,138809,1286
1783333600809524261,2026-07-06T17:26:40.809+07:00,540195180016172137,168940,190267,138796,1231
1783333600827706079,2026-07-06T17:26:40.827+07:00,540195180016172137,168944,190266,138780,1243
1783333600845887897,2026-07-06T17:26:40.845+07:00,540195180016172137,168962,190294,138823,1243
1783333600864069715,2026-07-06T17:26:40.864+07:00,540195180016172137,168865,190205,138714,1243
1783333600882251533,2026-07-06T17:26:40.882+07:00,540195180016172137,168739,190025,138564,1213
1783333600900433351,2026-07-06T17:26:40.900+07:00,540195180016172137,168499,189793,138430,1231
1783333600918615169,2026-07-06T17:26:40.918+07:00,540195180016172137,168276,189658,138277,1254
1783333600936796987,2026-07-06T17:26:40.936+07:00,540195180016172137,168042,189404,138093,1206
1783333600954978805,2026-07-06T17:26:40.954+07:00,540195180016172137,167948,189249,138028,1276
1783333600973160623,2026-07-06T17:26:40.973+07:00,540195180016172137,167799,189179,137891,1268
1783333600991342441,2026-07-06T17:26:40.991+07:00,540195180016172137,167692,189105,137835,1274
1783333601009524259,2026-07-06T17:26:41.009+07:00,540195180016172137,167613,189035,137767,1236
1783333601027706077,2026-07-06T17:26:41.027+07:00,540195180016172137,167564,188959,137742,1254
1783333601045887895,2026-07-06T17:26:41.045+07:00,540195180016172137,167461,188931,137649,1292
1783333601064069713,2026-07-06T17:26:41.064+07:00,540195180016172137,167402,188870,137636,1271
1783333601082251531,2026-07-06T17:26:41.082+07:00,540195180016172137,167392,188856,137568,1262
1783333601100433349,2026-07-06T17:26:41.100+07:00,540195180016172137,167362,188796,137554,1265
1783333601118615167,2026-07-06T17:26:41.118+07:00,540195180798642976,167346,188852,137494,1279
1783333601136796985,2026-07-06T17:26:41.136+07:00,540195180798642976,167306,188774,137462,1228
1783333601154978803,2026-07-06T17:26:41.154+07:00,540195180798642976,167239,188714,137472,1275
1783333601173160621,2026-07-06T17:26:41.173+07:00,540195180798642976,167233,188752,137445,1269
1783333601191342439,2026-07-06T17:26:41.191+07:00,540195180798642976,167173,188604,137341,1284
1783333601209524257,2026-07-06T17:26:41.209+07:00,540195180798642976,167088,188617,137330,1254
1783333601227706075,2026-07-06T17:26:41.227+07:00,540195180798642976,167104,188516,137262,1255
1783333601245887893,2026-07-06T17:26:41.245+07:00,540195180798642976,167058,188613,137303,1248
1783333601264069711,2026-07-06T17:26:41.264+07:00,540195180798642976,167093,188567,137285,1238
1783333601282251529,2026-07-06T17:26:41.282+07:00,540195180798642976,167076,188597,137277,1226
1783333601300433347,2026-07-06T17:26:41.300+07:00,540195180798642976,167097,188646,137289,1271
1783333601318615165,2026-07-06T17:26:41.318+07:00,540195180798642976,167149,188697,137305,1276
1783333601336796983,2026-07-06T17:26:41.336+07:00,540195180798642976,167115,188645,137278,1222
1783333601354978801,2026-07-06T17:26:41.354+07:00,540195180798642976,167132,188702,137343,1252
1783333601373160619,2026-07-06T17:26:41.373+07:00,540195180798642976,167225,188760,137389,1256
1783333601391342437,2026-07-06T17:26:41.391+07:00,540195180798642976,167261,188754,137414,1223
1783333601409524255,2026-07-06T17:26:41.409+07:00,540195180798642976,167278,188875,137470,1269
1783333601427706073,2026-07-06T17:26:41.427+07:00,540195180798642976,167314,188886,137461,1216
1783333601445887891,2026-07-06T17:26:41.445+07:00,540195180798642976,167376,188950,137457,1217
1783333601464069709,2026-07-06T17:26:41.464+07:00,540195180798642976,167401,188977,137504,1239
1783333601482251527,2026-07-06T17:26:41.482+07:00,540195180798642976,167465,189045,137554,1235
1783333601500433345,2026-07-06T17:26:41.500+07:00,540195180798642976,167509,189025,137564,1264
1783333601518615163,2026-07-06T17:26:41.518+07:00,540195180798642976,167517,189147,137624,1232
1783333601536796981,2026-07-06T17:26:41.536+07:00,540195180798642976,167556,189286,137655,1236
1783333601554978799,2026-07-06T17:26:41.554+07:00,540195180798642976,167637,189350,137762,1279
1783333601573160617,2026-07-06T17:26:41.573+07:00,540195180798642976,167715,189365,137792,1222
1783333601591342435,2026-07-06T17:26:41.591+07:00,540195180798642976,167654,189364,137749,1199
1783333601609524253,2026-07-06T17:26:41.609+07:00,540195180798642976,167633,189340,137716,1251
1783333601627706071,2026-07-06T17:26:41.627+07:00,540195180798642976,167532,189197,137557,1252
1783333601645887889,2026-07-06T17:26:41.645+07:00,540195180798642976,167342,189004,137460,1212
1783333601664069707,2026-07-06T17:26:41.664+07:00,540195180798642976,167185,188779,137319,1246
1783333601682251525,2026-07-06T17:26:41.682+07:00,540195180798642976,166970,188617,137173,1265
1783333601700433343,2026-07-06T17:26:41.700+07:00,540195180798642976,166741,188473,136991,1226
1783333601718615161,2026-07-06T17:26:41.718+07:00,540195180798642976,166669,188304,136940,1257
1783333601736796979,2026-07-06T17:26:41.736+07:00,540195180798642976,166575,188230,136848,1254
1783333601754978797,2026-07-06T17:26:41.754+07:00,540195180798642976,166493,188182,136814,1264
1783333601773160615,2026-07-06T17:26:41.773+07:00,540195180798642976,166453,188128,136764,1270
1783333601791342433,2026-07-06T17:26:41.791+07:00,540195180798642976,166449,187986,136681,1248
1783333601809524251,2026-07-06T17:26:41.809+07:00,540195180798642976,166365,187999,136658,1271
1783333601827706069,2026-07-06T17:26:41.827+07:00,540195180798642976,166379,188014,136689,1268
1783333601845887887,2026-07-06T17:26:41.845+07:00,540195180798642976,166326,187961,136651,1281
1783333601864069705,2026-07-06T17:26:41.864+07:00,540195180798642976,166350,188018,136604,1248
1783333601882251523,2026-07-06T17:26:41.882+07:00,540195180798642976,166305,187886,136588,1264
1783333601900433341,2026-07-06T17:26:41.900+07:00,540195181635678478,166228,187812,136509,1184
1783333601918615159,2026-07-06T17:26:41.918+07:00,540195181635678478,166184,187814,136515,1191
1783333601936796977,2026-07-06T17:26:41.936+07:00,540195181635678478,166183,187775,136441,1222
1783333601954978795,2026-07-06T17:26:41.954+07:00,540195181635678478,166123,187763,136378,1245
1783333601973160613,2026-07-06T17:26:41.973+07:00,540195181635678478,166112,187705,136393,1282
1783333601991342431,2026-07-06T17:26:41.991+07:00,540195181635678478,166131,187735,136403,1218
1783333602009524249,2026-07-06T17:26:42.009+07:00,540195181635678478,166111,187724,136363,1252
1783333602027706067,2026-07-06T17:26:42.027+07:00,540195181635678478,166158,187719,136408,1250
1783333602045887885,2026-07-06T17:26:42.045+07:00,540195181635678478,166097,187678,136284,1223
1783333602064069703,2026-07-06T17:26:42.064+07:00,540195181635678478,166101,187691,136319,1262
1783333602082251521,2026-07-06T17:26:42.082+07:00,540195181635678478,166133,187698,136387,1284
1783333602100433339,2026-07-06T17:26:42.100+07:00,540195181635678478,166169,187678,136400,1304
1783333602118615157,2026-07-06T17:26:42.118+07:00,540195181635678478,166210,187701,136438,1267
1783333602136796975,2026-07-06T17:26:42.136+07:00,540195181635678478,166253,187808,136455,1253
1783333602154978793,2026-07-06T17:26:42.154+07:00,540195181635678478,166251,187892,136480,1265
1783333602173160611,2026-07-06T17:26:42.173+07:00,540195181635678478,166299,187851,136495,1285
1783333602191342429,2026-07-06T17:26:42.191+07:00,540195181635678478,166365,187898,136565,1275
1783333602209524247,2026-07-06T17:26:42.209+07:00,540195181635678478,166413,187970,136578,1276
1783333602227706065,2026-07-06T17:26:42.227+07:00,540195181635678478,166382,187918,136564,1213
1783333602245887883,2026-07-06T17:26:42.245+07:00,540195181635678478,166454,188030,136667,1335
1783333602264069701,2026-07-06T17:26:42.264+07:00,540195181635678478,166562,188077,136756,1299
1783333602282251519,2026-07-06T17:26:42.282+07:00,540195181635678478,166571,188123,136726,1310
1783333602300433337,2026-07-06T17:26:42.300+07:00,540195181635678478,166604,188124,136749,1283
1783333602318615155,2026-07-06T17:26:42.318+07:00,540195181635678478,166561,188094,136709,1233
1783333602336796973,2026-07-06T17:26:42.336+07:00,540195181635678478,166555,188138,136753,1260
1783333602354978791,2026-07-06T17:26:42.354+07:00,540195181635678478,166429,187984,136653,1233
1783333602373160609,2026-07-06T17:26:42.373+07:00,540195181635678478,166297,187833,136528,1300
1783333602391342427,2026-07-06T17:26:42.391+07:00,540195181635678478,166133,187639,136407,1288
1783333602409524245,2026-07-06T17:26:42.409+07:00,540195181635678478,165957,187455,136290,1266
1783333602427706063,2026-07-06T17:26:42.427+07:00,540195181635678478,165882,187331,136133,1269
1783333602445887881,2026-07-06T17:26:42.445+07:00,540195181635678478,165707,187170,135998,1203
1783333602464069699,2026-07-06T17:26:42.464+07:00,540195181635678478,165637,187081,135923,1235
1783333602482251517,2026-07-06T17:26:42.482+07:00,540195181635678478,165553,186977,135823,1299
1783333602500433335,2026-07-06T17:26:42.500+07:00,540195181635678478,165466,186937,135841,1284
1783333602518615153,2026-07-06T17:26:42.518+07:00,540195181635678478,165463,186913,135741,1220
1783333602536796971,2026-07-06T17:26:42.536+07:00,540195181635678478,165519,186949,135797,1280
1783333602554978789,2026-07-06T17:26:42.554+07:00,540195181635678478,165465,186902,135725,1226
1783333602573160607,2026-07-06T17:26:42.573+07:00,540195181635678478,165438,186857,135776,1257
1783333602591342425,2026-07-06T17:26:42.591+07:00,540195181635678478,165439,186836,135715,1262
1783333602609524243,2026-07-06T17:26:42.609+07:00,540195181635678478,165420,186810,135710,1309
1783333602627706061,2026-07-06T17:26:42.627+07:00,540195181635678478,165374,186785,135673,1276
1783333602645887879,2026-07-06T17:26:42.645+07:00,540195181635678478,165370,186788,135675,1290
1783333602664069697,2026-07-06T17:26:42.664+07:00,540195181635678478,165367,186743,135640,1267
1783333602682251515,2026-07-06T17:26:42.682+07:00,540195181635678478,165307,186727,135586,1248
1783333602700433333,2026-07-06T17:26:42.700+07:00,540195181635678478,165328,186694,135537,1308
1783333602718615151,2026-07-06T17:26:42.718+07:00,540195181635678478,165267,186656,135535,1250
1783333602736796969,2026-07-06T17:26:42.736+07:00,540195182472741438,165248,186593,135493,1236
1783333602754978787,2026-07-06T17:26:42.754+07:00,540195182472741438,165304,186620,135517,1205
1783333602773160605,2026-07-06T17:26:42.773+07:00,540195182472741438,165322,186600,135579,1228
1783333602791342423,2026-07-06T17:26:42.791+07:00,540195182472741438,165308,186641,135618,1275
1783333602809524241,2026-07-06T17:26:42.809+07:00,540195182472741438,165370,186725,135676,1285
1783333602827706059,2026-07-06T17:26:42.827+07:00,540195182472741438,165331,186684,135648,1273
1783333602845887877,2026-07-06T17:26:42.845+07:00,540195182472741438,165424,186747,135707,1255
1783333602864069695,2026-07-06T17:26:42.864+07:00,540195182472741438,165523,186758,135721,1272
1783333602882251513,2026-07-06T17:26:42.882+07:00,540195182472741438,165464,186771,135638,1215
1783333602900433331,2026-07-06T17:26:42.900+07:00,540195182472741438,165460,186846,135756,1239
1783333602918615149,2026-07-06T17:26:42.918+07:00,540195182472741438,165562,186875,135823,1216
1783333602936796967,2026-07-06T17:26:42.936+07:00,540195182472741438,165616,186942,135837,1258
1783333602954978785,2026-07-06T17:26:42.954+07:00,540195182472741438,165714,187056,135961,1212
1783333602973160603,2026-07-06T17:26:42.973+07:00,540195182472741438,165739,187008,135882,1270
1783333602991342421,2026-07-06T17:26:42.991+07:00,540195182472741438,165743,187046,135900,1284
1783333603009524239,2026-07-06T17:26:43.009+07:00,540195182472741438,165780,187030,135936,1296
1783333603027706057,2026-07-06T17:26:43.027+07:00,540195182472741438,165659,186959,135883,1319
1783333603045887875,2026-07-06T17:26:43.045+07:00,540195182472741438,165593,186859,135819,1311
1783333603064069693,2026-07-06T17:26:43.064+07:00,540195182472741438,165444,186643,135664,1221
1783333603082251511,2026-07-06T17:26:43.082+07:00,540195182472741438,165248,186471,135508,1238
1783333603100433329,2026-07-06T17:26:43.100+07:00,540195182472741438,165092,186243,135387,1223
1783333603118615147,2026-07-06T17:26:43.118+07:00,540195182472741438,164889,186075,135266,1212
1783333603136796965,2026-07-06T17:26:43.136+07:00,540195182472741438,164717,185901,135195,1198
1783333603154978783,2026-07-06T17:26:43.154+07:00,540195182472741438,164685,185719,135112,1251
1783333603173160601,2026-07-06T17:26:43.173+07:00,540195182472741438,164690,185660,135068,1245
1783333603191342419,2026-07-06T17:26:43.191+07:00,540195182472741438,164555,185618,134983,1187
1783333603209524237,2026-07-06T17:26:43.209+07:00,540195182472741438,164630,185625,135000,1268
1783333603227706055,2026-07-06T17:26:43.227+07:00,540195182472741438,164608,185571,134971,1253
1783333603245887873,2026-07-06T17:26:43.245+07:00,540195182472741438,164623,185593,134973,1230
1783333603264069691,2026-07-06T17:26:43.264+07:00,540195182472741438,164661,185552,135009,1238
1783333603282251509,2026-07-06T17:26:43.282+07:00,540195182472741438,164579,185489,134989,1198
1783333603300433327,2026-07-06T17:26:43.300+07:00,540195182472741438,164590,185474,134974,1270
1783333603318615145,2026-07-06T17:26:43.318+07:00,540195182472741438,164568,185464,134990,1314
1783333603336796963,2026-07-06T17:26:43.336+07:00,540195182472741438,164474,185362,134935,1264
1783333603354978781,2026-07-06T17:26:43.354+07:00,540195182472741438,164411,185329,134934,1291
1783333603373160599,2026-07-06T17:26:43.373+07:00,540195182472741438,164391,185288,134876,1251
1783333603391342417,2026-07-06T17:26:43.391+07:00,540195182472741438,164474,185251,134920,1277
1783333603409524235,2026-07-06T17:26:43.409+07:00,540195182472741438,164432,185253,134891,1274
1783333603427706053,2026-07-06T17:26:43.427+07:00,540195182472741438,164418,185254,134908,1233
1783333603445887871,2026-07-06T17:26:43.445+07:00,540195182472741438,164381,185213,134865,1262
1783333603464069689,2026-07-06T17:26:43.464+07:00,540195182472741438,164463,185203,134932,1325
1783333603482251507,2026-07-06T17:26:43.482+07:00,540195182472741438,164479,185182,134925,1243
1783333603500433325,2026-07-06T17:26:43.500+07:00,540195182472741438,164503,185235,134965,1222
1783333603518615143,2026-07-06T17:26:43.518+07:00,540195182472741438,164590,185258,134990,1276
1783333603536796961,2026-07-06T17:26:43.536+07:00,540195182472741438,164575,185341,135059,1268
1783333603554978779,2026-07-06T17:26:43.554+07:00,540195182472741438,164670,185346,135137,1233
1783333603573160597,2026-07-06T17:26:43.573+07:00,540195183255204647,164749,185382,135122,1268
1783333603591342415,2026-07-06T17:26:43.591+07:00,540195183255204647,164808,185471,135182,1218
1783333603609524233,2026-07-06T17:26:43.609+07:00,540195183255204647,164853,185512,135201,1179
1783333603627706051,2026-07-06T17:26:43.627+07:00,540195183255204647,164902,185560,135267,1162
1783333603645887869,2026-07-06T17:26:43.645+07:00,540195183255204647,164988,185657,135346,1273
1783333603664069687,2026-07-06T17:26:43.664+07:00,540195183255204647,165069,185640,135398,1258
1783333603682251505,2026-07-06T17:26:43.682+07:00,540195183255204647,165090,185642,135375,1275
1783333603700433323,2026-07-06T17:26:43.700+07:00,540195183255204647,165034,185623,135392,1192
1783333603718615141,2026-07-06T17:26:43.718+07:00,540195183255204647,164854,185469,135256,1237
1783333603736796959,2026-07-06T17:26:43.736+07:00,540195183255204647,164709,185256,135164,1247
1783333603754978777,2026-07-06T17:26:43.754+07:00,540195183255204647,164577,185036,135032,1232
1783333603773160595,2026-07-06T17:26:43.773+07:00,540195183255204647,164399,184808,134913,1235
1783333603791342413,2026-07-06T17:26:43.791+07:00,540195183255204647,164306,184679,134844,1245
1783333603809524231,2026-07-06T17:26:43.809+07:00,540195183255204647,164167,184544,134761,1225
1783333603827706049,2026-07-06T17:26:43.827+07:00,540195183255204647,164145,184446,134643,1262
1783333603845887867,2026-07-06T17:26:43.845+07:00,540195183255204647,164010,184346,134615,1268
1783333603864069685,2026-07-06T17:26:43.864+07:00,540195183255204647,164009,184238,134603,1283
1783333603882251503,2026-07-06T17:26:43.882+07:00,540195183255204647,163914,184203,134523,1209
1783333603900433321,2026-07-06T17:26:43.900+07:00,540195183255204647,163910,184170,134582,1229
1783333603918615139,2026-07-06T17:26:43.918+07:00,540195183255204647,163978,184172,134578,1284
1783333603936796957,2026-07-06T17:26:43.936+07:00,540195183255204647,163948,184105,134619,1204
1783333603954978775,2026-07-06T17:26:43.954+07:00,540195183255204647,163942,184085,134560,1209
1783333603973160593,2026-07-06T17:26:43.973+07:00,540195183255204647,163972,184073,134585,1204
1783333603991342411,2026-07-06T17:26:43.991+07:00,540195183255204647,163906,183979,134535,1185
1783333604009524229,2026-07-06T17:26:44.009+07:00,540195183255204647,163909,183953,134525,1209
1783333604027706047,2026-07-06T17:26:44.027+07:00,540195183255204647,163903,183936,134531,1266
1783333604045887865,2026-07-06T17:26:44.045+07:00,540195183255204647,163872,183878,134512,1209
1783333604064069683,2026-07-06T17:26:44.064+07:00,540195183255204647,163916,183885,134575,1274
1783333604082251501,2026-07-06T17:26:44.082+07:00,540195183255204647,163964,183876,134572,1238
1783333604100433319,2026-07-06T17:26:44.100+07:00,540195183255204647,163988,183936,134599,1254
1783333604118615137,2026-07-06T17:26:44.118+07:00,540195183255204647,164006,183889,134606,1248
1783333604136796955,2026-07-06T17:26:44.136+07:00,540195183255204647,164029,183982,134635,1234
1783333604154978773,2026-07-06T17:26:44.154+07:00,540195183255204647,164115,184019,134677,1274
1783333604173160591,2026-07-06T17:26:44.173+07:00,540195183255204647,164199,184101,134717,1258
1783333604191342409,2026-07-06T17:26:44.191+07:00,540195183255204647,164237,184198,134767,1281
1783333604209524227,2026-07-06T17:26:44.209+07:00,540195183255204647,164284,184167,134801,1257
1783333604227706045,2026-07-06T17:26:44.227+07:00,540195183255204647,164359,184258,134863,1256
1783333604245887863,2026-07-06T17:26:44.245+07:00,540195183255204647,164369,184309,134863,1264
1783333604264069681,2026-07-06T17:26:44.264+07:00,540195183255204647,164486,184366,134930,1264
1783333604282251499,2026-07-06T17:26:44.282+07:00,540195183255204647,164571,184416,135041,1267
1783333604300433317,2026-07-06T17:26:44.300+07:00,540195183255204647,164623,184454,135108,1264
1783333604318615135,2026-07-06T17:26:44.318+07:00,540195183255204647,164739,184544,135171,1265
1783333604336796953,2026-07-06T17:26:44.336+07:00,540195183255204647,164814,184622,135289,1186
1783333604354978771,2026-07-06T17:26:44.354+07:00,540195184019485231,164931,184650,135317,1267
1783333604373160589,2026-07-06T17:26:44.373+07:00,540195184019485231,164889,184707,135385,1267
1783333604391342407,2026-07-06T17:26:44.391+07:00,540195184019485231,164906,184659,135390,1238
1783333604409524225,2026-07-06T17:26:44.409+07:00,540195184019485231,164869,184573,135289,1246
1783333604427706043,2026-07-06T17:26:44.427+07:00,540195184019485231,164802,184487,135245,1274
1783333604445887861,2026-07-06T17:26:44.445+07:00,540195184019485231,164654,184283,135129,1271
1783333604464069679,2026-07-06T17:26:44.464+07:00,540195184019485231,164456,184093,134982,1180
1783333604482251497,2026-07-06T17:26:44.482+07:00,540195184019485231,164387,184009,134879,1237
1783333604500433315,2026-07-06T17:26:44.500+07:00,540195184019485231,164253,183825,134784,1241
1783333604518615133,2026-07-06T17:26:44.518+07:00,540195184019485231,164220,183719,134799,1236
1783333604536796951,2026-07-06T17:26:44.536+07:00,540195184019485231,164180,183660,134770,1238
1783333604554978769,2026-07-06T17:26:44.554+07:00,540195184019485231,164107,183534,134642,1194
1783333604573160587,2026-07-06T17:26:44.573+07:00,540195184019485231,164135,183570,134693,1240
1783333604591342405,2026-07-06T17:26:44.591+07:00,540195184019485231,164110,183568,134646,1216
1783333604609524223,2026-07-06T17:26:44.609+07:00,540195184019485231,164246,183578,134687,1274
1783333604627706041,2026-07-06T17:26:44.627+07:00,540195184019485231,164200,183545,134687,1175
1783333604645887859,2026-07-06T17:26:44.645+07:00,540195184019485231,164220,183545,134712,1224
1783333604664069677,2026-07-06T17:26:44.664+07:00,540195184019485231,164193,183632,134710,1280
1783333604682251495,2026-07-06T17:26:44.682+07:00,540195184019485231,164205,183603,134694,1270
1783333604700433313,2026-07-06T17:26:44.700+07:00,540195184019485231,164277,183627,134715,1298
1783333604718615131,2026-07-06T17:26:44.718+07:00,540195184019485231,164267,183621,134715,1229
1783333604736796949,2026-07-06T17:26:44.736+07:00,540195184019485231,164334,183626,134796,1252
1783333604754978767,2026-07-06T17:26:44.754+07:00,540195184019485231,164343,183593,134757,1264
1783333604773160585,2026-07-06T17:26:44.773+07:00,540195184019485231,164423,183711,134850,1326
1783333604791342403,2026-07-06T17:26:44.791+07:00,540195184019485231,164452,183604,134788,1299
1783333604809524221,2026-07-06T17:26:44.809+07:00,540195184019485231,164446,183645,134883,1231
1783333604827706039,2026-07-06T17:26:44.827+07:00,540195184019485231,164538,183765,134925,1236
1783333604845887857,2026-07-06T17:26:44.845+07:00,540195184019485231,164570,183743,134933,1187
1783333604864069675,2026-07-06T17:26:44.864+07:00,540195184019485231,164598,183852,135011,1186
1783333604882251493,2026-07-06T17:26:44.882+07:00,540195184019485231,164680,183976,135092,1277
1783333604900433311,2026-07-06T17:26:44.900+07:00,540195184019485231,164755,183987,135117,1241
1783333604918615129,2026-07-06T17:26:44.918+07:00,540195184019485231,164877,184129,135207,1256
1783333604936796947,2026-07-06T17:26:44.936+07:00,540195184019485231,164944,184189,135292,1249
1783333604954978765,2026-07-06T17:26:44.954+07:00,540195184019485231,165055,184257,135368,1269
1783333604973160583,2026-07-06T17:26:44.973+07:00,540195184019485231,165126,184307,135425,1224
1783333604991342401,2026-07-06T17:26:44.991+07:00,540195184019485231,165248,184460,135541,1304
1783333605009524219,2026-07-06T17:26:45.009+07:00,540195184019485231,165336,184570,135653,1257
1783333605027706037,2026-07-06T17:26:45.027+07:00,540195184019485231,165470,184705,135677,1324
1783333605045887855,2026-07-06T17:26:45.045+07:00,540195184019485231,165555,184764,135759,1250
1783333605064069673,2026-07-06T17:26:45.064+07:00,540195184019485231,165680,184916,135893,1306
1783333605082251491,2026-07-06T17:26:45.082+07:00,540195184019485231,165768,184970,135929,1308
1783333605100433309,2026-07-06T17:26:45.100+07:00,540195184019485231,165878,185083,135999,1283
1783333605118615127,2026-07-06T17:26:45.118+07:00,540195184801963698,165953,185150,136060,1338
1783333605136796945,2026-07-06T17:26:45.136+07:00,540195184801963698,165926,185152,136024,1306
1783333605154978763,2026-07-06T17:26:45.154+07:00,540195184801963698,165850,185097,135968,1251
1783333605173160581,2026-07-06T17:26:45.173+07:00,540195184801963698,165809,184969,135981,1321
1783333605191342399,2026-07-06T17:26:45.191+07:00,540195184801963698,165713,184801,135828,1250
1783333605209524217,2026-07-06T17:26:45.209+07:00,540195184801963698,165639,184692,135784,1263
1783333605227706035,2026-07-06T17:26:45.227+07:00,540195184801963698,165594,184648,135741,1259
1783333605245887853,2026-07-06T17:26:45.245+07:00,540195184801963698,165581,184576,135698,1251
1783333605264069671,2026-07-06T17:26:45.264+07:00,540195184801963698,165560,184593,135663,1251
1783333605282251489,2026-07-06T17:26:45.282+07:00,540195184801963698,165616,184508,135750,1308
1783333605300433307,2026-07-06T17:26:45.300+07:00,540195184801963698,165577,184524,135640,1236
1783333605318615125,2026-07-06T17:26:45.318+07:00,540195184801963698,165609,184595,135754,1287
1783333605336796943,2026-07-06T17:26:45.336+07:00,540195184801963698,165632,184577,135692,1228
1783333605354978761,2026-07-06T17:26:45.354+07:00,540195184801963698,165687,184629,135707,1195
