host_timestamp_ns,host_timestamp_iso,pmd_timestamp,ppg0,ppg1,ppg2,ambient
1783334327901168443,2026-07-06T17:38:47.901+07:00,540195907718965531,174254,191577,145948,1263
1783334327919350261,2026-07-06T17:38:47.919+07:00,540195907718965531,174257,191558,146009,1241
1783334327937532079,2026-07-06T17:38:47.937+07:00,540195907718965531,174171,191477,146018,1291
1783334327955713897,2026-07-06T17:38:47.955+07:00,540195907718965531,174151,191383,145976,1262
1783334327973895715,2026-07-06T17:38:47.973+07:00,540195907718965531,174093,191360,145962,1246
1783334327992077533,2026-07-06T17:38:47.992+07:00,540195907718965531,174162,191419,145984,1314
1783334328010259351,2026-07-06T17:38:48.010+07:00,540195907718965531,174107,191382,145981,1310
1783334328028441169,2026-07-06T17:38:48.028+07:00,540195907718965531,174108,191348,145963,1243
1783334328046622987,2026-07-06T17:38:48.046+07:00,540195907718965531,174102,191324,145974,1247
1783334328064804805,2026-07-06T17:38:48.064+07:00,540195907718965531,174144,191340,145961,1252
1783334328082986623,2026-07-06T17:38:48.082+07:00,540195907718965531,174133,191328,146048,1245
1783334328101168441,2026-07-06T17:38:48.101+07:00,540195907718965531,174141,191343,146027,1271
1783334328119350259,2026-07-06T17:38:48.119+07:00,540195907718965531,174187,191375,146073,1285
1783334328137532077,2026-07-06T17:38:48.137+07:00,540195907718965531,174174,191419,146138,1282
1783334328155713895,2026-07-06T17:38:48.155+07:00,540195907718965531,174239,191432,146196,1260
1783334328173895713,2026-07-06T17:38:48.173+07:00,540195907718965531,174305,191483,146158,1321
1783334328192077531,2026-07-06T17:38:48.192+07:00,540195907718965531,174289,191505,146164,1219
1783334328210259349,2026-07-06T17:38:48.210+07:00,540195907718965531,174344,191560,146222,1276
1783334328228441167,2026-07-06T17:38:48.228+07:00,540195907718965531,174315,191565,146234,1254
1783334328246622985,2026-07-06T17:38:48.246+07:00,540195907718965531,174354,191636,146334,1254
1783334328264804803,2026-07-06T17:38:48.264+07:00,540195907718965531,174314,191634,146314,1283
1783334328282986621,2026-07-06T17:38:48.282+07:00,540195907718965531,174336,191546,146287,1219
1783334328301168439,2026-07-06T17:38:48.301+07:00,540195907718965531,174277,191428,146288,1271
1783334328319350257,2026-07-06T17:38:48.319+07:00,540195907718965531,174176,191360,146187,1275
1783334328337532075,2026-07-06T17:38:48.337+07:00,540195907718965531,173961,191107,146034,1291
1783334328355713893,2026-07-06T17:38:48.355+07:00,540195907718965531,173802,190942,145982,1269
1783334328373895711,2026-07-06T17:38:48.373+07:00,540195907718965531,173679,190764,145845,1277
1783334328392077529,2026-07-06T17:38:48.392+07:00,540195907718965531,173658,190685,145753,1314
1783334328410259347,2026-07-06T17:38:48.410+07:00,540195907718965531,173528,190490,145657,1267
1783334328428441165,2026-07-06T17:38:48.428+07:00,540195907718965531,173419,190411,145621,1214
1783334328446622983,2026-07-06T17:38:48.446+07:00,540195907718965531,173320,190364,145578,1268
1783334328464804801,2026-07-06T17:38:48.464+07:00,540195907718965531,173315,190305,145501,1271
1783334328482986619,2026-07-06T17:38:48.482+07:00,540195907718965531,173296,190308,145602,1291
1783334328501168437,2026-07-06T17:38:48.501+07:00,540195907718965531,173253,190250,145594,1306
1783334328519350255,2026-07-06T17:38:48.519+07:00,540195907718965531,173262,190220,145533,1256
1783334328537532073,2026-07-06T17:38:48.537+07:00,540195907718965531,173278,190255,145539,1262
1783334328555713891,2026-07-06T17:38:48.555+07:00,540195907718965531,173260,190173,145486,1299
1783334328573895709,2026-07-06T17:38:48.573+07:00,540195907718965531,173284,190207,145568,1345
1783334328592077527,2026-07-06T17:38:48.592+07:00,540195907718965531,173147,190031,145450,1307
1783334328610259345,2026-07-06T17:38:48.610+07:00,540195907718965531,173065,189950,145425,1267
1783334328628441163,2026-07-06T17:38:48.628+07:00,540195907718965531,173040,189903,145434,1319
1783334328646622981,2026-07-06T17:38:48.646+07:00,540195907718965531,172920,189818,145387,1267
1783334328664804799,2026-07-06T17:38:48.664+07:00,540195907718965531,172933,189739,145329,1284
1783334328682986617,2026-07-06T17:38:48.682+07:00,540195907718965531,172913,189624,145238,1317
1783334328701168435,2026-07-06T17:38:48.701+07:00,540195907718965531,172854,189429,145139,1280
1783334328719350253,2026-07-06T17:38:48.719+07:00,540195908501408902,172810,189329,145105,1335
1783334328737532071,2026-07-06T17:38:48.737+07:00,540195908501408902,172740,189225,144953,1292
1783334328755713889,2026-07-06T17:38:48.755+07:00,540195908501408902,172640,189003,144839,1265
1783334328773895707,2026-07-06T17:38:48.773+07:00,540195908501408902,172716,188938,144746,1294
1783334328792077525,2026-07-06T17:38:48.792+07:00,540195908501408902,172701,188819,144606,1265
1783334328810259343,2026-07-06T17:38:48.810+07:00,540195908501408902,172752,188802,144610,1280
1783334328828441161,2026-07-06T17:38:48.828+07:00,540195908501408902,172726,188662,144551,1284
1783334328846622979,2026-07-06T17:38:48.846+07:00,540195908501408902,172753,188608,144485,1288
1783334328864804797,2026-07-06T17:38:48.864+07:00,540195908501408902,172895,188643,144528,1275
1783334328882986615,2026-07-06T17:38:48.882+07:00,540195908501408902,172952,188713,144591,1328
1783334328901168433,2026-07-06T17:38:48.901+07:00,540195908501408902,173050,188691,144572,1254
1783334328919350251,2026-07-06T17:38:48.919+07:00,540195908501408902,173118,188741,144717,1270
1783334328937532069,2026-07-06T17:38:48.937+07:00,540195908501408902,173176,188683,144679,1303
1783334328955713887,2026-07-06T17:38:48.955+07:00,540195908501408902,173287,188798,144748,1275
1783334328973895705,2026-07-06T17:38:48.973+07:00,540195908501408902,173282,188739,144781,1273
1783334328992077523,2026-07-06T17:38:48.992+07:00,540195908501408902,173324,188733,144852,1269
1783334329010259341,2026-07-06T17:38:49.010+07:00,540195908501408902,173249,188655,144795,1288
1783334329028441159,2026-07-06T17:38:49.028+07:00,540195908501408902,173219,188615,144804,1298
1783334329046622977,2026-07-06T17:38:49.046+07:00,540195908501408902,173190,188439,144649,1350
1783334329064804795,2026-07-06T17:38:49.064+07:00,540195908501408902,173065,188248,144615,1266
1783334329082986613,2026-07-06T17:38:49.082+07:00,540195908501408902,172914,188063,144447,1275
1783334329101168431,2026-07-06T17:38:49.101+07:00,540195908501408902,172832,187951,144380,1274
1783334329119350249,2026-07-06T17:38:49.119+07:00,540195908501408902,172813,187852,144315,1293
1783334329137532067,2026-07-06T17:38:49.137+07:00,540195908501408902,172702,187752,144264,1233
1783334329155713885,2026-07-06T17:38:49.155+07:00,540195908501408902,172669,187674,144303,1285
1783334329173895703,2026-07-06T17:38:49.173+07:00,540195908501408902,172647,187622,144200,1238
1783334329192077521,2026-07-06T17:38:49.192+07:00,540195908501408902,172574,187639,144270,1296
1783334329210259339,2026-07-06T17:38:49.210+07:00,540195908501408902,172633,187616,144246,1321
1783334329228441157,2026-07-06T17:38:49.228+07:00,540195908501408902,172655,187651,144348,1326
1783334329246622975,2026-07-06T17:38:49.246+07:00,540195908501408902,172645,187636,144390,1239
1783334329264804793,2026-07-06T17:38:49.264+07:00,540195908501408902,172682,187695,144442,1290
1783334329282986611,2026-07-06T17:38:49.282+07:00,540195908501408902,172709,187758,144453,1280
1783334329301168429,2026-07-06T17:38:49.301+07:00,540195908501408902,172788,187825,144514,1303
1783334329319350247,2026-07-06T17:38:49.319+07:00,540195908501408902,172691,187781,144507,1238
1783334329337532065,2026-07-06T17:38:49.337+07:00,540195908501408902,172748,187792,144584,1300
1783334329355713883,2026-07-06T17:38:49.355+07:00,540195908501408902,172746,187783,144563,1283
1783334329373895701,2026-07-06T17:38:49.373+07:00,540195908501408902,172662,187697,144520,1272
1783334329392077519,2026-07-06T17:38:49.392+07:00,540195908501408902,172685,187708,144602,1305
1783334329410259337,2026-07-06T17:38:49.410+07:00,540195908501408902,172622,187613,144605,1340
1783334329428441155,2026-07-06T17:38:49.428+07:00,540195908501408902,172612,187565,144600,1316
1783334329446622973,2026-07-06T17:38:49.446+07:00,540195908501408902,172579,187544,144619,1356
1783334329464804791,2026-07-06T17:38:49.464+07:00,540195908501408902,172594,187512,144669,1292
1783334329482986609,2026-07-06T17:38:49.482+07:00,540195908501408902,172580,187450,144735,1297
1783334329501168427,2026-07-06T17:38:49.501+07:00,540195909320275505,172588,187486,144728,1270
1783334329519350245,2026-07-06T17:38:49.519+07:00,540195909320275505,172598,187492,144784,1310
1783334329537532063,2026-07-06T17:38:49.537+07:00,540195909320275505,172720,187531,144826,1341
1783334329555713881,2026-07-06T17:38:49.555+07:00,540195909320275505,172760,187556,144868,1293
1783334329573895699,2026-07-06T17:38:49.573+07:00,540195909320275505,172823,187622,144971,1303
1783334329592077517,2026-07-06T17:38:49.592+07:00,540195909320275505,172846,187710,144940,1281
1783334329610259335,2026-07-06T17:38:49.610+07:00,540195909320275505,172945,187752,145045,1292
1783334329628441153,2026-07-06T17:38:49.628+07:00,540195909320275505,172923,187790,145112,1263
1783334329646622971,2026-07-06T17:38:49.646+07:00,540195909320275505,173013,187854,145163,1284
1783334329664804789,2026-07-06T17:38:49.664+07:00,540195909320275505,173106,187933,145199,1314
1783334329682986607,2026-07-06T17:38:49.682+07:00,540195909320275505,173103,187918,145220,1286
1783334329701168425,2026-07-06T17:38:49.701+07:00,540195909320275505,173040,187820,145155,1218
1783334329719350243,2026-07-06T17:38:49.719+07:00,540195909320275505,173023,187763,145187,1293
1783334329737532061,2026-07-06T17:38:49.737+07:00,540195909320275505,173000,187710,145174,1296
1783334329755713879,2026-07-06T17:38:49.755+07:00,540195909320275505,172871,187546,145032,1287
1783334329773895697,2026-07-06T17:38:49.773+07:00,540195909320275505,172820,187446,144952,1239
1783334329792077515,2026-07-06T17:38:49.792+07:00,540195909320275505,172670,187360,144932,1309
1783334329810259333,2026-07-06T17:38:49.810+07:00,540195909320275505,172632,187271,144840,1342
1783334329828441151,2026-07-06T17:38:49.828+07:00,540195909320275505,172548,187143,144835,1293
1783334329846622969,2026-07-06T17:38:49.846+07:00,540195909320275505,172476,187100,144742,1292
1783334329864804787,2026-07-06T17:38:49.864+07:00,540195909320275505,172506,186985,144758,1304
1783334329882986605,2026-07-06T17:38:49.882+07:00,540195909320275505,172488,186915,144755,1284
1783334329901168423,2026-07-06T17:38:49.901+07:00,540195909320275505,172416,186923,144746,1225
1783334329919350241,2026-07-06T17:38:49.919+07:00,540195909320275505,172503,186992,144782,1339
1783334329937532059,2026-07-06T17:38:49.937+07:00,540195909320275505,172505,186948,144805,1296
1783334329955713877,2026-07-06T17:38:49.955+07:00,540195909320275505,172462,186940,144748,1262
1783334329973895695,2026-07-06T17:38:49.973+07:00,540195909320275505,172442,186852,144804,1303
1783334329992077513,2026-07-06T17:38:49.992+07:00,540195909320275505,172393,186835,144806,1325
1783334330010259331,2026-07-06T17:38:50.010+07:00,540195909320275505,172422,186808,144750,1301
1783334330028441149,2026-07-06T17:38:50.028+07:00,540195909320275505,172422,186838,144809,1322
1783334330046622967,2026-07-06T17:38:50.046+07:00,540195909320275505,172401,186749,144789,1255
1783334330064804785,2026-07-06T17:38:50.064+07:00,540195909320275505,172418,186754,144794,1289
1783334330082986603,2026-07-06T17:38:50.082+07:00,540195909320275505,172428,186737,144824,1326
1783334330101168421,2026-07-06T17:38:50.101+07:00,540195909320275505,172400,186747,144811,1325
1783334330119350239,2026-07-06T17:38:50.119+07:00,540195909320275505,172397,186770,144847,1306
1783334330137532057,2026-07-06T17:38:50.137+07:00,540195909320275505,172320,186737,144813,1260
1783334330155713875,2026-07-06T17:38:50.155+07:00,540195909320275505,172408,186757,144857,1345
1783334330173895693,2026-07-06T17:38:50.173+07:00,540195909320275505,172367,186757,144816,1336
1783334330192077511,2026-07-06T17:38:50.192+07:00,540195909320275505,172419,186821,144879,1331
1783334330210259329,2026-07-06T17:38:50.210+07:00,540195909320275505,172423,186763,144895,1242
1783334330228441147,2026-07-06T17:38:50.228+07:00,540195909320275505,172493,186809,144960,1340
1783334330246622965,2026-07-06T17:38:50.246+07:00,540195909320275505,172504,186822,144938,1296
1783334330264804783,2026-07-06T17:38:50.264+07:00,540195909320275505,172507,186841,144958,1263
1783334330282986601,2026-07-06T17:38:50.282+07:00,540195909320275505,172544,186801,144974,1291
1783334330301168419,2026-07-06T17:38:50.301+07:00,540195909320275505,172596,186869,144990,1289
1783334330319350237,2026-07-06T17:38:50.319+07:00,540195910084553037,172636,187020,145139,1351
1783334330337532055,2026-07-06T17:38:50.337+07:00,540195910084553037,172677,187011,145141,1340
1783334330355713873,2026-07-06T17:38:50.355+07:00,540195910084553037,172702,187117,145215,1342
1783334330373895691,2026-07-06T17:38:50.373+07:00,540195910084553037,172723,187097,145225,1320
1783334330392077509,2026-07-06T17:38:50.392+07:00,540195910084553037,172681,187061,145190,1359
1783334330410259327,2026-07-06T17:38:50.410+07:00,540195910084553037,172663,186939,145116,1331
1783334330428441145,2026-07-06T17:38:50.428+07:00,540195910084553037,172543,186790,145036,1308
1783334330446622963,2026-07-06T17:38:50.446+07:00,540195910084553037,172410,186618,144891,1285
1783334330464804781,2026-07-06T17:38:50.464+07:00,540195910084553037,172359,186431,144768,1305
1783334330482986599,2026-07-06T17:38:50.482+07:00,540195910084553037,172189,186225,144674,1325
1783334330501168417,2026-07-06T17:38:50.501+07:00,540195910084553037,171995,186021,144539,1263
1783334330519350235,2026-07-06T17:38:50.519+07:00,540195910084553037,171885,185861,144404,1267
1783334330537532053,2026-07-06T17:38:50.537+07:00,540195910084553037,171839,185766,144306,1291
1783334330555713871,2026-07-06T17:38:50.555+07:00,540195910084553037,171729,185610,144229,1274
1783334330573895689,2026-07-06T17:38:50.573+07:00,540195910084553037,171678,185557,144254,1290
1783334330592077507,2026-07-06T17:38:50.592+07:00,540195910084553037,171693,185525,144284,1291
1783334330610259325,2026-07-06T17:38:50.610+07:00,540195910084553037,171676,185442,144205,1258
1783334330628441143,2026-07-06T17:38:50.628+07:00,540195910084553037,171599,185435,144206,1266
1783334330646622961,2026-07-06T17:38:50.646+07:00,540195910084553037,171573,185389,144187,1275
1783334330664804779,2026-07-06T17:38:50.664+07:00,540195910084553037,171566,185393,144164,1340
1783334330682986597,2026-07-06T17:38:50.682+07:00,540195910084553037,171570,185353,144207,1344
1783334330701168415,2026-07-06T17:38:50.701+07:00,540195910084553037,171516,185252,144264,1382
1783334330719350233,2026-07-06T17:38:50.719+07:00,540195910084553037,171495,185217,144189,1315
1783334330737532051,2026-07-06T17:38:50.737+07:00,540195910084553037,171416,185149,144051,1297
1783334330755713869,2026-07-06T17:38:50.755+07:00,540195910084553037,171440,185040,143990,1281
1783334330773895687,2026-07-06T17:38:50.773+07:00,540195910084553037,171354,185004,143990,1246
1783334330792077505,2026-07-06T17:38:50.792+07:00,540195910084553037,171293,184913,143888,1235
1783334330810259323,2026-07-06T17:38:50.810+07:00,540195910084553037,171298,184949,143917,1267
1783334330828441141,2026-07-06T17:38:50.828+07:00,540195910084553037,171365,184945,143952,1318
1783334330846622959,2026-07-06T17:38:50.846+07:00,540195910084553037,171296,184895,143833,1248
1783334330864804777,2026-07-06T17:38:50.864+07:00,540195910084553037,171303,184948,143963,1290
1783334330882986595,2026-07-06T17:38:50.882+07:00,540195910084553037,171327,184929,143912,1260
1783334330901168413,2026-07-06T17:38:50.901+07:00,540195910084553037,171380,184945,144015,1307
1783334330919350231,2026-07-06T17:38:50.919+07:00,540195910084553037,171429,184994,144083,1317
1783334330937532049,2026-07-06T17:38:50.937+07:00,540195910084553037,171427,185025,144058,1336
1783334330955713867,2026-07-06T17:38:50.955+07:00,540195910084553037,171439,185074,143999,1297
1783334330973895685,2026-07-06T17:38:50.973+07:00,540195910084553037,171427,185085,144031,1283
1783334330992077503,2026-07-06T17:38:50.992+07:00,540195910084553037,171491,185065,144016,1313
1783334331010259321,2026-07-06T17:38:51.010+07:00,540195910084553037,171514,185121,144102,1282
1783334331028441139,2026-07-06T17:38:51.028+07:00,540195910084553037,171553,185115,144119,1279
1783334331046622957,2026-07-06T17:38:51.046+07:00,540195910084553037,171606,185222,144138,1283
1783334331064804775,2026-07-06T17:38:51.064+07:00,540195910084553037,171638,185250,144132,1285
1783334331082986593,2026-07-06T17:38:51.082+07:00,540195910848830569,171700,185356,144176,1370
1783334331101168411,2026-07-06T17:38:51.101+07:00,540195910848830569,171631,185244,144088,1332
1783334331119350229,2026-07-06T17:38:51.119+07:00,540195910848830569,171594,185188,144008,1325
1783334331137532047,2026-07-06T17:38:51.137+07:00,540195910848830569,171480,185001,143897,1274
1783334331155713865,2026-07-06T17:38:51.155+07:00,540195910848830569,171310,184867,143747,1238
1783334331173895683,2026-07-06T17:38:51.173+07:00,540195910848830569,171128,184720,143637,1279
1783334331192077501,2026-07-06T17:38:51.192+07:00,540195910848830569,171063,184525,143478,1303
1783334331210259319,2026-07-06T17:38:51.210+07:00,540195910848830569,170974,184381,143370,1288
1783334331228441137,2026-07-06T17:38:51.228+07:00,540195910848830569,170860,184295,143329,1228
1783334331246622955,2026-07-06T17:38:51.246+07:00,540195910848830569,170854,184172,143253,1288
1783334331264804773,2026-07-06T17:38:51.264+07:00,540195910848830569,170712,184068,143182,1274
1783334331282986591,2026-07-06T17:38:51.282+07:00,540195910848830569,170718,184030,143086,1285
1783334331301168409,2026-07-06T17:38:51.301+07:00,540195910848830569,170664,183963,143048,1272
1783334331319350227,2026-07-06T17:38:51.319+07:00,540195910848830569,170657,183937,143059,1260
1783334331337532045,2026-07-06T17:38:51.337+07:00,540195910848830569,170599,183858,142986,1239
1783334331355713863,2026-07-06T17:38:51.355+07:00,540195910848830569,170622,183874,142990,1274
1783334331373895681,2026-07-06T17:38:51.373+07:00,540195910848830569,170616,183820,142966,1276
1783334331392077499,2026-07-06T17:38:51.392+07:00,540195910848830569,170527,183790,142892,1286
1783334331410259317,2026-07-06T17:38:51.410+07:00,540195910848830569,170631,183825,142969,1355
1783334331428441135,2026-07-06T17:38:51.428+07:00,540195910848830569,170502,183699,142872,1352
1783334331446622953,2026-07-06T17:38:51.446+07:00,540195910848830569,170391,183654,142882,1325
1783334331464804771,2026-07-06T17:38:51.464+07:00,540195910848830569,170306,183581,142790,1285
1783334331482986589,2026-07-06T17:38:51.482+07:00,540195910848830569,170291,183507,142747,1339
1783334331501168407,2026-07-06T17:38:51.501+07:00,540195910848830569,170330,183480,142703,1284
1783334331519350225,2026-07-06T17:38:51.519+07:00,540195910848830569,170227,183346,142598,1291
1783334331537532043,2026-07-06T17:38:51.537+07:00,540195910848830569,170228,183349,142698,1308
1783334331555713861,2026-07-06T17:38:51.555+07:00,540195910848830569,170205,183383,142755,1263
1783334331573895679,2026-07-06T17:38:51.573+07:00,540195910848830569,170177,183382,142764,1291
1783334331592077497,2026-07-06T17:38:51.592+07:00,540195910848830569,170152,183357,142715,1265
1783334331610259315,2026-07-06T17:38:51.610+07:00,540195910848830569,170081,183271,142703,1248
1783334331628441133,2026-07-06T17:38:51.628+07:00,540195910848830569,170138,183311,142753,1293
1783334331646622951,2026-07-06T17:38:51.646+07:00,540195910848830569,170107,183314,142765,1258
1783334331664804769,2026-07-06T17:38:51.664+07:00,540195910848830569,170130,183305,142754,1263
1783334331682986587,2026-07-06T17:38:51.682+07:00,540195910848830569,170116,183330,142789,1241
1783334331701168405,2026-07-06T17:38:51.701+07:00,540195910848830569,170120,183491,142735,1275
1783334331719350223,2026-07-06T17:38:51.719+07:00,540195910848830569,170184,183571,142769,1235
1783334331737532041,2026-07-06T17:38:51.737+07:00,540195910848830569,170252,183629,142803,1287
1783334331755713859,2026-07-06T17:38:51.755+07:00,540195910848830569,170251,183668,142827,1255
1783334331773895677,2026-07-06T17:38:51.773+07:00,540195910848830569,170229,183680,142802,1272
1783334331792077495,2026-07-06T17:38:51.792+07:00,540195910848830569,170223,183619,142730,1306
1783334331810259313,2026-07-06T17:38:51.810+07:00,540195910848830569,170152,183505,142584,1338
1783334331828441131,2026-07-06T17:38:51.828+07:00,540195910848830569,170002,183426,142411,1290
1783334331846622949,2026-07-06T17:38:51.846+07:00,540195911704126518,169978,183261,142289,1281
1783334331864804767,2026-07-06T17:38:51.864+07:00,540195911704126518,169784,183127,142148,1270
1783334331882986585,2026-07-06T17:38:51.882+07:00,540195911704126518,169735,183049,142066,1305
1783334331901168403,2026-07-06T17:38:51.901+07:00,540195911704126518,169663,183001,141956,1272
1783334331919350221,2026-07-06T17:38:51.919+07:00,540195911704126518,169670,182934,141906,1307
1783334331937532039,2026-07-06T17:38:51.937+07:00,540195911704126518,169697,182961,141888,1286
1783334331955713857,2026-07-06T17:38:51.955+07:00,540195911704126518,169606,182917,141799,1238
1783334331973895675,2026-07-06T17:38:51.973+07:00,540195911704126518,169730,183015,141893,1255
1783334331992077493,2026-07-06T17:38:51.992+07:00,540195911704126518,169716,183047,141868,1272
1783334332010259311,2026-07-06T17:38:52.010+07:00,540195911704126518,169783,183087,141933,1274
1783334332028441129,2026-07-06T17:38:52.028+07:00,540195911704126518,169882,183213,142009,1297
1783334332046622947,2026-07-06T17:38:52.046+07:00,540195911704126518,169840,183150,141953,1252
1783334332064804765,2026-07-06T17:38:52.064+07:00,540195911704126518,169817,183176,142043,1339
1783334332082986583,2026-07-06T17:38:52.082+07:00,540195911704126518,169811,183174,141980,1306
1783334332101168401,2026-07-06T17:38:52.101+07:00,540195911704126518,169844,183180,141985,1296
1783334332119350219,2026-07-06T17:38:52.119+07:00,540195911704126518,169772,183188,141891,1296
1783334332137532037,2026-07-06T17:38:52.137+07:00,540195911704126518,169803,183183,141906,1257
1783334332155713855,2026-07-06T17:38:52.155+07:00,540195911704126518,169810,183261,141858,1304
1783334332173895673,2026-07-06T17:38:52.173+07:00,540195911704126518,169806,183270,141885,1307
1783334332192077491,2026-07-06T17:38:52.192+07:00,540195911704126518,169867,183239,141899,1222
1783334332210259309,2026-07-06T17:38:52.210+07:00,540195911704126518,169823,183293,141889,1269
1783334332228441127,2026-07-06T17:38:52.228+07:00,540195911704126518,169833,183334,141905,1300
1783334332246622945,2026-07-06T17:38:52.246+07:00,540195911704126518,169857,183360,141947,1215
1783334332264804763,2026-07-06T17:38:52.264+07:00,540195911704126518,169872,183362,142033,1270
1783334332282986581,2026-07-06T17:38:52.282+07:00,540195911704126518,169840,183435,142033,1215
1783334332301168399,2026-07-06T17:38:52.301+07:00,540195911704126518,169793,183364,142007,1238
1783334332319350217,2026-07-06T17:38:52.319+07:00,540195911704126518,169780,183358,141956,1225
1783334332337532035,2026-07-06T17:38:52.337+07:00,540195911704126518,169705,183255,141954,1252
1783334332355713853,2026-07-06T17:38:52.355+07:00,540195911704126518,169671,183202,141942,1249
1783334332373895671,2026-07-06T17:38:52.373+07:00,540195911704126518,169631,183155,141949,1220
1783334332392077489,2026-07-06T17:38:52.392+07:00,540195911704126518,169619,183103,141926,1236
1783334332410259307,2026-07-06T17:38:52.410+07:00,540195911704126518,169580,183144,141968,1268
1783334332428441125,2026-07-06T17:38:52.428+07:00,540195911704126518,169535,183039,141880,1308
1783334332446622943,2026-07-06T17:38:52.446+07:00,540195911704126518,169434,182903,141801,1287
1783334332464804761,2026-07-06T17:38:52.464+07:00,540195911704126518,169254,182774,141731,1250
1783334332482986579,2026-07-06T17:38:52.482+07:00,540195911704126518,169118,182590,141629,1321
1783334332501168397,2026-07-06T17:38:52.501+07:00,540195911704126518,168877,182367,141479,1265
1783334332519350215,2026-07-06T17:38:52.519+07:00,540195911704126518,168707,182208,141336,1241
1783334332537532033,2026-07-06T17:38:52.537+07:00,540195911704126518,168668,182092,141258,1318
1783334332555713851,2026-07-06T17:38:52.555+07:00,540195911704126518,168518,181998,141176,1286
1783334332573895669,2026-07-06T17:38:52.573+07:00,540195911704126518,168402,181721,141100,1300
1783334332592077487,2026-07-06T17:38:52.592+07:00,540195911704126518,168325,181722,141076,1323
1783334332610259305,2026-07-06T17:38:52.610+07:00,540195911704126518,168278,181620,141033,1328
1783334332628441123,2026-07-06T17:38:52.628+07:00,540195911704126518,168124,181574,141042,1293
1783334332646622941,2026-07-06T17:38:52.646+07:00,540195911704126518,168090,181602,140971,1303
1783334332664804759,2026-07-06T17:38:52.664+07:00,540195911704126518,168054,181553,140924,1293
1783334332682986577,2026-07-06T17:38:52.682+07:00,540195911704126518,168036,181515,140887,1224
1783334332701168395,2026-07-06T17:38:52.701+07:00,540195912504802868,167991,181505,140936,1241
1783334332719350213,2026-07-06T17:38:52.719+07:00,540195912504802868,167958,181401,140863,1262
1783334332737532031,2026-07-06T17:38:52.737+07:00,540195912504802868,167908,181403,140850,1272
1783334332755713849,2026-07-06T17:38:52.755+07:00,540195912504802868,167854,181317,140799,1296
1783334332773895667,2026-07-06T17:38:52.773+07:00,540195912504802868,167772,181278,140828,1246
1783334332792077485,2026-07-06T17:38:52.792+07:00,540195912504802868,167739,181195,140749,1213
1783334332810259303,2026-07-06T17:38:52.810+07:00,540195912504802868,167742,181226,140672,1225
1783334332828441121,2026-07-06T17:38:52.828+07:00,540195912504802868,167776,181261,140687,1273
1783334332846622939,2026-07-06T17:38:52.846+07:00,540195912504802868,167767,181332,140686,1283
1783334332864804757,2026-07-06T17:38:52.864+07:00,540195912504802868,167789,181395,140727,1272
1783334332882986575,2026-07-06T17:38:52.882+07:00,540195912504802868,167753,181423,140726,1280
1783334332901168393,2026-07-06T17:38:52.901+07:00,540195912504802868,167824,181414,140748,1255
1783334332919350211,2026-07-06T17:38:52.919+07:00,540195912504802868,167853,181366,140697,1245
1783334332937532029,2026-07-06T17:38:52.937+07:00,540195912504802868,167787,181293,140638,1243
1783334332955713847,2026-07-06T17:38:52.955+07:00,540195912504802868,167840,181317,140672,1338
1783334332973895665,2026-07-06T17:38:52.973+07:00,540195912504802868,167764,181320,140639,1292
1783334332992077483,2026-07-06T17:38:52.992+07:00,540195912504802868,167722,181251,140607,1190
1783334333010259301,2026-07-06T17:38:53.010+07:00,540195912504802868,167782,181306,140675,1260
1783334333028441119,2026-07-06T17:38:53.028+07:00,540195912504802868,167801,181372,140612,1223
1783334333046622937,2026-07-06T17:38:53.046+07:00,540195912504802868,167821,181434,140630,1265
1783334333064804755,2026-07-06T17:38:53.064+07:00,540195912504802868,167946,181606,140675,1298
1783334333082986573,2026-07-06T17:38:53.082+07:00,540195912504802868,168094,181747,140788,1290
1783334333101168391,2026-07-06T17:38:53.101+07:00,540195912504802868,168196,181890,140869,1272
1783334333119350209,2026-07-06T17:38:53.119+07:00,540195912504802868,168161,181918,140807,1263
1783334333137532027,2026-07-06T17:38:53.137+07:00,540195912504802868,168199,181981,140802,1301
1783334333155713845,2026-07-06T17:38:53.155+07:00,540195912504802868,168150,181893,140742,1291
1783334333173895663,2026-07-06T17:38:53.173+07:00,540195912504802868,168109,181928,140721,1297
1783334333192077481,2026-07-06T17:38:53.192+07:00,540195912504802868,168015,181893,140598,1290
1783334333210259299,2026-07-06T17:38:53.210+07:00,540195912504802868,168006,181853,140523,1285
1783334333228441117,2026-07-06T17:38:53.228+07:00,540195912504802868,167950,181882,140476,1303
1783334333246622935,2026-07-06T17:38:53.246+07:00,540195912504802868,167965,181871,140410,1277
1783334333264804753,2026-07-06T17:38:53.264+07:00,540195912504802868,167960,181904,140429,1271
1783334333282986571,2026-07-06T17:38:53.282+07:00,540195912504802868,168020,182006,140450,1318
1783334333301168389,2026-07-06T17:38:53.301+07:00,540195912504802868,168025,182074,140480,1347
1783334333319350207,2026-07-06T17:38:53.319+07:00,540195912504802868,168055,182099,140531,1303
1783334333337532025,2026-07-06T17:38:53.337+07:00,540195912504802868,168072,182165,140519,1307
1783334333355713843,2026-07-06T17:38:53.355+07:00,540195912504802868,168159,182336,140608,1294
1783334333373895661,2026-07-06T17:38:53.373+07:00,540195912504802868,168204,182340,140642,1253
1783334333392077479,2026-07-06T17:38:53.392+07:00,540195912504802868,168243,182426,140691,1237
1783334333410259297,2026-07-06T17:38:53.410+07:00,540195912504802868,168243,182466,140724,1258
1783334333428441115,2026-07-06T17:38:53.428+07:00,540195912504802868,168324,182561,140740,1270
1783334333446622933,2026-07-06T17:38:53.446+07:00,540195912504802868,168297,182542,140717,1285
1783334333464804751,2026-07-06T17:38:53.464+07:00,540195912504802868,168272,182541,140755,1219
1783334333482986569,2026-07-06T17:38:53.482+07:00,540195912504802868,168309,182574,140772,1282
1783334333501168387,2026-07-06T17:38:53.501+07:00,540195913287295067,168270,182603,140772,1326
1783334333519350205,2026-07-06T17:38:53.519+07:00,540195913287295067,168214,182504,140746,1307
1783334333537532023,2026-07-06T17:38:53.537+07:00,540195913287295067,168232,182522,140771,1305
1783334333555713841,2026-07-06T17:38:53.555+07:00,540195913287295067,168260,182628,140853,1293
1783334333573895659,2026-07-06T17:38:53.573+07:00,540195913287295067,168292,182619,140886,1300
1783334333592077477,2026-07-06T17:38:53.592+07:00,540195913287295067,168246,182616,140847,1226
1783334333610259295,2026-07-06T17:38:53.610+07:00,540195913287295067,168247,182634,140917,1225
1783334333628441113,2026-07-06T17:38:53.628+07:00,540195913287295067,168229,182665,140895,1272
1783334333646622931,2026-07-06T17:38:53.646+07:00,540195913287295067,168199,182683,140923,1273
1783334333664804749,2026-07-06T17:38:53.664+07:00,540195913287295067,168317,182754,140959,1255
1783334333682986567,2026-07-06T17:38:53.682+07:00,540195913287295067,168283,182836,141049,1230
1783334333701168385,2026-07-06T17:38:53.701+07:00,540195913287295067,168342,182889,141070,1224
1783334333719350203,2026-07-06T17:38:53.719+07:00,540195913287295067,168409,182980,141141,1266
1783334333737532021,2026-07-06T17:38:53.737+07:00,540195913287295067,168512,183065,141240,1291
1783334333755713839,2026-07-06T17:38:53.755+07:00,540195913287295067,168492,183078,141244,1221
1783334333773895657,2026-07-06T17:38:53.773+07:00,540195913287295067,168563,183190,141367,1241
1783334333792077475,2026-07-06T17:38:53.792+07:00,540195913287295067,168607,183210,141359,1306
1783334333810259293,2026-07-06T17:38:53.810+07:00,540195913287295067,168475,183146,141343,1233
1783334333828441111,2026-07-06T17:38:53.828+07:00,540195913287295067,168393,183084,141234,1246
1783334333846622929,2026-07-06T17:38:53.846+07:00,540195913287295067,168340,183031,141262,1233
1783334333864804747,2026-07-06T17:38:53.864+07:00,540195913287295067,168291,182995,141168,1230
1783334333882986565,2026-07-06T17:38:53.882+07:00,540195913287295067,168191,182976,141160,1253
1783334333901168383,2026-07-06T17:38:53.901+07:00,540195913287295067,168128,182933,141198,1294
1783334333919350201,2026-07-06T17:38:53.919+07:00,540195913287295067,168084,182875,141112,1263
1783334333937532019,2026-07-06T17:38:53.937+07:00,540195913287295067,168077,182878,141148,1251
1783334333955713837,2026-07-06T17:38:53.955+07:00,540195913287295067,168112,182878,141146,1259
1783334333973895655,2026-07-06T17:38:53.973+07:00,540195913287295067,168172,182961,141229,1294
1783334333992077473,2026-07-06T17:38:53.992+07:00,540195913287295067,168190,183057,141279,1316
1783334334010259291,2026-07-06T17:38:54.010+07:00,540195913287295067,168241,183132,141268,1259
1783334334028441109,2026-07-06T17:38:54.028+07:00,540195913287295067,168246,183220,141388,1242
1783334334046622927,2026-07-06T17:38:54.046+07:00,540195913287295067,168357,183320,141465,1241
1783334334064804745,2026-07-06T17:38:54.064+07:00,540195913287295067,168366,183424,141455,1209
1783334334082986563,2026-07-06T17:38:54.082+07:00,540195913287295067,168420,183510,141458,1237
1783334334101168381,2026-07-06T17:38:54.101+07:00,540195913287295067,168521,183624,141581,1237
1783334334119350199,2026-07-06T17:38:54.119+07:00,540195913287295067,168519,183614,141542,1255
1783334334137532017,2026-07-06T17:38:54.137+07:00,540195913287295067,168603,183697,141628,1297
1783334334155713835,2026-07-06T17:38:54.155+07:00,540195913287295067,168650,183809,141631,1292
1783334334173895653,2026-07-06T17:38:54.173+07:00,540195913287295067,168696,183894,141744,1246
1783334334192077471,2026-07-06T17:38:54.192+07:00,540195913287295067,168803,184032,141910,1293
1783334334210259289,2026-07-06T17:38:54.210+07:00,540195913287295067,168855,184251,142022,1310
1783334334228441107,2026-07-06T17:38:54.228+07:00,540195913287295067,169024,184445,142117,1256
1783334334246622925,2026-07-06T17:38:54.246+07:00,540195913287295067,169169,184706,142256,1282
1783334334264804743,2026-07-06T17:38:54.264+07:00,540195913287295067,169287,184900,142364,1284
1783334334282986561,2026-07-06T17:38:54.282+07:00,540195914069790320,169423,185072,142511,1282
1783334334301168379,2026-07-06T17:38:54.301+07:00,540195914069790320,169540,185218,142578,1228
1783334334319350197,2026-07-06T17:38:54.319+07:00,540195914069790320,169642,185301,142687,1251
1783334334337532015,2026-07-06T17:38:54.337+07:00,540195914069790320,169707,185474,142732,1279
1783334334355713833,2026-07-06T17:38:54.355+07:00,540195914069790320,169800,185524,142751,1246
1783334334373895651,2026-07-06T17:38:54.373+07:00,540195914069790320,169935,185636,142843,1258
1783334334392077469,2026-07-06T17:38:54.392+07:00,540195914069790320,170016,185668,142883,1256
1783334334410259287,2026-07-06T17:38:54.410+07:00,540195914069790320,170052,185733,142896,1264
1783334334428441105,2026-07-06T17:38:54.428+07:00,540195914069790320,170067,185743,142908,1289
1783334334446622923,2026-07-06T17:38:54.446+07:00,540195914069790320,170047,185716,142867,1255
1783334334464804741,2026-07-06T17:38:54.464+07:00,540195914069790320,170036,185803,142848,1299
1783334334482986559,2026-07-06T17:38:54.482+07:00,540195914069790320,169994,185735,142884,1232
1783334334501168377,2026-07-06T17:38:54.501+07:00,540195914069790320,169995,185718,142889,1283
1783334334519350195,2026-07-06T17:38:54.519+07:00,540195914069790320,169935,185722,142790,1204
1783334334537532013,2026-07-06T17:38:54.537+07:00,540195914069790320,169922,185787,142901,1299
1783334334555713831,2026-07-06T17:38:54.555+07:00,540195914069790320,170000,185823,142972,1258
1783334334573895649,2026-07-06T17:38:54.573+07:00,540195914069790320,169998,185840,142984,1291
1783334334592077467,2026-07-06T17:38:54.592+07:00,540195914069790320,170021,185904,143018,1273
1783334334610259285,2026-07-06T17:38:54.610+07:00,540195914069790320,170036,185916,143030,1229
1783334334628441103,2026-07-06T17:38:54.628+07:00,540195914069790320,170117,186039,143080,1262
1783334334646622921,2026-07-06T17:38:54.646+07:00,540195914069790320,170158,186107,143150,1223
1783334334664804739,2026-07-06T17:38:54.664+07:00,540195914069790320,170198,186164,143202,1237
1783334334682986557,2026-07-06T17:38:54.682+07:00,540195914069790320,170232,186292,143211,1253
1783334334701168375,2026-07-06T17:38:54.701+07:00,540195914069790320,170341,186383,143248,1254
1783334334719350193,2026-07-06T17:38:54.719+07:00,540195914069790320,170394,186419,143303,1274
1783334334737532011,2026-07-06T17:38:54.737+07:00,540195914069790320,170432,186568,143391,1313
1783334334755713829,2026-07-06T17:38:54.755+07:00,540195914069790320,170446,186565,143407,1251
1783334334773895647,2026-07-06T17:38:54.773+07:00,540195914069790320,170547,186649,143469,1296
1783334334792077465,2026-07-06T17:38:54.792+07:00,540195914069790320,170534,186791,143518,1286
1783334334810259283,2026-07-06T17:38:54.810+07:00,540195914069790320,170697,186950,143611,1283
1783334334828441101,2026-07-06T17:38:54.828+07:00,540195914069790320,170770,187029,143655,1239
1783334334846622919,2026-07-06T17:38:54.846+07:00,540195914069790320,170791,187150,143721,1221
1783334334864804737,2026-07-06T17:38:54.864+07:00,540195914069790320,170902,187302,143802,1288
1783334334882986555,2026-07-06T17:38:54.882+07:00,540195914069790320,171003,187390,143836,1243
1783334334901168373,2026-07-06T17:38:54.901+07:00,540195914069790320,171109,187478,143931,1254
1783334334919350191,2026-07-06T17:38:54.919+07:00,540195914069790320,171124,187581,144028,1264
1783334334937532009,2026-07-06T17:38:54.937+07:00,540195914069790320,171262,187752,144135,1284
1783334334955713827,2026-07-06T17:38:54.955+07:00,540195914069790320,171336,187835,144146,1256
1783334334973895645,2026-07-06T17:38:54.973+07:00,540195914069790320,171405,187982,144271,1289
1783334334992077463,2026-07-06T17:38:54.992+07:00,540195914069790320,171539,188055,144363,1250
1783334335010259281,2026-07-06T17:38:55.010+07:00,540195914069790320,171590,188148,144377,1246
1783334335028441099,2026-07-06T17:38:55.028+07:00,540195914069790320,171673,188253,144505,1274
1783334335046622917,2026-07-06T17:38:55.046+07:00,540195914069790320,171825,188377,144513,1236
1783334335064804735,2026-07-06T17:38:55.064+07:00,540195914834046488,171865,188464,144566,1221
1783334335082986553,2026-07-06T17:38:55.082+07:00,540195914834046488,171891,188512,144643,1263
1783334335101168371,2026-07-06T17:38:55.101+07:00,540195914834046488,171877,188583,144592,1195
1783334335119350189,2026-07-06T17:38:55.119+07:00,540195914834046488,171897,188530,144614,1186
1783334335137532007,2026-07-06T17:38:55.137+07:00,540195914834046488,171887,188551,144686,1254
1783334335155713825,2026-07-06T17:38:55.155+07:00,540195914834046488,171891,188576,144587,1277
1783334335173895643,2026-07-06T17:38:55.173+07:00,540195914834046488,171926,188618,144596,1311
1783334335192077461,2026-07-06T17:38:55.192+07:00,540195914834046488,171918,188653,144612,1293
1783334335210259279,2026-07-06T17:38:55.210+07:00,540195914834046488,171919,188666,144606,1290
1783334335228441097,2026-07-06T17:38:55.228+07:00,540195914834046488,171934,188742,144670,1283
1783334335246622915,2026-07-06T17:38:55.246+07:00,540195914834046488,171973,188819,144701,1254
1783334335264804733,2026-07-06T17:38:55.264+07:00,540195914834046488,172047,188929,144707,1247
1783334335282986551,2026-07-06T17:38:55.282+07:00,540195914834046488,172096,188992,144735,1224
1783334335301168369,2026-07-06T17:38:55.301+07:00,540195914834046488,172207,189052,144773,1268
1783334335319350187,2026-07-06T17:38:55.319+07:00,540195914834046488,172264,189101,144802,1221
1783334335337532005,2026-07-06T17:38:55.337+07:00,540195914834046488,172367,189280,144860,1254
1783334335355713823,2026-07-06T17:38:55.355+07:00,540195914834046488,172401,189396,144975,1250
1783334335373895641,2026-07-06T17:38:55.373+07:00,540195914834046488,172490,189511,145073,1307
1783334335392077459,2026-07-06T17:38:55.392+07:00,540195914834046488,172571,189591,145112,1284
1783334335410259277,2026-07-06T17:38:55.410+07:00,540195914834046488,172623,189783,145242,1259
1783334335428441095,2026-07-06T17:38:55.428+07:00,540195914834046488,172731,189881,145318,1259
1783334335446622913,2026-07-06T17:38:55.446+07:00,540195914834046488,172848,190002,145335,1232
1783334335464804731,2026-07-06T17:38:55.464+07:00,540195914834046488,172895,190139,145425,1266
1783334335482986549,2026-07-06T17:38:55.482+07:00,540195914834046488,173054,190264,145482,1268
1783334335501168367,2026-07-06T17:38:55.501+07:00,540195914834046488,173218,190435,145563,1276
1783334335519350185,2026-07-06T17:38:55.519+07:00,540195914834046488,173327,190610,145657,1314
1783334335537532003,2026-07-06T17:38:55.537+07:00,540195914834046488,173334,190733,145702,1289
1783334335555713821,2026-07-06T17:38:55.555+07:00,540195914834046488,173462,190920,145786,1265
1783334335573895639,2026-07-06T17:38:55.573+07:00,540195914834046488,173594,191049,145924,1339
1783334335592077457,2026-07-06T17:38:55.592+07:00,540195914834046488,173771,191199,145975,1358
1783334335610259275,2026-07-06T17:38:55.610+07:00,540195914834046488,173841,191282,146032,1347
1783334335628441093,2026-07-06T17:38:55.628+07:00,540195914834046488,173884,191366,146099,1326
1783334335646622911,2026-07-06T17:38:55.646+07:00,540195914834046488,173962,191403,146116,1291
1783334335664804729,2026-07-06T17:38:55.664+07:00,540195914834046488,174075,191529,146117,1253
1783334335682986547,2026-07-06T17:38:55.682+07:00,540195914834046488,174115,191674,146194,1345
1783334335701168365,2026-07-06T17:38:55.701+07:00,540195914834046488,174160,191735,146260,1304
1783334335719350183,2026-07-06T17:38:55.719+07:00,540195914834046488,174235,191850,146322,1283
1783334335737532001,2026-07-06T17:38:55.737+07:00,540195914834046488,174226,191851,146242,1246
1783334335755713819,2026-07-06T17:38:55.755+07:00,540195914834046488,174242,191897,146234,1286
1783334335773895637,2026-07-06T17:38:55.773+07:00,540195914834046488,174271,191949,146236,1286
1783334335792077455,2026-07-06T17:38:55.792+07:00,540195914834046488,174280,191942,146256,1288
1783334335810259273,2026-07-06T17:38:55.810+07:00,540195914834046488,174289,192063,146317,1317
1783334335828441091,2026-07-06T17:38:55.828+07:00,540195915598351488,174290,192133,146257,1279
1783334335846622909,2026-07-06T17:38:55.846+07:00,540195915598351488,174331,192220,146318,1293
1783334335864804727,2026-07-06T17:38:55.864+07:00,540195915598351488,174430,192330,146403,1272
1783334335882986545,2026-07-06T17:38:55.882+07:00,540195915598351488,174422,192332,146421,1281
1783334335901168363,2026-07-06T17:38:55.901+07:00,540195915598351488,174533,192451,146433,1318
1783334335919350181,2026-07-06T17:38:55.919+07:00,540195915598351488,174540,192529,146507,1281
1783334335937531999,2026-07-06T17:38:55.937+07:00,540195915598351488,174553,192536,146524,1249
1783334335955713817,2026-07-06T17:38:55.955+07:00,540195915598351488,174666,192661,146588,1277
1783334335973895635,2026-07-06T17:38:55.973+07:00,540195915598351488,174752,192784,146644,1264
1783334335992077453,2026-07-06T17:38:55.992+07:00,540195915598351488,174768,192867,146706,1313
1783334336010259271,2026-07-06T17:38:56.010+07:00,540195915598351488,174829,192988,146765,1280
1783334336028441089,2026-07-06T17:38:56.028+07:00,540195915598351488,174917,193059,146851,1334
1783334336046622907,2026-07-06T17:38:56.046+07:00,540195915598351488,175001,193188,146911,1306
1783334336064804725,2026-07-06T17:38:56.064+07:00,540195915598351488,175100,193280,146922,1282
1783334336082986543,2026-07-06T17:38:56.082+07:00,540195915598351488,175134,193466,147027,1311
1783334336101168361,2026-07-06T17:38:56.101+07:00,540195915598351488,175269,193603,147031,1237
1783334336119350179,2026-07-06T17:38:56.119+07:00,540195915598351488,175275,193691,147079,1279
1783334336137531997,2026-07-06T17:38:56.137+07:00,540195915598351488,175397,193806,147190,1240
1783334336155713815,2026-07-06T17:38:56.155+07:00,540195915598351488,175443,193869,147191,1224
1783334336173895633,2026-07-06T17:38:56.173+07:00,540195915598351488,175546,193961,147289,1288
1783334336192077451,2026-07-06T17:38:56.192+07:00,540195915598351488,175624,194040,147318,1298
1783334336210259269,2026-07-06T17:38:56.210+07:00,540195915598351488,175673,194066,147284,1282
1783334336228441087,2026-07-06T17:38:56.228+07:00,540195915598351488,175633,194122,147309,1279
1783334336246622905,2026-07-06T17:38:56.246+07:00,540195915598351488,175752,194220,147451,1309
1783334336264804723,2026-07-06T17:38:56.264+07:00,540195915598351488,175825,194296,147507,1293
1783334336282986541,2026-07-06T17:38:56.282+07:00,540195915598351488,175816,194371,147548,1276
1783334336301168359,2026-07-06T17:38:56.301+07:00,540195915598351488,175999,194568,147746,1309
1783334336319350177,2026-07-06T17:38:56.319+07:00,540195915598351488,176027,194615,147757,1304
1783334336337531995,2026-07-06T17:38:56.337+07:00,540195915598351488,176096,194686,147803,1292
1783334336355713813,2026-07-06T17:38:56.355+07:00,540195915598351488,176183,194782,147887,1273
1783334336373895631,2026-07-06T17:38:56.373+07:00,540195915598351488,176267,194922,147962,1268
1783334336392077449,2026-07-06T17:38:56.392+07:00,540195915598351488,176284,195014,148042,1308
1783334336410259267,2026-07-06T17:38:56.410+07:00,540195915598351488,176242,194975,148005,1298
1783334336428441085,2026-07-06T17:38:56.428+07:00,540195915598351488,176216,195026,147997,1302
1783334336446622903,2026-07-06T17:38:56.446+07:00,540195915598351488,176328,195093,148075,1356
1783334336464804721,2026-07-06T17:38:56.464+07:00,540195915598351488,176291,195151,148115,1293
1783334336482986539,2026-07-06T17:38:56.482+07:00,540195915598351488,176340,195153,148130,1318
1783334336501168357,2026-07-06T17:38:56.501+07:00,540195915598351488,176457,195278,148180,1350
1783334336519350175,2026-07-06T17:38:56.519+07:00,540195915598351488,176384,195246,148160,1306
1783334336537531993,2026-07-06T17:38:56.537+07:00,540195915598351488,176378,195281,148219,1249
1783334336555713811,2026-07-06T17:38:56.555+07:00,540195915598351488,176421,195308,148269,1247
1783334336573895629,2026-07-06T17:38:56.573+07:00,540195915598351488,176447,195345,148309,1303
1783334336592077447,2026-07-06T17:38:56.592+07:00,540195916344466231,176435,195304,148324,1258
1783334336610259265,2026-07-06T17:38:56.610+07:00,540195916344466231,176414,195272,148359,1290
1783334336628441083,2026-07-06T17:38:56.628+07:00,540195916344466231,176400,195226,148307,1254
1783334336646622901,2026-07-06T17:38:56.646+07:00,540195916344466231,176449,195265,148350,1273
1783334336664804719,2026-07-06T17:38:56.664+07:00,540195916344466231,176455,195429,148431,1256
1783334336682986537,2026-07-06T17:38:56.682+07:00,540195916344466231,176570,195606,148531,1271
1783334336701168355,2026-07-06T17:38:56.701+07:00,540195916344466231,176637,195670,148560,1288
1783334336719350173,2026-07-06T17:38:56.719+07:00,540195916344466231,176646,195741,148608,1296
1783334336737531991,2026-07-06T17:38:56.737+07:00,540195916344466231,176717,195756,148598,1294
1783334336755713809,2026-07-06T17:38:56.755+07:00,540195916344466231,176700,195773,148599,1257
1783334336773895627,2026-07-06T17:38:56.773+07:00,540195916344466231,176759,195781,148628,1260
1783334336792077445,2026-07-06T17:38:56.792+07:00,540195916344466231,176727,195788,148635,1264
1783334336810259263,2026-07-06T17:38:56.810+07:00,540195916344466231,176756,195741,148636,1310
1783334336828441081,2026-07-06T17:38:56.828+07:00,540195916344466231,176815,195765,148650,1335
1783334336846622899,2026-07-06T17:38:56.846+07:00,540195916344466231,176780,195789,148665,1294
1783334336864804717,2026-07-06T17:38:56.864+07:00,540195916344466231,176787,195793,148618,1255
1783334336882986535,2026-07-06T17:38:56.882+07:00,540195916344466231,176871,195889,148725,1250
1783334336901168353,2026-07-06T17:38:56.901+07:00,540195916344466231,176965,195919,148820,1276
1783334336919350171,2026-07-06T17:38:56.919+07:00,540195916344466231,177160,196160,148856,1287
1783334336937531989,2026-07-06T17:38:56.937+07:00,540195916344466231,177377,196400,149024,1325
1783334336955713807,2026-07-06T17:38:56.955+07:00,540195916344466231,177549,196603,149214,1330
1783334336973895625,2026-07-06T17:38:56.973+07:00,540195916344466231,177673,196919,149311,1315
1783334336992077443,2026-07-06T17:38:56.992+07:00,540195916344466231,177847,197078,149441,1315
1783334337010259261,2026-07-06T17:38:57.010+07:00,540195916344466231,177898,197178,149563,1321
1783334337028441079,2026-07-06T17:38:57.028+07:00,540195916344466231,177948,197324,149562,1288
1783334337046622897,2026-07-06T17:38:57.046+07:00,540195916344466231,177959,197342,149578,1238
1783334337064804715,2026-07-06T17:38:57.064+07:00,540195916344466231,177910,197450,149589,1315
1783334337082986533,2026-07-06T17:38:57.082+07:00,540195916344466231,177958,197489,149604,1276
1783334337101168351,2026-07-06T17:38:57.101+07:00,540195916344466231,177998,197583,149613,1321
1783334337119350169,2026-07-06T17:38:57.119+07:00,540195916344466231,178028,197555,149649,1255
1783334337137531987,2026-07-06T17:38:57.137+07:00,540195916344466231,178128,197648,149714,1337
1783334337155713805,2026-07-06T17:38:57.155+07:00,540195916344466231,178084,197657,149606,1276
1783334337173895623,2026-07-06T17:38:57.173+07:00,540195916344466231,178089,197608,149646,1305
1783334337192077441,2026-07-06T17:38:57.192+07:00,540195916344466231,178205,197620,149666,1335
1783334337210259259,2026-07-06T17:38:57.210+07:00,540195916344466231,178164,197608,149630,1313
1783334337228441077,2026-07-06T17:38:57.228+07:00,540195916344466231,178161,197606,149606,1268
1783334337246622895,2026-07-06T17:38:57.246+07:00,540195916344466231,178235,197689,149638,1318
1783334337264804713,2026-07-06T17:38:57.264+07:00,540195916344466231,178239,197698,149645,1327
1783334337282986531,2026-07-06T17:38:57.282+07:00,540195916344466231,178259,197639,149600,1276
1783334337301168349,2026-07-06T17:38:57.301+07:00,540195916344466231,178291,197634,149617,1270
1783334337319350167,2026-07-06T17:38:57.319+07:00,540195916344466231,178272,197594,149594,1284
1783334337337531985,2026-07-06T17:38:57.337+07:00,540195917126973700,178244,197701,149608,1248
1783334337355713803,2026-07-06T17:38:57.355+07:00,540195917126973700,178212,197625,149569,1243
1783334337373895621,2026-07-06T17:38:57.373+07:00,540195917126973700,178344,197674,149650,1306
1783334337392077439,2026-07-06T17:38:57.392+07:00,540195917126973700,178374,197644,149663,1328
1783334337410259257,2026-07-06T17:38:57.410+07:00,540195917126973700,178365,197694,149652,1324
1783334337428441075,2026-07-06T17:38:57.428+07:00,540195917126973700,178418,197764,149693,1315
1783334337446622893,2026-07-06T17:38:57.446+07:00,540195917126973700,178432,197733,149666,1299
1783334337464804711,2026-07-06T17:38:57.464+07:00,540195917126973700,178437,197714,149704,1334
1783334337482986529,2026-07-06T17:38:57.482+07:00,540195917126973700,178429,197676,149670,1257
1783334337501168347,2026-07-06T17:38:57.501+07:00,540195917126973700,178486,197646,149772,1256
1783334337519350165,2026-07-06T17:38:57.519+07:00,540195917126973700,178420,197559,149742,1242
1783334337537531983,2026-07-06T17:38:57.537+07:00,540195917126973700,178354,197492,149782,1309
1783334337555713801,2026-07-06T17:38:57.555+07:00,540195917126973700,178316,197471,149813,1259
1783334337573895619,2026-07-06T17:38:57.573+07:00,540195917126973700,178281,197433,149780,1265
1783334337592077437,2026-07-06T17:38:57.592+07:00,540195917126973700,178240,197364,149764,1275
1783334337610259255,2026-07-06T17:38:57.610+07:00,540195917126973700,178241,197325,149791,1307
1783334337628441073,2026-07-06T17:38:57.628+07:00,540195917126973700,178145,197148,149669,1263
1783334337646622891,2026-07-06T17:38:57.646+07:00,540195917126973700,178083,197111,149682,1268
1783334337664804709,2026-07-06T17:38:57.664+07:00,540195917126973700,177968,196948,149550,1257
1783334337682986527,2026-07-06T17:38:57.682+07:00,540195917126973700,177906,196837,149486,1292
1783334337701168345,2026-07-06T17:38:57.701+07:00,540195917126973700,177805,196799,149518,1325
1783334337719350163,2026-07-06T17:38:57.719+07:00,540195917126973700,177707,196707,149477,1309
1783334337737531981,2026-07-06T17:38:57.737+07:00,540195917126973700,177685,196704,149444,1328
1783334337755713799,2026-07-06T17:38:57.755+07:00,540195917126973700,177673,196710,149488,1292
1783334337773895617,2026-07-06T17:38:57.773+07:00,540195917126973700,177709,196735,149533,1288
1783334337792077435,2026-07-06T17:38:57.792+07:00,540195917126973700,177716,196766,149616,1248
1783334337810259253,2026-07-06T17:38:57.810+07:00,540195917126973700,177640,196707,149581,1230
1783334337828441071,2026-07-06T17:38:57.828+07:00,540195917126973700,177699,196701,149644,1311
1783334337846622889,2026-07-06T17:38:57.846+07:00,540195917126973700,177593,196662,149605,1238
1783334337864804707,2026-07-06T17:38:57.864+07:00,540195917126973700,177630,196691,149643,1249
1783334337882986525,2026-07-06T17:38:57.882+07:00,540195917126973700,177632,196764,149659,1209
1783334337901168343,2026-07-06T17:38:57.901+07:00,540195917126973700,177772,197049,149802,1302
1783334337919350161,2026-07-06T17:38:57.919+07:00,540195917126973700,177836,197150,149818,1257
1783334337937531979,2026-07-06T17:38:57.937+07:00,540195917126973700,177985,197277,149915,1289
1783334337955713797,2026-07-06T17:38:57.955+07:00,540195917126973700,178033,197288,149853,1293
1783334337973895615,2026-07-06T17:38:57.973+07:00,540195917126973700,178067,197236,149812,1283
1783334337992077433,2026-07-06T17:38:57.992+07:00,540195917126973700,178037,197133,149741,1298
1783334338010259251,2026-07-06T17:38:58.010+07:00,540195917126973700,178020,196976,149695,1239
1783334338028441069,2026-07-06T17:38:58.028+07:00,540195917126973700,177969,197057,149721,1274
1783334338046622887,2026-07-06T17:38:58.046+07:00,540195917126973700,178015,197103,149641,1291
1783334338064804705,2026-07-06T17:38:58.064+07:00,540195917126973700,178059,197142,149586,1284
1783334338082986523,2026-07-06T17:38:58.082+07:00,540195917126973700,178103,197182,149589,1265
1783334338101168341,2026-07-06T17:38:58.101+07:00,540195917126973700,178180,197216,149648,1198
1783334338119350159,2026-07-06T17:38:58.119+07:00,540195917891284802,178208,197296,149742,1250
1783334338137531977,2026-07-06T17:38:58.137+07:00,540195917891284802,178292,197342,149770,1294
1783334338155713795,2026-07-06T17:38:58.155+07:00,540195917891284802,178339,197425,149834,1237
1783334338173895613,2026-07-06T17:38:58.173+07:00,540195917891284802,178454,197529,149900,1251
1783334338192077431,2026-07-06T17:38:58.192+07:00,540195917891284802,178553,197704,150042,1294
1783334338210259249,2026-07-06T17:38:58.210+07:00,540195917891284802,178672,197824,150069,1242
1783334338228441067,2026-07-06T17:38:58.228+07:00,540195917891284802,178809,197960,150099,1281
1783334338246622885,2026-07-06T17:38:58.246+07:00,540195917891284802,178841,197885,150101,1300
1783334338264804703,2026-07-06T17:38:58.264+07:00,540195917891284802,178782,197701,150034,1293
1783334338282986521,2026-07-06T17:38:58.282+07:00,540195917891284802,178674,197507,149914,1330
1783334338301168339,2026-07-06T17:38:58.301+07:00,540195917891284802,178470,197345,149783,1235
1783334338319350157,2026-07-06T17:38:58.319+07:00,540195917891284802,178390,197228,149720,1226
1783334338337531975,2026-07-06T17:38:58.337+07:00,540195917891284802,178294,197082,149660,1208
1783334338355713793,2026-07-06T17:38:58.355+07:00,540195917891284802,178220,197141,149606,1232
1783334338373895611,2026-07-06T17:38:58.373+07:00,540195917891284802,178332,197313,149636,1288
1783334338392077429,2026-07-06T17:38:58.392+07:00,540195917891284802,178414,197467,149632,1290
1783334338410259247,2026-07-06T17:38:58.410+07:00,540195917891284802,178466,197543,149612,1188
1783334338428441065,2026-07-06T17:38:58.428+07:00,540195917891284802,178504,197428,149570,1249
1783334338446622883,2026-07-06T17:38:58.446+07:00,540195917891284802,178531,197379,149497,1252
1783334338464804701,2026-07-06T17:38:58.464+07:00,540195917891284802,178518,197323,149504,1252
1783334338482986519,2026-07-06T17:38:58.482+07:00,540195917891284802,178492,197375,149577,1290
1783334338501168337,2026-07-06T17:38:58.501+07:00,540195917891284802,178436,197358,149574,1260
1783334338519350155,2026-07-06T17:38:58.519+07:00,540195917891284802,178457,197376,149589,1282
1783334338537531973,2026-07-06T17:38:58.537+07:00,540195917891284802,178330,197252,149536,1283
1783334338555713791,2026-07-06T17:38:58.555+07:00,540195917891284802,178259,197131,149471,1203
1783334338573895609,2026-07-06T17:38:58.573+07:00,540195917891284802,178236,197024,149436,1297
1783334338592077427,2026-07-06T17:38:58.592+07:00,540195917891284802,178073,196894,149429,1270
1783334338610259245,2026-07-06T17:38:58.610+07:00,540195917891284802,177999,196633,149397,1290
1783334338628441063,2026-07-06T17:38:58.628+07:00,540195917891284802,177914,196508,149274,1298
1783334338646622881,2026-07-06T17:38:58.646+07:00,540195917891284802,177902,196450,149209,1256
1783334338664804699,2026-07-06T17:38:58.664+07:00,540195917891284802,177827,196514,149189,1272
1783334338682986517,2026-07-06T17:38:58.682+07:00,540195917891284802,177912,196636,149292,1264
1783334338701168335,2026-07-06T17:38:58.701+07:00,540195917891284802,177966,196845,149407,1332
1783334338719350153,2026-07-06T17:38:58.719+07:00,540195917891284802,178110,197069,149476,1303
1783334338737531971,2026-07-06T17:38:58.737+07:00,540195917891284802,178297,197355,149634,1304
1783334338755713789,2026-07-06T17:38:58.755+07:00,540195917891284802,178533,197569,149695,1313
1783334338773895607,2026-07-06T17:38:58.773+07:00,540195917891284802,178635,197595,149633,1283
1783334338792077425,2026-07-06T17:38:58.792+07:00,540195917891284802,178883,197710,149605,1251
1783334338810259243,2026-07-06T17:38:58.810+07:00,540195917891284802,179124,197886,149684,1251
1783334338828441061,2026-07-06T17:38:58.828+07:00,540195917891284802,179312,197996,149763,1300
1783334338846622879,2026-07-06T17:38:58.846+07:00,540195917891284802,179315,197953,149726,1248
1783334338864804697,2026-07-06T17:38:58.864+07:00,540195917891284802,179363,197921,149661,1320
1783334338882986515,2026-07-06T17:38:58.882+07:00,540195918673804469,179307,197823,149606,1287
1783334338901168333,2026-07-06T17:38:58.901+07:00,540195918673804469,179177,197727,149537,1290
1783334338919350151,2026-07-06T17:38:58.919+07:00,540195918673804469,178992,197537,149474,1259
1783334338937531969,2026-07-06T17:38:58.937+07:00,540195918673804469,178828,197353,149394,1255
1783334338955713787,2026-07-06T17:38:58.955+07:00,540195918673804469,178644,197204,149386,1362
1783334338973895605,2026-07-06T17:38:58.973+07:00,540195918673804469,178517,197022,149257,1307
1783334338992077423,2026-07-06T17:38:58.992+07:00,540195918673804469,178391,196865,149157,1285
1783334339010259241,2026-07-06T17:38:59.010+07:00,540195918673804469,178304,196730,149010,1306
1783334339028441059,2026-07-06T17:38:59.028+07:00,540195918673804469,178260,196621,148880,1285
1783334339046622877,2026-07-06T17:38:59.046+07:00,540195918673804469,178275,196597,148806,1308
1783334339064804695,2026-07-06T17:38:59.064+07:00,540195918673804469,178294,196688,148816,1254
1783334339082986513,2026-07-06T17:38:59.082+07:00,540195918673804469,178420,196882,148874,1286
1783334339101168331,2026-07-06T17:38:59.101+07:00,540195918673804469,178514,197061,148867,1291
1783334339119350149,2026-07-06T17:38:59.119+07:00,540195918673804469,178627,197007,148779,1275
1783334339137531967,2026-07-06T17:38:59.137+07:00,540195918673804469,178750,197003,148770,1242
1783334339155713785,2026-07-06T17:38:59.155+07:00,540195918673804469,178766,197013,148711,1262
1783334339173895603,2026-07-06T17:38:59.173+07:00,540195918673804469,178743,196925,148669,1325
1783334339192077421,2026-07-06T17:38:59.192+07:00,540195918673804469,178778,196846,148722,1335
1783334339210259239,2026-07-06T17:38:59.210+07:00,540195918673804469,178704,196807,148685,1292
1783334339228441057,2026-07-06T17:38:59.228+07:00,540195918673804469,178691,196838,148646,1258
1783334339246622875,2026-07-06T17:38:59.246+07:00,540195918673804469,178736,196940,148729,1317
1783334339264804693,2026-07-06T17:38:59.264+07:00,540195918673804469,178773,197066,148785,1336
1783334339282986511,2026-07-06T17:38:59.282+07:00,540195918673804469,178763,197077,148812,1349
1783334339301168329,2026-07-06T17:38:59.301+07:00,540195918673804469,178873,197092,148765,1299
1783334339319350147,2026-07-06T17:38:59.319+07:00,540195918673804469,178863,197049,148759,1284
1783334339337531965,2026-07-06T17:38:59.337+07:00,540195918673804469,178851,197022,148669,1285
1783334339355713783,2026-07-06T17:38:59.355+07:00,540195918673804469,178905,197058,148710,1310
1783334339373895601,2026-07-06T17:38:59.373+07:00,540195918673804469,178900,197021,148675,1263
1783334339392077419,2026-07-06T17:38:59.392+07:00,540195918673804469,178954,197020,148628,1252
1783334339410259237,2026-07-06T17:38:59.410+07:00,540195918673804469,178991,197112,148690,1335
1783334339428441055,2026-07-06T17:38:59.428+07:00,540195918673804469,179008,197099,148729,1264
1783334339446622873,2026-07-06T17:38:59.446+07:00,540195918673804469,178989,197030,148658,1250
1783334339464804691,2026-07-06T17:38:59.464+07:00,540195918673804469,178938,196969,148695,1322
1783334339482986509,2026-07-06T17:38:59.482+07:00,540195918673804469,178809,196859,148572,1221
1783334339501168327,2026-07-06T17:38:59.501+07:00,540195918673804469,178724,196575,148392,1224
1783334339519350145,2026-07-06T17:38:59.519+07:00,540195918673804469,178598,196397,148274,1245
1783334339537531963,2026-07-06T17:38:59.537+07:00,540195918673804469,178460,196273,148128,1298
1783334339555713781,2026-07-06T17:38:59.555+07:00,540195918673804469,178262,196008,147944,1250
1783334339573895599,2026-07-06T17:38:59.573+07:00,540195918673804469,178169,195776,147766,1275
1783334339592077417,2026-07-06T17:38:59.592+07:00,540195918673804469,177996,195585,147580,1267
1783334339610259235,2026-07-06T17:38:59.610+07:00,540195918673804469,177817,195363,147396,1273
1783334339628441053,2026-07-06T17:38:59.628+07:00,540195918673804469,177692,195140,147303,1279
1783334339646622871,2026-07-06T17:38:59.646+07:00,540195918673804469,177582,194966,147132,1284
1783334339664804689,2026-07-06T17:38:59.664+07:00,540195919456333290,177464,194807,146966,1284
1783334339682986507,2026-07-06T17:38:59.682+07:00,540195919456333290,177390,194695,146979,1304
1783334339701168325,2026-07-06T17:38:59.701+07:00,540195919456333290,177322,194658,146962,1288
1783334339719350143,2026-07-06T17:38:59.719+07:00,540195919456333290,177248,194565,146831,1273
1783334339737531961,2026-07-06T17:38:59.737+07:00,540195919456333290,177305,194497,146877,1249
1783334339755713779,2026-07-06T17:38:59.755+07:00,540195919456333290,177190,194394,146740,1267
1783334339773895597,2026-07-06T17:38:59.773+07:00,540195919456333290,177148,194328,146688,1288
1783334339792077415,2026-07-06T17:38:59.792+07:00,540195919456333290,177070,194214,146550,1302
1783334339810259233,2026-07-06T17:38:59.810+07:00,540195919456333290,176981,194079,146524,1272
1783334339828441051,2026-07-06T17:38:59.828+07:00,540195919456333290,176847,193924,146411,1236
1783334339846622869,2026-07-06T17:38:59.846+07:00,540195919456333290,176827,193839,146367,1287
1783334339864804687,2026-07-06T17:38:59.864+07:00,540195919456333290,176765,193759,146308,1273
1783334339882986505,2026-07-06T17:38:59.882+07:00,540195919456333290,176711,193696,146178,1272
1783334339901168323,2026-07-06T17:38:59.901+07:00,540195919456333290,176663,193618,146138,1257
1783334339919350141,2026-07-06T17:38:59.919+07:00,540195919456333290,176699,193543,146137,1280
1783334339937531959,2026-07-06T17:38:59.937+07:00,540195919456333290,176652,193449,146047,1266
1783334339955713777,2026-07-06T17:38:59.955+07:00,540195919456333290,176696,193438,146008,1238
1783334339973895595,2026-07-06T17:38:59.973+07:00,540195919456333290,176721,193393,145997,1218
1783334339992077413,2026-07-06T17:38:59.992+07:00,540195919456333290,176723,193408,145961,1268
1783334340010259231,2026-07-06T17:39:00.010+07:00,540195919456333290,176717,193308,145977,1305
1783334340028441049,2026-07-06T17:39:00.028+07:00,540195919456333290,176662,193326,145926,1284
1783334340046622867,2026-07-06T17:39:00.046+07:00,540195919456333290,176710,193362,146029,1277
1783334340064804685,2026-07-06T17:39:00.064+07:00,540195919456333290,176650,193279,145922,1292
1783334340082986503,2026-07-06T17:39:00.082+07:00,540195919456333290,176668,193250,145925,1281
1783334340101168321,2026-07-06T17:39:00.101+07:00,540195919456333290,176634,193203,145895,1248
1783334340119350139,2026-07-06T17:39:00.119+07:00,540195919456333290,176531,193032,145755,1337
1783334340137531957,2026-07-06T17:39:00.137+07:00,540195919456333290,176384,192784,145637,1267
1783334340155713775,2026-07-06T17:39:00.155+07:00,540195919456333290,176284,192555,145494,1309
1783334340173895593,2026-07-06T17:39:00.173+07:00,540195919456333290,176002,192248,145313,1293
1783334340192077411,2026-07-06T17:39:00.192+07:00,540195919456333290,175720,191898,145055,1273
1783334340210259229,2026-07-06T17:39:00.210+07:00,540195919456333290,175603,191637,144896,1209
1783334340228441047,2026-07-06T17:39:00.228+07:00,540195919456333290,175421,191441,144784,1267
1783334340246622865,2026-07-06T17:39:00.246+07:00,540195919456333290,175289,191202,144629,1296
1783334340264804683,2026-07-06T17:39:00.264+07:00,540195919456333290,175239,191137,144509,1370
1783334340282986501,2026-07-06T17:39:00.282+07:00,540195919456333290,175085,190927,144391,1265
1783334340301168319,2026-07-06T17:39:00.301+07:00,540195919456333290,175015,190764,144300,1207
1783334340319350137,2026-07-06T17:39:00.319+07:00,540195919456333290,174926,190667,144247,1301
1783334340337531955,2026-07-06T17:39:00.337+07:00,540195919456333290,174846,190471,144171,1209
1783334340355713773,2026-07-06T17:39:00.355+07:00,540195919456333290,174806,190438,144124,1316
1783334340373895591,2026-07-06T17:39:00.373+07:00,540195919456333290,174666,190259,144000,1253
1783334340392077409,2026-07-06T17:39:00.392+07:00,540195919456333290,174569,190136,143902,1308
1783334340410259227,2026-07-06T17:39:00.410+07:00,540195919456333290,174459,189962,143839,1286
1783334340428441045,2026-07-06T17:39:00.428+07:00,540195919456333290,174320,189832,143828,1245
1783334340446622863,2026-07-06T17:39:00.446+07:00,540195920293405406,174238,189635,143776,1377
1783334340464804681,2026-07-06T17:39:00.464+07:00,540195920293405406,174084,189472,143640,1263
1783334340482986499,2026-07-06T17:39:00.482+07:00,540195920293405406,173984,189384,143595,1236
1783334340501168317,2026-07-06T17:39:00.501+07:00,540195920293405406,173925,189323,143546,1239
1783334340519350135,2026-07-06T17:39:00.519+07:00,540195920293405406,173929,189285,143544,1299
1783334340537531953,2026-07-06T17:39:00.537+07:00,540195920293405406,173962,189209,143475,1246
1783334340555713771,2026-07-06T17:39:00.555+07:00,540195920293405406,173884,189152,143405,1205
1783334340573895589,2026-07-06T17:39:00.573+07:00,540195920293405406,173923,189168,143483,1252
1783334340592077407,2026-07-06T17:39:00.592+07:00,540195920293405406,173926,189191,143428,1203
1783334340610259225,2026-07-06T17:39:00.610+07:00,540195920293405406,173938,189196,143466,1255
1783334340628441043,2026-07-06T17:39:00.628+07:00,540195920293405406,173979,189202,143465,1270
1783334340646622861,2026-07-06T17:39:00.646+07:00,540195920293405406,173978,189173,143462,1285
1783334340664804679,2026-07-06T17:39:00.664+07:00,540195920293405406,173983,189173,143475,1236
1783334340682986497,2026-07-06T17:39:00.682+07:00,540195920293405406,174062,189240,143472,1230
1783334340701168315,2026-07-06T17:39:00.701+07:00,540195920293405406,174131,189349,143461,1277
1783334340719350133,2026-07-06T17:39:00.719+07:00,540195920293405406,174181,189383,143524,1335
1783334340737531951,2026-07-06T17:39:00.737+07:00,540195920293405406,174187,189434,143516,1262
1783334340755713769,2026-07-06T17:39:00.755+07:00,540195920293405406,174185,189365,143478,1258
1783334340773895587,2026-07-06T17:39:00.773+07:00,540195920293405406,174187,189252,143413,1235
1783334340792077405,2026-07-06T17:39:00.792+07:00,540195920293405406,174116,189178,143336,1252
1783334340810259223,2026-07-06T17:39:00.810+07:00,540195920293405406,174031,189014,143276,1248
1783334340828441041,2026-07-06T17:39:00.828+07:00,540195920293405406,173954,188847,143130,1296
1783334340846622859,2026-07-06T17:39:00.846+07:00,540195920293405406,173889,188754,143098,1300
1783334340864804677,2026-07-06T17:39:00.864+07:00,540195920293405406,173798,188623,142910,1247
1783334340882986495,2026-07-06T17:39:00.882+07:00,540195920293405406,173727,188508,142885,1237
1783334340901168313,2026-07-06T17:39:00.901+07:00,540195920293405406,173681,188363,142838,1277
1783334340919350131,2026-07-06T17:39:00.919+07:00,540195920293405406,173663,188243,142830,1294
1783334340937531949,2026-07-06T17:39:00.937+07:00,540195920293405406,173582,188148,142772,1279
1783334340955713767,2026-07-06T17:39:00.955+07:00,540195920293405406,173537,188004,142684,1267
1783334340973895585,2026-07-06T17:39:00.973+07:00,540195920293405406,173479,187921,142617,1263
1783334340992077403,2026-07-06T17:39:00.992+07:00,540195920293405406,173442,187819,142638,1320
1783334341010259221,2026-07-06T17:39:01.010+07:00,540195920293405406,173342,187715,142642,1304
1783334341028441039,2026-07-06T17:39:01.028+07:00,540195920293405406,173337,187696,142648,1309
1783334341046622857,2026-07-06T17:39:01.046+07:00,540195920293405406,173280,187616,142552,1281
1783334341064804675,2026-07-06T17:39:01.064+07:00,540195920293405406,173273,187512,142542,1259
1783334341082986493,2026-07-06T17:39:01.082+07:00,540195920293405406,173250,187531,142544,1272
1783334341101168311,2026-07-06T17:39:01.101+07:00,540195920293405406,173179,187438,142480,1273
1783334341119350129,2026-07-06T17:39:01.119+07:00,540195920293405406,173214,187512,142534,1294
1783334341137531947,2026-07-06T17:39:01.137+07:00,540195920293405406,173225,187503,142535,1277
1783334341155713765,2026-07-06T17:39:01.155+07:00,540195920293405406,173241,187517,142517,1343
1783334341173895583,2026-07-06T17:39:01.173+07:00,540195920293405406,173269,187476,142581,1311
1783334341192077401,2026-07-06T17:39:01.192+07:00,540195920293405406,173304,187474,142549,1318
1783334341210259219,2026-07-06T17:39:01.210+07:00,540195920293405406,173235,187504,142576,1279
1783334341228441037,2026-07-06T17:39:01.228+07:00,540195920293405406,173275,187495,142625,1285
1783334341246622855,2026-07-06T17:39:01.246+07:00,540195920293405406,173314,187535,142628,1290
1783334341264804673,2026-07-06T17:39:01.264+07:00,540195920293405406,173317,187456,142610,1294
1783334341282986491,2026-07-06T17:39:01.282+07:00,540195921075885397,173321,187415,142640,1313
1783334341301168309,2026-07-06T17:39:01.301+07:00,540195921075885397,173342,187458,142669,1291
1783334341319350127,2026-07-06T17:39:01.319+07:00,540195921075885397,173403,187354,142632,1271
1783334341337531945,2026-07-06T17:39:01.337+07:00,540195921075885397,173414,187419,142701,1325
1783334341355713763,2026-07-06T17:39:01.355+07:00,540195921075885397,173459,187435,142744,1263
1783334341373895581,2026-07-06T17:39:01.373+07:00,540195921075885397,173398,187397,142729,1271
1783334341392077399,2026-07-06T17:39:01.392+07:00,540195921075885397,173433,187306,142669,1299
1783334341410259217,2026-07-06T17:39:01.410+07:00,540195921075885397,173348,187192,142685,1282
1783334341428441035,2026-07-06T17:39:01.428+07:00,540195921075885397,173253,187060,142562,1301
1783334341446622853,2026-07-06T17:39:01.446+07:00,540195921075885397,173134,186851,142437,1309
1783334341464804671,2026-07-06T17:39:01.464+07:00,540195921075885397,173042,186653,142372,1355
1783334341482986489,2026-07-06T17:39:01.482+07:00,540195921075885397,172941,186520,142294,1327
1783334341501168307,2026-07-06T17:39:01.501+07:00,540195921075885397,172839,186330,142216,1289
1783334341519350125,2026-07-06T17:39:01.519+07:00,540195921075885397,172798,186243,142141,1311
1783334341537531943,2026-07-06T17:39:01.537+07:00,540195921075885397,172698,186046,142080,1306
1783334341555713761,2026-07-06T17:39:01.555+07:00,540195921075885397,172653,186062,142111,1310
1783334341573895579,2026-07-06T17:39:01.573+07:00,540195921075885397,172624,185956,142031,1252
1783334341592077397,2026-07-06T17:39:01.592+07:00,540195921075885397,172691,186038,142079,1284
1783334341610259215,2026-07-06T17:39:01.610+07:00,540195921075885397,172667,185999,142150,1299
1783334341628441033,2026-07-06T17:39:01.628+07:00,540195921075885397,172693,186026,142159,1308
1783334341646622851,2026-07-06T17:39:01.646+07:00,540195921075885397,172746,186084,142189,1315
1783334341664804669,2026-07-06T17:39:01.664+07:00,540195921075885397,172738,185993,142171,1284
1783334341682986487,2026-07-06T17:39:01.682+07:00,540195921075885397,172693,185930,142217,1267
1783334341701168305,2026-07-06T17:39:01.701+07:00,540195921075885397,172720,185928,142220,1274
1783334341719350123,2026-07-06T17:39:01.719+07:00,540195921075885397,172689,185914,142269,1287
1783334341737531941,2026-07-06T17:39:01.737+07:00,540195921075885397,172760,185905,142274,1274
1783334341755713759,2026-07-06T17:39:01.755+07:00,540195921075885397,172777,185917,142342,1319
1783334341773895577,2026-07-06T17:39:01.773+07:00,540195921075885397,172771,185901,142346,1355
1783334341792077395,2026-07-06T17:39:01.792+07:00,540195921075885397,172762,185937,142366,1274
1783334341810259213,2026-07-06T17:39:01.810+07:00,540195921075885397,172783,185915,142420,1269
1783334341828441031,2026-07-06T17:39:01.828+07:00,540195921075885397,172840,185943,142449,1311
1783334341846622849,2026-07-06T17:39:01.846+07:00,540195921075885397,172860,185941,142491,1248
1783334341864804667,2026-07-06T17:39:01.864+07:00,540195921075885397,172926,186005,142571,1326
1783334341882986485,2026-07-06T17:39:01.882+07:00,540195921075885397,172884,185994,142559,1239
1783334341901168303,2026-07-06T17:39:01.901+07:00,540195921075885397,172940,185986,142668,1274
1783334341919350121,2026-07-06T17:39:01.919+07:00,540195921075885397,172920,185968,142664,1251
1783334341937531939,2026-07-06T17:39:01.937+07:00,540195921075885397,173065,186013,142792,1319
1783334341955713757,2026-07-06T17:39:01.955+07:00,540195921075885397,173102,186124,142789,1279
1783334341973895575,2026-07-06T17:39:01.973+07:00,540195921075885397,173090,186148,142833,1275
1783334341992077393,2026-07-06T17:39:01.992+07:00,540195921075885397,173163,186209,142896,1282
1783334342010259211,2026-07-06T17:39:02.010+07:00,540195921075885397,173182,186269,142976,1273
1783334342028441029,2026-07-06T17:39:02.028+07:00,540195921075885397,173240,186266,143023,1251
1783334342046622847,2026-07-06T17:39:02.046+07:00,540195921075885397,173267,186252,143020,1273
1783334342064804665,2026-07-06T17:39:02.064+07:00,540195921821936064,173219,186235,143074,1250
1783334342082986483,2026-07-06T17:39:02.082+07:00,540195921821936064,173210,186118,143073,1230
1783334342101168301,2026-07-06T17:39:02.101+07:00,540195921821936064,173071,185981,143011,1270
1783334342119350119,2026-07-06T17:39:02.119+07:00,540195921821936064,173009,185854,142986,1319
1783334342137531937,2026-07-06T17:39:02.137+07:00,540195921821936064,172906,185671,142975,1342
1783334342155713755,2026-07-06T17:39:02.155+07:00,540195921821936064,172765,185512,142913,1317
1783334342173895573,2026-07-06T17:39:02.173+07:00,540195921821936064,172719,185409,142887,1263
1783334342192077391,2026-07-06T17:39:02.192+07:00,540195921821936064,172606,185290,142873,1289
1783334342210259209,2026-07-06T17:39:02.210+07:00,540195921821936064,172507,185133,142776,1217
1783334342228441027,2026-07-06T17:39:02.228+07:00,540195921821936064,172378,185011,142807,1206
1783334342246622845,2026-07-06T17:39:02.246+07:00,540195921821936064,172304,184933,142799,1258
1783334342264804663,2026-07-06T17:39:02.264+07:00,540195921821936064,172281,184844,142780,1256
1783334342282986481,2026-07-06T17:39:02.282+07:00,540195921821936064,172247,184788,142800,1293
1783334342301168299,2026-07-06T17:39:02.301+07:00,540195921821936064,172211,184726,142796,1239
1783334342319350117,2026-07-06T17:39:02.319+07:00,540195921821936064,172207,184680,142811,1216
1783334342337531935,2026-07-06T17:39:02.337+07:00,540195921821936064,172242,184766,142771,1242
1783334342355713753,2026-07-06T17:39:02.355+07:00,540195921821936064,172247,184639,142807,1234
1783334342373895571,2026-07-06T17:39:02.373+07:00,540195921821936064,172266,184660,142861,1268
1783334342392077389,2026-07-06T17:39:02.392+07:00,540195921821936064,172290,184705,142816,1228
1783334342410259207,2026-07-06T17:39:02.410+07:00,540195921821936064,172422,184838,142902,1280
1783334342428441025,2026-07-06T17:39:02.428+07:00,540195921821936064,172488,184930,143007,1288
1783334342446622843,2026-07-06T17:39:02.446+07:00,540195921821936064,172537,184994,143062,1292
1783334342464804661,2026-07-06T17:39:02.464+07:00,540195921821936064,172679,185060,143155,1265
1783334342482986479,2026-07-06T17:39:02.482+07:00,540195921821936064,172702,185181,143247,1239
1783334342501168297,2026-07-06T17:39:02.501+07:00,540195921821936064,172806,185309,143360,1275
1783334342519350115,2026-07-06T17:39:02.519+07:00,540195921821936064,172907,185409,143403,1313
1783334342537531933,2026-07-06T17:39:02.537+07:00,540195921821936064,173049,185593,143574,1294
1783334342555713751,2026-07-06T17:39:02.555+07:00,540195921821936064,173118,185617,143619,1300
1783334342573895569,2026-07-06T17:39:02.573+07:00,540195921821936064,173196,185777,143772,1301
1783334342592077387,2026-07-06T17:39:02.592+07:00,540195921821936064,173293,185868,143783,1243
1783334342610259205,2026-07-06T17:39:02.610+07:00,540195921821936064,173372,185991,143876,1266
1783334342628441023,2026-07-06T17:39:02.628+07:00,540195921821936064,173463,186141,143977,1285
1783334342646622841,2026-07-06T17:39:02.646+07:00,540195921821936064,173572,186271,144118,1284
1783334342664804659,2026-07-06T17:39:02.664+07:00,540195921821936064,173679,186346,144208,1211
1783334342682986477,2026-07-06T17:39:02.682+07:00,540195921821936064,173773,186476,144338,1280
1783334342701168295,2026-07-06T17:39:02.701+07:00,540195921821936064,173827,186500,144383,1214
1783334342719350113,2026-07-06T17:39:02.719+07:00,540195921821936064,173881,186580,144406,1252
1783334342737531931,2026-07-06T17:39:02.737+07:00,540195921821936064,173983,186613,144411,1241
1783334342755713749,2026-07-06T17:39:02.755+07:00,540195921821936064,173851,186562,144447,1276
1783334342773895567,2026-07-06T17:39:02.773+07:00,540195921821936064,173880,186454,144466,1318
1783334342792077385,2026-07-06T17:39:02.792+07:00,540195921821936064,173836,186399,144427,1239
1783334342810259203,2026-07-06T17:39:02.810+07:00,540195922658999024,173845,186403,144455,1297
1783334342828441021,2026-07-06T17:39:02.828+07:00,540195922658999024,173864,186410,144546,1338
1783334342846622839,2026-07-06T17:39:02.846+07:00,540195922658999024,173822,186390,144613,1279
1783334342864804657,2026-07-06T17:39:02.864+07:00,540195922658999024,173874,186398,144622,1277
1783334342882986475,2026-07-06T17:39:02.882+07:00,540195922658999024,173931,186408,144673,1308
1783334342901168293,2026-07-06T17:39:02.901+07:00,540195922658999024,173925,186450,144681,1277
1783334342919350111,2026-07-06T17:39:02.919+07:00,540195922658999024,173976,186493,144789,1257
1783334342937531929,2026-07-06T17:39:02.937+07:00,540195922658999024,174011,186505,144844,1271
1783334342955713747,2026-07-06T17:39:02.955+07:00,540195922658999024,174114,186623,144933,1348
1783334342973895565,2026-07-06T17:39:02.973+07:00,540195922658999024,174136,186629,144933,1293
1783334342992077383,2026-07-06T17:39:02.992+07:00,540195922658999024,174183,186659,145019,1289
1783334343010259201,2026-07-06T17:39:03.010+07:00,540195922658999024,174170,186706,145045,1275
1783334343028441019,2026-07-06T17:39:03.028+07:00,540195922658999024,174167,186735,145104,1219
1783334343046622837,2026-07-06T17:39:03.046+07:00,540195922658999024,174225,186789,145184,1271
1783334343064804655,2026-07-06T17:39:03.064+07:00,540195922658999024,174276,186819,145221,1273
1783334343082986473,2026-07-06T17:39:03.082+07:00,540195922658999024,174277,186804,145272,1313
1783334343101168291,2026-07-06T17:39:03.101+07:00,540195922658999024,174304,186819,145338,1297
1783334343119350109,2026-07-06T17:39:03.119+07:00,540195922658999024,174280,186825,145328,1298
1783334343137531927,2026-07-06T17:39:03.137+07:00,540195922658999024,174314,186900,145436,1286
1783334343155713745,2026-07-06T17:39:03.155+07:00,540195922658999024,174391,186933,145469,1270
1783334343173895563,2026-07-06T17:39:03.173+07:00,540195922658999024,174388,186995,145555,1243
1783334343192077381,2026-07-06T17:39:03.192+07:00,540195922658999024,174462,187063,145605,1254
1783334343210259199,2026-07-06T17:39:03.210+07:00,540195922658999024,174577,187117,145718,1288
1783334343228441017,2026-07-06T17:39:03.228+07:00,540195922658999024,174559,187105,145727,1180
1783334343246622835,2026-07-06T17:39:03.246+07:00,540195922658999024,174625,187170,145757,1189
1783334343264804653,2026-07-06T17:39:03.264+07:00,540195922658999024,174692,187212,145821,1212
1783334343282986471,2026-07-06T17:39:03.282+07:00,540195922658999024,174777,187359,145892,1235
1783334343301168289,2026-07-06T17:39:03.301+07:00,540195922658999024,174808,187383,145981,1269
1783334343319350107,2026-07-06T17:39:03.319+07:00,540195922658999024,174949,187505,146026,1240
1783334343337531925,2026-07-06T17:39:03.337+07:00,540195922658999024,174901,187470,146081,1181
1783334343355713743,2026-07-06T17:39:03.355+07:00,540195922658999024,174969,187562,146089,1253
1783334343373895561,2026-07-06T17:39:03.373+07:00,540195922658999024,175034,187575,146078,1242
1783334343392077379,2026-07-06T17:39:03.392+07:00,540195922658999024,175044,187576,146096,1233
1783334343410259197,2026-07-06T17:39:03.410+07:00,540195922658999024,174984,187522,146104,1245
1783334343428441015,2026-07-06T17:39:03.428+07:00,540195922658999024,174953,187474,146110,1245
1783334343446622833,2026-07-06T17:39:03.446+07:00,540195922658999024,175040,187521,146132,1305
1783334343464804651,2026-07-06T17:39:03.464+07:00,540195922658999024,175031,187535,146124,1221
1783334343482986469,2026-07-06T17:39:03.482+07:00,540195922658999024,175063,187562,146206,1286
1783334343501168287,2026-07-06T17:39:03.501+07:00,540195922658999024,175125,187599,146232,1280
1783334343519350105,2026-07-06T17:39:03.519+07:00,540195922658999024,175208,187676,146333,1252
1783334343537531923,2026-07-06T17:39:03.537+07:00,540195922658999024,175244,187758,146363,1262
1783334343555713741,2026-07-06T17:39:03.555+07:00,540195922658999024,175268,187759,146381,1300
1783334343573895559,2026-07-06T17:39:03.573+07:00,540195922658999024,175337,187834,146422,1290
1783334343592077377,2026-07-06T17:39:03.592+07:00,540195922658999024,175368,187924,146496,1300
1783334343610259195,2026-07-06T17:39:03.610+07:00,540195922658999024,175487,187938,146560,1281
1783334343628441013,2026-07-06T17:39:03.628+07:00,540195922658999024,175580,187987,146597,1311
1783334343646622831,2026-07-06T17:39:03.646+07:00,540195923441486647,175554,187992,146614,1300
1783334343664804649,2026-07-06T17:39:03.664+07:00,540195923441486647,175632,188066,146656,1286
1783334343682986467,2026-07-06T17:39:03.682+07:00,540195923441486647,175723,188097,146724,1272
1783334343701168285,2026-07-06T17:39:03.701+07:00,540195923441486647,175684,188094,146661,1177
1783334343719350103,2026-07-06T17:39:03.719+07:00,540195923441486647,175721,188128,146718,1258
1783334343737531921,2026-07-06T17:39:03.737+07:00,540195923441486647,175808,188161,146779,1288
1783334343755713739,2026-07-06T17:39:03.755+07:00,540195923441486647,175788,188125,146724,1272
1783334343773895557,2026-07-06T17:39:03.773+07:00,540195923441486647,175849,188250,146797,1238
1783334343792077375,2026-07-06T17:39:03.792+07:00,540195923441486647,175929,188245,146771,1268
1783334343810259193,2026-07-06T17:39:03.810+07:00,540195923441486647,175914,188316,146858,1301
1783334343828441011,2026-07-06T17:39:03.828+07:00,540195923441486647,176057,188361,146963,1314
1783334343846622829,2026-07-06T17:39:03.846+07:00,540195923441486647,176040,188414,146917,1257
1783334343864804647,2026-07-06T17:39:03.864+07:00,540195923441486647,176187,188475,146963,1284
1783334343882986465,2026-07-06T17:39:03.882+07:00,540195923441486647,176208,188547,147022,1238
1783334343901168283,2026-07-06T17:39:03.901+07:00,540195923441486647,176278,188683,147147,1290
1783334343919350101,2026-07-06T17:39:03.919+07:00,540195923441486647,176323,188686,147172,1235
1783334343937531919,2026-07-06T17:39:03.937+07:00,540195923441486647,176417,188791,147239,1253
1783334343955713737,2026-07-06T17:39:03.955+07:00,540195923441486647,176502,188933,147323,1285
1783334343973895555,2026-07-06T17:39:03.973+07:00,540195923441486647,176516,188910,147329,1299
1783334343992077373,2026-07-06T17:39:03.992+07:00,540195923441486647,176586,188992,147359,1251
1783334344010259191,2026-07-06T17:39:04.010+07:00,540195923441486647,176539,188930,147387,1184
1783334344028441009,2026-07-06T17:39:04.028+07:00,540195923441486647,176546,188884,147385,1180
1783334344046622827,2026-07-06T17:39:04.046+07:00,540195923441486647,176526,188833,147383,1199
1783334344064804645,2026-07-06T17:39:04.064+07:00,540195923441486647,176453,188807,147349,1202
1783334344082986463,2026-07-06T17:39:04.082+07:00,540195923441486647,176410,188739,147335,1236
1783334344101168281,2026-07-06T17:39:04.101+07:00,540195923441486647,176451,188638,147357,1245
1783334344119350099,2026-07-06T17:39:04.119+07:00,540195923441486647,176415,188660,147312,1273
1783334344137531917,2026-07-06T17:39:04.137+07:00,540195923441486647,176344,188644,147306,1228
1783334344155713735,2026-07-06T17:39:04.155+07:00,540195923441486647,176369,188583,147301,1297
1783334344173895553,2026-07-06T17:39:04.173+07:00,540195923441486647,176399,188668,147342,1302
1783334344192077371,2026-07-06T17:39:04.192+07:00,540195923441486647,176454,188616,147370,1248
1783334344210259189,2026-07-06T17:39:04.210+07:00,540195923441486647,176358,188605,147359,1179
1783334344228441007,2026-07-06T17:39:04.228+07:00,540195923441486647,176414,188717,147447,1247
1783334344246622825,2026-07-06T17:39:04.246+07:00,540195923441486647,176430,188754,147461,1247
1783334344264804643,2026-07-06T17:39:04.264+07:00,540195923441486647,176492,188762,147503,1270
1783334344282986461,2026-07-06T17:39:04.282+07:00,540195923441486647,176514,188824,147578,1328
1783334344301168279,2026-07-06T17:39:04.301+07:00,540195923441486647,176499,188883,147544,1238
1783334344319350097,2026-07-06T17:39:04.319+07:00,540195923441486647,176548,188894,147654,1264
1783334344337531915,2026-07-06T17:39:04.337+07:00,540195923441486647,176550,188969,147680,1271
1783334344355713733,2026-07-06T17:39:04.355+07:00,540195923441486647,176608,188967,147715,1280
1783334344373895551,2026-07-06T17:39:04.373+07:00,540195923441486647,176663,189003,147708,1267
1783334344392077369,2026-07-06T17:39:04.392+07:00,540195923441486647,176666,189123,147807,1275
1783334344410259187,2026-07-06T17:39:04.410+07:00,540195923441486647,176717,189139,147806,1337
1783334344428441005,2026-07-06T17:39:04.428+07:00,540195924296787164,176784,189200,147873,1281
1783334344446622823,2026-07-06T17:39:04.446+07:00,540195924296787164,176774,189186,147837,1281
1783334344464804641,2026-07-06T17:39:04.464+07:00,540195924296787164,176811,189301,147902,1270
1783334344482986459,2026-07-06T17:39:04.482+07:00,540195924296787164,176832,189330,147950,1253
1783334344501168277,2026-07-06T17:39:04.501+07:00,540195924296787164,176865,189376,147969,1231
1783334344519350095,2026-07-06T17:39:04.519+07:00,540195924296787164,176934,189333,148019,1252
1783334344537531913,2026-07-06T17:39:04.537+07:00,540195924296787164,176994,189441,148073,1257
1783334344555713731,2026-07-06T17:39:04.555+07:00,540195924296787164,177055,189603,148102,1254
1783334344573895549,2026-07-06T17:39:04.573+07:00,540195924296787164,177125,189672,148159,1307
1783334344592077367,2026-07-06T17:39:04.592+07:00,540195924296787164,177324,189760,148267,1279
1783334344610259185,2026-07-06T17:39:04.610+07:00,540195924296787164,177403,189874,148321,1262
1783334344628441003,2026-07-06T17:39:04.628+07:00,540195924296787164,177441,189996,148337,1274
1783334344646622821,2026-07-06T17:39:04.646+07:00,540195924296787164,177497,190082,148421,1266
1783334344664804639,2026-07-06T17:39:04.664+07:00,540195924296787164,177496,190089,148393,1291
1783334344682986457,2026-07-06T17:39:04.682+07:00,540195924296787164,177464,190060,148394,1294
1783334344701168275,2026-07-06T17:39:04.701+07:00,540195924296787164,177465,190031,148421,1286
1783334344719350093,2026-07-06T17:39:04.719+07:00,540195924296787164,177423,189962,148398,1331
1783334344737531911,2026-07-06T17:39:04.737+07:00,540195924296787164,177417,189970,148363,1351
1783334344755713729,2026-07-06T17:39:04.755+07:00,540195924296787164,177359,189936,148363,1284
1783334344773895547,2026-07-06T17:39:04.773+07:00,540195924296787164,177382,189950,148326,1258
1783334344792077365,2026-07-06T17:39:04.792+07:00,540195924296787164,177354,189911,148319,1239
1783334344810259183,2026-07-06T17:39:04.810+07:00,540195924296787164,177340,189851,148296,1255
1783334344828441001,2026-07-06T17:39:04.828+07:00,540195924296787164,177394,189912,148270,1297
1783334344846622819,2026-07-06T17:39:04.846+07:00,540195924296787164,177393,189978,148327,1289
1783334344864804637,2026-07-06T17:39:04.864+07:00,540195924296787164,177423,189998,148354,1235
1783334344882986455,2026-07-06T17:39:04.882+07:00,540195924296787164,177481,190095,148372,1277
1783334344901168273,2026-07-06T17:39:04.901+07:00,540195924296787164,177457,190047,148427,1276
1783334344919350091,2026-07-06T17:39:04.919+07:00,540195924296787164,177470,190154,148453,1283
1783334344937531909,2026-07-06T17:39:04.937+07:00,540195924296787164,177487,190101,148498,1228
1783334344955713727,2026-07-06T17:39:04.955+07:00,540195924296787164,177479,190210,148537,1190
1783334344973895545,2026-07-06T17:39:04.973+07:00,540195924296787164,177569,190192,148546,1259
1783334344992077363,2026-07-06T17:39:04.992+07:00,540195924296787164,177572,190294,148609,1260
1783334345010259181,2026-07-06T17:39:05.010+07:00,540195924296787164,177590,190338,148619,1251
1783334345028440999,2026-07-06T17:39:05.028+07:00,540195924296787164,177581,190345,148646,1256
1783334345046622817,2026-07-06T17:39:05.046+07:00,540195924296787164,177612,190403,148672,1316
1783334345064804635,2026-07-06T17:39:05.064+07:00,540195924296787164,177550,190362,148670,1229
1783334345082986453,2026-07-06T17:39:05.082+07:00,540195924296787164,177648,190478,148770,1292
1783334345101168271,2026-07-06T17:39:05.101+07:00,540195924296787164,177635,190557,148741,1239
1783334345119350089,2026-07-06T17:39:05.119+07:00,540195924296787164,177711,190626,148859,1265
1783334345137531907,2026-07-06T17:39:05.137+07:00,540195924296787164,177698,190676,148927,1265
1783334345155713725,2026-07-06T17:39:05.155+07:00,540195924296787164,177719,190779,148956,1286
1783334345173895543,2026-07-06T17:39:05.173+07:00,540195924296787164,177759,190818,149008,1285
1783334345192077361,2026-07-06T17:39:05.192+07:00,540195924296787164,177801,190933,149099,1319
1783334345210259179,2026-07-06T17:39:05.210+07:00,540195924296787164,177838,190989,149086,1267
1783334345228440997,2026-07-06T17:39:05.228+07:00,540195924296787164,177905,191092,149165,1277
1783334345246622815,2026-07-06T17:39:05.246+07:00,540195924296787164,178066,191243,149212,1308
1783334345264804633,2026-07-06T17:39:05.264+07:00,540195924296787164,178051,191256,149209,1282
1783334345282986451,2026-07-06T17:39:05.282+07:00,540195925079267155,178104,191390,149351,1285
1783334345301168269,2026-07-06T17:39:05.301+07:00,540195925079267155,178126,191507,149378,1234
1783334345319350087,2026-07-06T17:39:05.319+07:00,540195925079267155,178140,191498,149356,1260
1783334345337531905,2026-07-06T17:39:05.337+07:00,540195925079267155,178060,191469,149353,1256
1783334345355713723,2026-07-06T17:39:05.355+07:00,540195925079267155,178001,191444,149334,1280
1783334345373895541,2026-07-06T17:39:05.373+07:00,540195925079267155,177946,191348,149327,1359
1783334345392077359,2026-07-06T17:39:05.392+07:00,540195925079267155,177922,191262,149264,1316
1783334345410259177,2026-07-06T17:39:05.410+07:00,540195925079267155,177758,191086,149221,1260
1783334345428440995,2026-07-06T17:39:05.428+07:00,540195925079267155,177683,191066,149194,1284
1783334345446622813,2026-07-06T17:39:05.446+07:00,540195925079267155,177705,191103,149187,1322
1783334345464804631,2026-07-06T17:39:05.464+07:00,540195925079267155,177607,191067,149220,1276
1783334345482986449,2026-07-06T17:39:05.482+07:00,540195925079267155,177552,191078,149222,1310
1783334345501168267,2026-07-06T17:39:05.501+07:00,540195925079267155,177533,191022,149197,1311
1783334345519350085,2026-07-06T17:39:05.519+07:00,540195925079267155,177473,191051,149219,1275
1783334345537531903,2026-07-06T17:39:05.537+07:00,540195925079267155,177467,191035,149138,1313
1783334345555713721,2026-07-06T17:39:05.555+07:00,540195925079267155,177425,191086,149181,1240
1783334345573895539,2026-07-06T17:39:05.573+07:00,540195925079267155,177426,191104,149212,1216
1783334345592077357,2026-07-06T17:39:05.592+07:00,540195925079267155,177520,191226,149268,1290
1783334345610259175,2026-07-06T17:39:05.610+07:00,540195925079267155,177473,191242,149213,1296
1783334345628440993,2026-07-06T17:39:05.628+07:00,540195925079267155,177401,191239,149218,1253
1783334345646622811,2026-07-06T17:39:05.646+07:00,540195925079267155,177310,191164,149183,1205
1783334345664804629,2026-07-06T17:39:05.664+07:00,540195925079267155,177358,191139,149247,1205
1783334345682986447,2026-07-06T17:39:05.682+07:00,540195925079267155,177289,191239,149291,1238
1783334345701168265,2026-07-06T17:39:05.701+07:00,540195925079267155,177268,191240,149257,1275
1783334345719350083,2026-07-06T17:39:05.719+07:00,540195925079267155,177272,191238,149250,1288
1783334345737531901,2026-07-06T17:39:05.737+07:00,540195925079267155,177297,191287,149252,1308
1783334345755713719,2026-07-06T17:39:05.755+07:00,540195925079267155,177259,191319,149322,1316
1783334345773895537,2026-07-06T17:39:05.773+07:00,540195925079267155,177258,191351,149308,1247
1783334345792077355,2026-07-06T17:39:05.792+07:00,540195925079267155,177303,191351,149402,1230
1783334345810259173,2026-07-06T17:39:05.810+07:00,540195925079267155,177265,191437,149413,1189
1783334345828440991,2026-07-06T17:39:05.828+07:00,540195925079267155,177234,191402,149341,1194
1783334345846622809,2026-07-06T17:39:05.846+07:00,540195925079267155,177266,191510,149450,1194
1783334345864804627,2026-07-06T17:39:05.864+07:00,540195925079267155,177330,191571,149469,1265
1783334345882986445,2026-07-06T17:39:05.882+07:00,540195925079267155,177316,191626,149490,1294
1783334345901168263,2026-07-06T17:39:05.901+07:00,540195925079267155,177349,191680,149574,1305
1783334345919350081,2026-07-06T17:39:05.919+07:00,540195925079267155,177385,191721,149560,1265
1783334345937531899,2026-07-06T17:39:05.937+07:00,540195925079267155,177408,191763,149543,1265
1783334345955713717,2026-07-06T17:39:05.955+07:00,540195925079267155,177387,191802,149533,1287
1783334345973895535,2026-07-06T17:39:05.973+07:00,540195925079267155,177400,191780,149506,1302
1783334345992077353,2026-07-06T17:39:05.992+07:00,540195925079267155,177374,191726,149491,1268
1783334346010259171,2026-07-06T17:39:06.010+07:00,540195925079267155,177270,191611,149407,1238
1783334346028440989,2026-07-06T17:39:06.028+07:00,540195925079267155,177214,191583,149433,1272
1783334346046622807,2026-07-06T17:39:06.046+07:00,540195925079267155,177101,191462,149351,1296
1783334346064804625,2026-07-06T17:39:06.064+07:00,540195925825378858,176967,191416,149269,1238
1783334346082986443,2026-07-06T17:39:06.082+07:00,540195925825378858,176901,191364,149226,1247
1783334346101168261,2026-07-06T17:39:06.101+07:00,540195925825378858,176839,191329,149191,1258
1783334346119350079,2026-07-06T17:39:06.119+07:00,540195925825378858,176751,191263,149160,1214
1783334346137531897,2026-07-06T17:39:06.137+07:00,540195925825378858,176747,191195,149055,1245
1783334346155713715,2026-07-06T17:39:06.155+07:00,540195925825378858,176727,191225,149078,1264
1783334346173895533,2026-07-06T17:39:06.173+07:00,540195925825378858,176752,191211,149063,1297
1783334346192077351,2026-07-06T17:39:06.192+07:00,540195925825378858,176605,191108,149055,1266
1783334346210259169,2026-07-06T17:39:06.210+07:00,540195925825378858,176548,191071,149037,1254
1783334346228440987,2026-07-06T17:39:06.228+07:00,540195925825378858,176518,191025,149011,1230
1783334346246622805,2026-07-06T17:39:06.246+07:00,540195925825378858,176448,191012,148968,1207
1783334346264804623,2026-07-06T17:39:06.264+07:00,540195925825378858,176355,190916,148978,1245
1783334346282986441,2026-07-06T17:39:06.282+07:00,540195925825378858,176250,190844,148879,1206
1783334346301168259,2026-07-06T17:39:06.301+07:00,540195925825378858,176138,190795,148866,1218
1783334346319350077,2026-07-06T17:39:06.319+07:00,540195925825378858,176110,190765,148878,1202
1783334346337531895,2026-07-06T17:39:06.337+07:00,540195925825378858,176075,190752,148868,1249
1783334346355713713,2026-07-06T17:39:06.355+07:00,540195925825378858,176016,190748,148860,1232
1783334346373895531,2026-07-06T17:39:06.373+07:00,540195925825378858,175941,190743,148821,1304
1783334346392077349,2026-07-06T17:39:06.392+07:00,540195925825378858,175958,190674,148763,1274
1783334346410259167,2026-07-06T17:39:06.410+07:00,540195925825378858,175841,190634,148713,1220
1783334346428440985,2026-07-06T17:39:06.428+07:00,540195925825378858,175840,190563,148726,1254
1783334346446622803,2026-07-06T17:39:06.446+07:00,540195925825378858,175719,190459,148692,1225
1783334346464804621,2026-07-06T17:39:06.464+07:00,540195925825378858,175678,190402,148700,1220
1783334346482986439,2026-07-06T17:39:06.482+07:00,540195925825378858,175584,190389,148660,1240
1783334346501168257,2026-07-06T17:39:06.501+07:00,540195925825378858,175506,190302,148610,1207
1783334346519350075,2026-07-06T17:39:06.519+07:00,540195925825378858,175500,190306,148569,1208
1783334346537531893,2026-07-06T17:39:06.537+07:00,540195925825378858,175550,190370,148601,1242
1783334346555713711,2026-07-06T17:39:06.555+07:00,540195925825378858,175543,190367,148532,1224
1783334346573895529,2026-07-06T17:39:06.573+07:00,540195925825378858,175601,190442,148583,1224
1783334346592077347,2026-07-06T17:39:06.592+07:00,540195925825378858,175664,190577,148572,1240
1783334346610259165,2026-07-06T17:39:06.610+07:00,540195925825378858,175633,190555,148537,1171
1783334346628440983,2026-07-06T17:39:06.628+07:00,540195925825378858,175647,190561,148485,1194
1783334346646622801,2026-07-06T17:39:06.646+07:00,540195925825378858,175681,190573,148450,1247
1783334346664804619,2026-07-06T17:39:06.664+07:00,540195925825378858,175559,190402,148327,1209
1783334346682986437,2026-07-06T17:39:06.682+07:00,540195925825378858,175376,190307,148262,1184
1783334346701168255,2026-07-06T17:39:06.701+07:00,540195925825378858,175244,190209,148230,1204
1783334346719350073,2026-07-06T17:39:06.719+07:00,540195925825378858,175106,190040,148137,1168
1783334346737531891,2026-07-06T17:39:06.737+07:00,540195925825378858,175063,189964,148075,1209
1783334346755713709,2026-07-06T17:39:06.755+07:00,540195925825378858,175038,189984,148006,1270
1783334346773895527,2026-07-06T17:39:06.773+07:00,540195925825378858,175027,189960,147995,1303
1783334346792077345,2026-07-06T17:39:06.792+07:00,540195925825378858,175029,189976,147977,1272
1783334346810259163,2026-07-06T17:39:06.810+07:00,540195926644207313,175025,190012,147951,1246
1783334346828440981,2026-07-06T17:39:06.828+07:00,540195926644207313,175086,190061,147969,1249
1783334346846622799,2026-07-06T17:39:06.846+07:00,540195926644207313,175134,190147,148018,1277
1783334346864804617,2026-07-06T17:39:06.864+07:00,540195926644207313,175189,190182,148025,1272
1783334346882986435,2026-07-06T17:39:06.882+07:00,540195926644207313,175163,190193,148029,1212
1783334346901168253,2026-07-06T17:39:06.901+07:00,540195926644207313,175154,190250,148051,1219
1783334346919350071,2026-07-06T17:39:06.919+07:00,540195926644207313,175141,190239,148095,1243
1783334346937531889,2026-07-06T17:39:06.937+07:00,540195926644207313,175106,190251,148068,1268
1783334346955713707,2026-07-06T17:39:06.955+07:00,540195926644207313,175193,190342,148141,1308
1783334346973895525,2026-07-06T17:39:06.973+07:00,540195926644207313,175105,190250,148076,1276
1783334346992077343,2026-07-06T17:39:06.992+07:00,540195926644207313,175081,190259,148038,1223
1783334347010259161,2026-07-06T17:39:07.010+07:00,540195926644207313,175095,190270,148125,1251
1783334347028440979,2026-07-06T17:39:07.028+07:00,540195926644207313,175114,190332,148085,1217
1783334347046622797,2026-07-06T17:39:07.046+07:00,540195926644207313,175149,190386,148126,1269
1783334347064804615,2026-07-06T17:39:07.064+07:00,540195926644207313,175136,190381,148168,1283
1783334347082986433,2026-07-06T17:39:07.082+07:00,540195926644207313,175219,190459,148228,1263
1783334347101168251,2026-07-06T17:39:07.101+07:00,540195926644207313,175250,190460,148202,1219
1783334347119350069,2026-07-06T17:39:07.119+07:00,540195926644207313,175200,190579,148150,1257
1783334347137531887,2026-07-06T17:39:07.137+07:00,540195926644207313,175338,190707,148312,1335
1783334347155713705,2026-07-06T17:39:07.155+07:00,540195926644207313,175324,190701,148295,1262
1783334347173895523,2026-07-06T17:39:07.173+07:00,540195926644207313,175366,190806,148386,1282
1783334347192077341,2026-07-06T17:39:07.192+07:00,540195926644207313,175396,190900,148388,1297
1783334347210259159,2026-07-06T17:39:07.210+07:00,540195926644207313,175439,190983,148490,1252
1783334347228440977,2026-07-06T17:39:07.228+07:00,540195926644207313,175532,191056,148549,1276
1783334347246622795,2026-07-06T17:39:07.246+07:00,540195926644207313,175533,191169,148552,1263
1783334347264804613,2026-07-06T17:39:07.264+07:00,540195926644207313,175524,191209,148590,1217
1783334347282986431,2026-07-06T17:39:07.282+07:00,540195926644207313,175500,191185,148581,1285
1783334347301168249,2026-07-06T17:39:07.301+07:00,540195926644207313,175451,191159,148570,1254
1783334347319350067,2026-07-06T17:39:07.319+07:00,540195926644207313,175406,191091,148539,1251
1783334347337531885,2026-07-06T17:39:07.337+07:00,540195926644207313,175351,191120,148551,1318
1783334347355713703,2026-07-06T17:39:07.355+07:00,540195926644207313,175269,191094,148506,1313
1783334347373895521,2026-07-06T17:39:07.373+07:00,540195926644207313,175198,191045,148478,1318
1783334347392077339,2026-07-06T17:39:07.392+07:00,540195926644207313,175167,191076,148453,1243
1783334347410259157,2026-07-06T17:39:07.410+07:00,540195926644207313,175114,191083,148491,1284
1783334347428440975,2026-07-06T17:39:07.428+07:00,540195926644207313,175096,191143,148490,1306
1783334347446622793,2026-07-06T17:39:07.446+07:00,540195926644207313,175245,191146,148517,1300
1783334347464804611,2026-07-06T17:39:07.464+07:00,540195926644207313,175171,191151,148450,1282
1783334347482986429,2026-07-06T17:39:07.482+07:00,540195926644207313,175126,191093,148395,1229
1783334347501168247,2026-07-06T17:39:07.501+07:00,540195926644207313,175066,191141,148489,1294
1783334347519350065,2026-07-06T17:39:07.519+07:00,540195926644207313,175065,191149,148467,1273
1783334347537531883,2026-07-06T17:39:07.537+07:00,540195926644207313,175033,191089,148473,1289
1783334347555713701,2026-07-06T17:39:07.555+07:00,540195926644207313,175028,191067,148428,1333
1783334347573895519,2026-07-06T17:39:07.573+07:00,540195926644207313,174972,191128,148479,1322
1783334347592077337,2026-07-06T17:39:07.592+07:00,540195926644207313,174967,191161,148403,1319
1783334347610259155,2026-07-06T17:39:07.610+07:00,540195926644207313,175000,191229,148467,1241
1783334347628440973,2026-07-06T17:39:07.628+07:00,540195927426597278,175054,191281,148507,1257
1783334347646622791,2026-07-06T17:39:07.646+07:00,540195927426597278,175120,191346,148610,1237
1783334347664804609,2026-07-06T17:39:07.664+07:00,540195927426597278,175114,191358,148568,1235
1783334347682986427,2026-07-06T17:39:07.682+07:00,540195927426597278,175092,191365,148570,1221
1783334347701168245,2026-07-06T17:39:07.701+07:00,540195927426597278,175078,191352,148559,1253
1783334347719350063,2026-07-06T17:39:07.719+07:00,540195927426597278,175090,191452,148573,1213
1783334347737531881,2026-07-06T17:39:07.737+07:00,540195927426597278,175124,191575,148636,1297
1783334347755713699,2026-07-06T17:39:07.755+07:00,540195927426597278,175193,191568,148661,1266
1783334347773895517,2026-07-06T17:39:07.773+07:00,540195927426597278,175261,191709,148682,1306
1783334347792077335,2026-07-06T17:39:07.792+07:00,540195927426597278,175362,191826,148697,1254
1783334347810259153,2026-07-06T17:39:07.810+07:00,540195927426597278,175414,191914,148834,1238
1783334347828440971,2026-07-06T17:39:07.828+07:00,540195927426597278,175483,191960,148806,1235
1783334347846622789,2026-07-06T17:39:07.846+07:00,540195927426597278,175531,192062,148899,1239
1783334347864804607,2026-07-06T17:39:07.864+07:00,540195927426597278,175602,192072,148881,1238
1783334347882986425,2026-07-06T17:39:07.882+07:00,540195927426597278,175624,192068,148902,1207
1783334347901168243,2026-07-06T17:39:07.901+07:00,540195927426597278,175611,192188,148935,1266
1783334347919350061,2026-07-06T17:39:07.919+07:00,540195927426597278,175650,192214,148913,1245
1783334347937531879,2026-07-06T17:39:07.937+07:00,540195927426597278,175582,192238,148922,1218
1783334347955713697,2026-07-06T17:39:07.955+07:00,540195927426597278,175561,192176,148888,1211
1783334347973895515,2026-07-06T17:39:07.973+07:00,540195927426597278,175644,192160,148805,1267
1783334347992077333,2026-07-06T17:39:07.992+07:00,540195927426597278,175605,192254,148844,1205
1783334348010259151,2026-07-06T17:39:08.010+07:00,540195927426597278,175545,192299,148792,1222
1783334348028440969,2026-07-06T17:39:08.028+07:00,540195927426597278,175650,192368,148823,1214
1783334348046622787,2026-07-06T17:39:08.046+07:00,540195927426597278,175671,192411,148845,1200
1783334348064804605,2026-07-06T17:39:08.064+07:00,540195927426597278,175731,192478,148893,1313
1783334348082986423,2026-07-06T17:39:08.082+07:00,540195927426597278,175743,192537,148923,1274
1783334348101168241,2026-07-06T17:39:08.101+07:00,540195927426597278,175777,192590,148931,1316
1783334348119350059,2026-07-06T17:39:08.119+07:00,540195927426597278,175832,192701,148977,1300
1783334348137531877,2026-07-06T17:39:08.137+07:00,540195927426597278,175781,192680,148996,1258
1783334348155713695,2026-07-06T17:39:08.155+07:00,540195927426597278,175844,192693,149028,1266
1783334348173895513,2026-07-06T17:39:08.173+07:00,540195927426597278,175945,192853,149079,1324
1783334348192077331,2026-07-06T17:39:08.192+07:00,540195927426597278,175980,192994,149119,1296
1783334348210259149,2026-07-06T17:39:08.210+07:00,540195927426597278,176082,193062,149209,1333
1783334348228440967,2026-07-06T17:39:08.228+07:00,540195927426597278,176190,193164,149251,1304
1783334348246622785,2026-07-06T17:39:08.246+07:00,540195927426597278,176269,193274,149340,1339
1783334348264804603,2026-07-06T17:39:08.264+07:00,540195927426597278,176320,193343,149340,1324
1783334348282986421,2026-07-06T17:39:08.282+07:00,540195927426597278,176370,193486,149414,1306
1783334348301168239,2026-07-06T17:39:08.301+07:00,540195927426597278,176329,193498,149388,1309
1783334348319350057,2026-07-06T17:39:08.319+07:00,540195927426597278,176368,193505,149454,1310
1783334348337531875,2026-07-06T17:39:08.337+07:00,540195927426597278,176396,193564,149475,1306
1783334348355713693,2026-07-06T17:39:08.355+07:00,540195927426597278,176378,193588,149493,1257
1783334348373895511,2026-07-06T17:39:08.373+07:00,540195927426597278,176480,193740,149559,1267
1783334348392077329,2026-07-06T17:39:08.392+07:00,540195927426597278,176523,193795,149607,1256
1783334348410259147,2026-07-06T17:39:08.410+07:00,540195928281848967,176588,193890,149672,1263
1783334348428440965,2026-07-06T17:39:08.428+07:00,540195928281848967,176716,194002,149704,1255
1783334348446622783,2026-07-06T17:39:08.446+07:00,540195928281848967,176831,194126,149791,1252
1783334348464804601,2026-07-06T17:39:08.464+07:00,540195928281848967,176894,194313,149828,1218
1783334348482986419,2026-07-06T17:39:08.482+07:00,540195928281848967,177017,194492,149971,1183
1783334348501168237,2026-07-06T17:39:08.501+07:00,540195928281848967,177111,194645,150071,1226
1783334348519350055,2026-07-06T17:39:08.519+07:00,540195928281848967,177321,194857,150178,1296
1783334348537531873,2026-07-06T17:39:08.537+07:00,540195928281848967,177376,194940,150225,1233
1783334348555713691,2026-07-06T17:39:08.555+07:00,540195928281848967,177425,194940,150271,1232
1783334348573895509,2026-07-06T17:39:08.573+07:00,540195928281848967,177428,194982,150294,1229
1783334348592077327,2026-07-06T17:39:08.592+07:00,540195928281848967,177389,195025,150284,1241
1783334348610259145,2026-07-06T17:39:08.610+07:00,540195928281848967,177421,195001,150291,1259
1783334348628440963,2026-07-06T17:39:08.628+07:00,540195928281848967,177322,194912,150301,1297
1783334348646622781,2026-07-06T17:39:08.646+07:00,540195928281848967,177317,194959,150295,1265
1783334348664804599,2026-07-06T17:39:08.664+07:00,540195928281848967,177308,194950,150296,1276
1783334348682986417,2026-07-06T17:39:08.682+07:00,540195928281848967,177405,194992,150293,1332
1783334348701168235,2026-07-06T17:39:08.701+07:00,540195928281848967,177354,195059,150326,1265
1783334348719350053,2026-07-06T17:39:08.719+07:00,540195928281848967,177409,195097,150344,1271
1783334348737531871,2026-07-06T17:39:08.737+07:00,540195928281848967,177491,195086,150363,1206
1783334348755713689,2026-07-06T17:39:08.755+07:00,540195928281848967,177540,195107,150401,1246
1783334348773895507,2026-07-06T17:39:08.773+07:00,540195928281848967,177579,195214,150472,1307
1783334348792077325,2026-07-06T17:39:08.792+07:00,540195928281848967,177601,195333,150424,1254
1783334348810259143,2026-07-06T17:39:08.810+07:00,540195928281848967,177663,195311,150484,1286
1783334348828440961,2026-07-06T17:39:08.828+07:00,540195928281848967,177744,195433,150515,1290
1783334348846622779,2026-07-06T17:39:08.846+07:00,540195928281848967,177752,195403,150567,1255
1783334348864804597,2026-07-06T17:39:08.864+07:00,540195928281848967,177757,195489,150574,1232
1783334348882986415,2026-07-06T17:39:08.882+07:00,540195928281848967,177818,195532,150611,1259
1783334348901168233,2026-07-06T17:39:08.901+07:00,540195928281848967,177859,195607,150670,1268
1783334348919350051,2026-07-06T17:39:08.919+07:00,540195928281848967,177896,195708,150710,1287
1783334348937531869,2026-07-06T17:39:08.937+07:00,540195928281848967,177894,195756,150705,1207
1783334348955713687,2026-07-06T17:39:08.955+07:00,540195928281848967,178010,195836,150754,1245
1783334348973895505,2026-07-06T17:39:08.973+07:00,540195928281848967,178037,195841,150802,1252
1783334348992077323,2026-07-06T17:39:08.992+07:00,540195928281848967,178054,195901,150849,1286
1783334349010259141,2026-07-06T17:39:09.010+07:00,540195928281848967,178055,195928,150943,1266
1783334349028440959,2026-07-06T17:39:09.028+07:00,540195928281848967,178007,195932,150874,1254
1783334349046622777,2026-07-06T17:39:09.046+07:00,540195928281848967,178002,195920,150942,1304
1783334349064804595,2026-07-06T17:39:09.064+07:00,540195928281848967,178005,195913,150927,1232
1783334349082986413,2026-07-06T17:39:09.082+07:00,540195928281848967,178059,196024,150983,1258
1783334349101168231,2026-07-06T17:39:09.101+07:00,540195928281848967,178126,196128,150991,1245
1783334349119350049,2026-07-06T17:39:09.119+07:00,540195928281848967,178212,196193,151048,1259
1783334349137531867,2026-07-06T17:39:09.137+07:00,540195928281848967,178321,196237,151068,1207
1783334349155713685,2026-07-06T17:39:09.155+07:00,540195928281848967,178332,196252,151118,1215
1783334349173895503,2026-07-06T17:39:09.173+07:00,540195928281848967,178298,196193,151065,1201
1783334349192077321,2026-07-06T17:39:09.192+07:00,540195928281848967,178242,196143,151082,1251
1783334349210259139,2026-07-06T17:39:09.210+07:00,540195928281848967,178145,196040,151022,1247
1783334349228440957,2026-07-06T17:39:09.228+07:00,540195928281848967,178000,195979,150996,1260
1783334349246622775,2026-07-06T17:39:09.246+07:00,540195928281848967,177940,195838,150896,1299
1783334349264804593,2026-07-06T17:39:09.264+07:00,540195929064330484,177869,195826,150887,1314
1783334349282986411,2026-07-06T17:39:09.282+07:00,540195929064330484,177804,195763,150866,1253
1783334349301168229,2026-07-06T17:39:09.301+07:00,540195929064330484,177660,195660,150951,1268
1783334349319350047,2026-07-06T17:39:09.319+07:00,540195929064330484,177359,195378,150940,1260
1783334349337531865,2026-07-06T17:39:09.337+07:00,540195929064330484,177155,195239,151009,1314
1783334349355713683,2026-07-06T17:39:09.355+07:00,540195929064330484,177062,195401,151218,1303
1783334349373895501,2026-07-06T17:39:09.373+07:00,540195929064330484,177024,195597,151431,1236
1783334349392077319,2026-07-06T17:39:09.392+07:00,540195929064330484,177100,195731,151611,1247
1783334349410259137,2026-07-06T17:39:09.410+07:00,540195929064330484,177131,195919,151708,1282
1783334349428440955,2026-07-06T17:39:09.428+07:00,540195929064330484,177202,196043,151840,1263
1783334349446622773,2026-07-06T17:39:09.446+07:00,540195929064330484,177331,196211,151964,1279
1783334349464804591,2026-07-06T17:39:09.464+07:00,540195929064330484,177353,196362,152071,1267
1783334349482986409,2026-07-06T17:39:09.482+07:00,540195929064330484,177458,196480,152159,1245
1783334349501168227,2026-07-06T17:39:09.501+07:00,540195929064330484,177524,196625,152352,1309
1783334349519350045,2026-07-06T17:39:09.519+07:00,540195929064330484,177669,196855,152445,1306
1783334349537531863,2026-07-06T17:39:09.537+07:00,540195929064330484,177830,197103,152609,1313
1783334349555713681,2026-07-06T17:39:09.555+07:00,540195929064330484,177851,197211,152726,1281
1783334349573895499,2026-07-06T17:39:09.573+07:00,540195929064330484,177951,197444,152919,1305
1783334349592077317,2026-07-06T17:39:09.592+07:00,540195929064330484,178016,197489,152927,1271
1783334349610259135,2026-07-06T17:39:09.610+07:00,540195929064330484,178109,197597,153022,1299
1783334349628440953,2026-07-06T17:39:09.628+07:00,540195929064330484,178189,197617,153082,1307
1783334349646622771,2026-07-06T17:39:09.646+07:00,540195929064330484,178235,197684,153153,1294
1783334349664804589,2026-07-06T17:39:09.664+07:00,540195929064330484,178260,197741,153147,1291
1783334349682986407,2026-07-06T17:39:09.682+07:00,540195929064330484,178394,197733,153157,1319
1783334349701168225,2026-07-06T17:39:09.701+07:00,540195929064330484,178409,197745,153177,1325
1783334349719350043,2026-07-06T17:39:09.719+07:00,540195929064330484,178423,197704,153244,1313
1783334349737531861,2026-07-06T17:39:09.737+07:00,540195929064330484,178490,197773,153328,1282
1783334349755713679,2026-07-06T17:39:09.755+07:00,540195929064330484,178500,197778,153341,1318
1783334349773895497,2026-07-06T17:39:09.773+07:00,540195929064330484,178584,197867,153419,1292
1783334349792077315,2026-07-06T17:39:09.792+07:00,540195929064330484,178665,197914,153412,1303
1783334349810259133,2026-07-06T17:39:09.810+07:00,540195929064330484,178656,197891,153453,1272
1783334349828440951,2026-07-06T17:39:09.828+07:00,540195929064330484,178682,197840,153374,1302
1783334349846622769,2026-07-06T17:39:09.846+07:00,540195929064330484,178637,197849,153406,1334
1783334349864804587,2026-07-06T17:39:09.864+07:00,540195929064330484,178600,197808,153315,1212
1783334349882986405,2026-07-06T17:39:09.882+07:00,540195929064330484,178625,197762,153292,1273
1783334349901168223,2026-07-06T17:39:09.901+07:00,540195929064330484,178595,197812,153219,1276
1783334349919350041,2026-07-06T17:39:09.919+07:00,540195929064330484,178598,197795,153153,1271
1783334349937531859,2026-07-06T17:39:09.937+07:00,540195929064330484,178625,197771,153129,1276
1783334349955713677,2026-07-06T17:39:09.955+07:00,540195929064330484,178561,197762,153084,1285
1783334349973895495,2026-07-06T17:39:09.973+07:00,540195929064330484,178520,197635,153009,1268
1783334349992077313,2026-07-06T17:39:09.992+07:00,540195929064330484,178516,197568,152932,1323
1783334350010259131,2026-07-06T17:39:10.010+07:00,540195929064330484,178581,197380,152684,1322
1783334350028440949,2026-07-06T17:39:10.028+07:00,540195929064330484,178695,197350,152423,1349
1783334350046622767,2026-07-06T17:39:10.046+07:00,540195929810411659,178877,197402,152370,1304
1783334350064804585,2026-07-06T17:39:10.064+07:00,540195929810411659,178922,197347,152303,1292
1783334350082986403,2026-07-06T17:39:10.082+07:00,540195929810411659,178960,197363,152257,1269
1783334350101168221,2026-07-06T17:39:10.101+07:00,540195929810411659,178942,197256,152228,1274
1783334350119350039,2026-07-06T17:39:10.119+07:00,540195929810411659,178922,197188,152249,1285
1783334350137531857,2026-07-06T17:39:10.137+07:00,540195929810411659,178937,197235,152243,1311
1783334350155713675,2026-07-06T17:39:10.155+07:00,540195929810411659,178906,197152,152322,1316
1783334350173895493,2026-07-06T17:39:10.173+07:00,540195929810411659,178881,197118,152277,1276
1783334350192077311,2026-07-06T17:39:10.192+07:00,540195929810411659,178895,197133,152294,1315
1783334350210259129,2026-07-06T17:39:10.210+07:00,540195929810411659,178987,197165,152253,1298
1783334350228440947,2026-07-06T17:39:10.228+07:00,540195929810411659,179163,197218,152255,1315
1783334350246622765,2026-07-06T17:39:10.246+07:00,540195929810411659,179246,197233,152169,1290
1783334350264804583,2026-07-06T17:39:10.264+07:00,540195929810411659,179471,197284,152153,1271
1783334350282986401,2026-07-06T17:39:10.282+07:00,540195929810411659,179590,197307,152113,1260
1783334350301168219,2026-07-06T17:39:10.301+07:00,540195929810411659,179720,197349,152054,1308
1783334350319350037,2026-07-06T17:39:10.319+07:00,540195929810411659,179892,197413,152070,1280
1783334350337531855,2026-07-06T17:39:10.337+07:00,540195929810411659,180049,197440,152089,1283
1783334350355713673,2026-07-06T17:39:10.355+07:00,540195929810411659,180142,197522,152074,1253
1783334350373895491,2026-07-06T17:39:10.373+07:00,540195929810411659,180238,197561,152100,1297
1783334350392077309,2026-07-06T17:39:10.392+07:00,540195929810411659,180321,197593,152108,1276
1783334350410259127,2026-07-06T17:39:10.410+07:00,540195929810411659,180333,197563,152102,1258
1783334350428440945,2026-07-06T17:39:10.428+07:00,540195929810411659,180319,197518,152071,1272
1783334350446622763,2026-07-06T17:39:10.446+07:00,540195929810411659,180346,197485,152064,1246
1783334350464804581,2026-07-06T17:39:10.464+07:00,540195929810411659,180245,197478,151981,1266
1783334350482986399,2026-07-06T17:39:10.482+07:00,540195929810411659,180219,197440,152035,1260
1783334350501168217,2026-07-06T17:39:10.501+07:00,540195929810411659,180194,197338,151983,1273
1783334350519350035,2026-07-06T17:39:10.519+07:00,540195929810411659,180063,197278,151960,1268
1783334350537531853,2026-07-06T17:39:10.537+07:00,540195929810411659,180069,197238,151945,1377
1783334350555713671,2026-07-06T17:39:10.555+07:00,540195929810411659,180038,197129,151805,1258
1783334350573895489,2026-07-06T17:39:10.573+07:00,540195929810411659,179998,197131,151894,1321
1783334350592077307,2026-07-06T17:39:10.592+07:00,540195929810411659,179945,197028,151837,1288
