host_timestamp_ns,host_timestamp_iso,pmd_timestamp,ppg0,ppg1,ppg2,ambient
1783333815181298081,2026-07-06T17:30:15.181+07:00,540195394469309128,181809,198103,148527,1286
1783333815199479899,2026-07-06T17:30:15.199+07:00,540195394469309128,181875,198235,148524,1292
1783333815217661717,2026-07-06T17:30:15.217+07:00,540195394469309128,182036,198267,148538,1319
1783333815235843535,2026-07-06T17:30:15.235+07:00,540195394469309128,182027,198237,148506,1230
1783333815254025353,2026-07-06T17:30:15.254+07:00,540195394469309128,182062,198241,148589,1232
1783333815272207171,2026-07-06T17:30:15.272+07:00,540195394469309128,182039,198238,148646,1277
1783333815290388989,2026-07-06T17:30:15.290+07:00,540195394469309128,181931,198212,148614,1242
1783333815308570807,2026-07-06T17:30:15.308+07:00,540195394469309128,181823,198108,148631,1204
1783333815326752625,2026-07-06T17:30:15.326+07:00,540195394469309128,181627,197947,148529,1211
1783333815344934443,2026-07-06T17:30:15.344+07:00,540195394469309128,181439,197676,148317,1233
1783333815363116261,2026-07-06T17:30:15.363+07:00,540195394469309128,181166,197443,148143,1307
1783333815381298079,2026-07-06T17:30:15.381+07:00,540195394469309128,180919,197146,147943,1308
1783333815399479897,2026-07-06T17:30:15.399+07:00,540195394469309128,180562,196710,147665,1254
1783333815417661715,2026-07-06T17:30:15.417+07:00,540195394469309128,180186,196298,147411,1291
1783333815435843533,2026-07-06T17:30:15.435+07:00,540195394469309128,179884,196010,147191,1297
1783333815454025351,2026-07-06T17:30:15.454+07:00,540195394469309128,179595,195687,146904,1270
1783333815472207169,2026-07-06T17:30:15.472+07:00,540195394469309128,179399,195451,146690,1328
1783333815490388987,2026-07-06T17:30:15.490+07:00,540195394469309128,179243,195302,146540,1327
1783333815508570805,2026-07-06T17:30:15.508+07:00,540195394469309128,179101,195161,146376,1255
1783333815526752623,2026-07-06T17:30:15.526+07:00,540195394469309128,178955,195100,146313,1285
1783333815544934441,2026-07-06T17:30:15.544+07:00,540195394469309128,178877,195041,146163,1303
1783333815563116259,2026-07-06T17:30:15.563+07:00,540195394469309128,178744,195047,146082,1275
1783333815581298077,2026-07-06T17:30:15.581+07:00,540195394469309128,178681,194999,146015,1319
1783333815599479895,2026-07-06T17:30:15.599+07:00,540195394469309128,178534,194904,145920,1274
1783333815617661713,2026-07-06T17:30:15.617+07:00,540195394469309128,178469,194807,145836,1349
1783333815635843531,2026-07-06T17:30:15.635+07:00,540195394469309128,178294,194679,145691,1263
1783333815654025349,2026-07-06T17:30:15.654+07:00,540195394469309128,178175,194538,145536,1272
1783333815672207167,2026-07-06T17:30:15.672+07:00,540195394469309128,178127,194445,145467,1321
1783333815690388985,2026-07-06T17:30:15.690+07:00,540195394469309128,178008,194411,145361,1311
1783333815708570803,2026-07-06T17:30:15.708+07:00,540195394469309128,177927,194351,145326,1301
1783333815726752621,2026-07-06T17:30:15.726+07:00,540195394469309128,177910,194422,145309,1323
1783333815744934439,2026-07-06T17:30:15.744+07:00,540195394469309128,177881,194407,145281,1288
1783333815763116257,2026-07-06T17:30:15.763+07:00,540195394469309128,177924,194458,145262,1284
1783333815781298075,2026-07-06T17:30:15.781+07:00,540195394469309128,177956,194523,145238,1231
1783333815799479893,2026-07-06T17:30:15.799+07:00,540195394469309128,178027,194568,145322,1269
1783333815817661711,2026-07-06T17:30:15.817+07:00,540195394469309128,178079,194727,145372,1296
1783333815835843529,2026-07-06T17:30:15.835+07:00,540195394469309128,178122,194858,145455,1310
1783333815854025347,2026-07-06T17:30:15.854+07:00,540195394469309128,178170,194913,145481,1276
1783333815872207165,2026-07-06T17:30:15.872+07:00,540195394469309128,178259,195051,145563,1330
1783333815890388983,2026-07-06T17:30:15.890+07:00,540195394469309128,178252,195183,145604,1287
1783333815908570801,2026-07-06T17:30:15.908+07:00,540195395197224464,178328,195252,145618,1287
1783333815926752619,2026-07-06T17:30:15.926+07:00,540195395197224464,178366,195372,145702,1331
1783333815944934437,2026-07-06T17:30:15.944+07:00,540195395197224464,178428,195477,145739,1388
1783333815963116255,2026-07-06T17:30:15.963+07:00,540195395197224464,178505,195536,145804,1366
1783333815981298073,2026-07-06T17:30:15.981+07:00,540195395197224464,178488,195609,145836,1307
1783333815999479891,2026-07-06T17:30:15.999+07:00,540195395197224464,178488,195687,145903,1291
1783333816017661709,2026-07-06T17:30:16.017+07:00,540195395197224464,178613,195772,145876,1269
1783333816035843527,2026-07-06T17:30:16.035+07:00,540195395197224464,178651,195844,145926,1268
1783333816054025345,2026-07-06T17:30:16.054+07:00,540195395197224464,178691,195865,145915,1237
1783333816072207163,2026-07-06T17:30:16.072+07:00,540195395197224464,178699,195847,145872,1296
1783333816090388981,2026-07-06T17:30:16.090+07:00,540195395197224464,178564,195742,145770,1273
1783333816108570799,2026-07-06T17:30:16.108+07:00,540195395197224464,178491,195681,145647,1318
1783333816126752617,2026-07-06T17:30:16.126+07:00,540195395197224464,178363,195460,145468,1310
1783333816144934435,2026-07-06T17:30:16.144+07:00,540195395197224464,178031,195190,145249,1218
1783333816163116253,2026-07-06T17:30:16.163+07:00,540195395197224464,177873,195024,145082,1311
1783333816181298071,2026-07-06T17:30:16.181+07:00,540195395197224464,177666,194788,144870,1215
1783333816199479889,2026-07-06T17:30:16.199+07:00,540195395197224464,177445,194617,144773,1246
1783333816217661707,2026-07-06T17:30:16.217+07:00,540195395197224464,177357,194462,144571,1281
1783333816235843525,2026-07-06T17:30:16.235+07:00,540195395197224464,177208,194335,144495,1271
1783333816254025343,2026-07-06T17:30:16.254+07:00,540195395197224464,177064,194179,144320,1304
1783333816272207161,2026-07-06T17:30:16.272+07:00,540195395197224464,176932,194022,144193,1264
1783333816290388979,2026-07-06T17:30:16.290+07:00,540195395197224464,176898,194029,144210,1352
1783333816308570797,2026-07-06T17:30:16.308+07:00,540195395197224464,176801,193957,144110,1260
1783333816326752615,2026-07-06T17:30:16.326+07:00,540195395197224464,176741,193890,143975,1292
1783333816344934433,2026-07-06T17:30:16.344+07:00,540195395197224464,176674,193833,143896,1270
1783333816363116251,2026-07-06T17:30:16.363+07:00,540195395197224464,176597,193783,143778,1204
1783333816381298069,2026-07-06T17:30:16.381+07:00,540195395197224464,176511,193721,143709,1230
1783333816399479887,2026-07-06T17:30:16.399+07:00,540195395197224464,176443,193612,143641,1256
1783333816417661705,2026-07-06T17:30:16.417+07:00,540195395197224464,176392,193605,143550,1264
1783333816435843523,2026-07-06T17:30:16.435+07:00,540195395197224464,176336,193544,143463,1279
1783333816454025341,2026-07-06T17:30:16.454+07:00,540195395197224464,176304,193503,143404,1243
1783333816472207159,2026-07-06T17:30:16.472+07:00,540195395197224464,176261,193525,143381,1304
1783333816490388977,2026-07-06T17:30:16.490+07:00,540195395197224464,176205,193446,143336,1239
1783333816508570795,2026-07-06T17:30:16.508+07:00,540195395197224464,176197,193486,143335,1291
1783333816526752613,2026-07-06T17:30:16.526+07:00,540195395197224464,176172,193485,143283,1276
1783333816544934431,2026-07-06T17:30:16.544+07:00,540195395197224464,176197,193477,143240,1280
1783333816563116249,2026-07-06T17:30:16.563+07:00,540195395197224464,176257,193515,143246,1313
1783333816581298067,2026-07-06T17:30:16.581+07:00,540195395197224464,176209,193539,143203,1252
1783333816599479885,2026-07-06T17:30:16.599+07:00,540195395197224464,176239,193571,143184,1301
1783333816617661703,2026-07-06T17:30:16.617+07:00,540195395197224464,176199,193622,143157,1277
1783333816635843521,2026-07-06T17:30:16.635+07:00,540195395979733449,176257,193673,143264,1287
1783333816654025339,2026-07-06T17:30:16.654+07:00,540195395979733449,176242,193697,143250,1345
1783333816672207157,2026-07-06T17:30:16.672+07:00,540195395979733449,176302,193737,143168,1300
1783333816690388975,2026-07-06T17:30:16.690+07:00,540195395979733449,176315,193763,143166,1260
1783333816708570793,2026-07-06T17:30:16.708+07:00,540195395979733449,176350,193810,143164,1296
1783333816726752611,2026-07-06T17:30:16.726+07:00,540195395979733449,176343,193843,143219,1285
1783333816744934429,2026-07-06T17:30:16.744+07:00,540195395979733449,176392,193871,143182,1284
1783333816763116247,2026-07-06T17:30:16.763+07:00,540195395979733449,176443,193916,143160,1314
1783333816781298065,2026-07-06T17:30:16.781+07:00,540195395979733449,176495,193976,143205,1340
1783333816799479883,2026-07-06T17:30:16.799+07:00,540195395979733449,176552,194022,143256,1332
1783333816817661701,2026-07-06T17:30:16.817+07:00,540195395979733449,176560,194095,143223,1290
1783333816835843519,2026-07-06T17:30:16.835+07:00,540195395979733449,176577,194071,143205,1282
1783333816854025337,2026-07-06T17:30:16.854+07:00,540195395979733449,176478,193974,143049,1266
1783333816872207155,2026-07-06T17:30:16.872+07:00,540195395979733449,176448,193910,143003,1318
1783333816890388973,2026-07-06T17:30:16.890+07:00,540195395979733449,176292,193762,142827,1264
1783333816908570791,2026-07-06T17:30:16.908+07:00,540195395979733449,176108,193562,142688,1230
1783333816926752609,2026-07-06T17:30:16.926+07:00,540195395979733449,176041,193466,142567,1314
1783333816944934427,2026-07-06T17:30:16.944+07:00,540195395979733449,175941,193325,142475,1268
1783333816963116245,2026-07-06T17:30:16.963+07:00,540195395979733449,175839,193217,142350,1297
1783333816981298063,2026-07-06T17:30:16.981+07:00,540195395979733449,175814,193204,142218,1228
1783333816999479881,2026-07-06T17:30:16.999+07:00,540195395979733449,175755,193158,142175,1234
1783333817017661699,2026-07-06T17:30:17.017+07:00,540195395979733449,175769,193198,142142,1288
1783333817035843517,2026-07-06T17:30:17.035+07:00,540195395979733449,175747,193148,142089,1281
1783333817054025335,2026-07-06T17:30:17.054+07:00,540195395979733449,175762,193156,142016,1198
1783333817072207153,2026-07-06T17:30:17.072+07:00,540195395979733449,175809,193110,142058,1256
1783333817090388971,2026-07-06T17:30:17.090+07:00,540195395979733449,175641,193106,142048,1265
1783333817108570789,2026-07-06T17:30:17.108+07:00,540195395979733449,175682,193138,141981,1307
1783333817126752607,2026-07-06T17:30:17.126+07:00,540195395979733449,175679,193145,141989,1273
1783333817144934425,2026-07-06T17:30:17.144+07:00,540195395979733449,175663,193090,141994,1268
1783333817163116243,2026-07-06T17:30:17.163+07:00,540195395979733449,175629,193043,141870,1237
1783333817181298061,2026-07-06T17:30:17.181+07:00,540195395979733449,175590,193062,141867,1247
1783333817199479879,2026-07-06T17:30:17.199+07:00,540195395979733449,175608,193107,141897,1294
1783333817217661697,2026-07-06T17:30:17.217+07:00,540195395979733449,175651,193135,141821,1234
1783333817235843515,2026-07-06T17:30:17.235+07:00,540195395979733449,175721,193240,141864,1297
1783333817254025333,2026-07-06T17:30:17.254+07:00,540195395979733449,175699,193226,141818,1245
1783333817272207151,2026-07-06T17:30:17.272+07:00,540195395979733449,175756,193330,141832,1303
1783333817290388969,2026-07-06T17:30:17.290+07:00,540195395979733449,175746,193377,141895,1272
1783333817308570787,2026-07-06T17:30:17.308+07:00,540195395979733449,175781,193448,141951,1242
1783333817326752605,2026-07-06T17:30:17.326+07:00,540195395979733449,175826,193494,141929,1282
1783333817344934423,2026-07-06T17:30:17.344+07:00,540195395979733449,175832,193535,141954,1276
1783333817363116241,2026-07-06T17:30:17.363+07:00,540195395979733449,175923,193613,142030,1334
1783333817381298059,2026-07-06T17:30:17.381+07:00,540195395979733449,175999,193679,142075,1322
1783333817399479877,2026-07-06T17:30:17.399+07:00,540195395979733449,176052,193769,142119,1314
1783333817417661695,2026-07-06T17:30:17.417+07:00,540195396762233278,176074,193870,142079,1292
1783333817435843513,2026-07-06T17:30:17.435+07:00,540195396762233278,176130,193932,142130,1305
1783333817454025331,2026-07-06T17:30:17.454+07:00,540195396762233278,176166,193932,142153,1277
1783333817472207149,2026-07-06T17:30:17.472+07:00,540195396762233278,176234,194005,142202,1257
1783333817490388967,2026-07-06T17:30:17.490+07:00,540195396762233278,176283,194073,142265,1287
1783333817508570785,2026-07-06T17:30:17.508+07:00,540195396762233278,176367,194160,142306,1318
1783333817526752603,2026-07-06T17:30:17.526+07:00,540195396762233278,176411,194294,142377,1342
1783333817544934421,2026-07-06T17:30:17.544+07:00,540195396762233278,176463,194321,142377,1263
1783333817563116239,2026-07-06T17:30:17.563+07:00,540195396762233278,176499,194478,142444,1335
1783333817581298057,2026-07-06T17:30:17.581+07:00,540195396762233278,176463,194446,142395,1298
1783333817599479875,2026-07-06T17:30:17.599+07:00,540195396762233278,176452,194422,142360,1285
1783333817617661693,2026-07-06T17:30:17.617+07:00,540195396762233278,176406,194336,142296,1282
1783333817635843511,2026-07-06T17:30:17.635+07:00,540195396762233278,176306,194225,142168,1309
1783333817654025329,2026-07-06T17:30:17.654+07:00,540195396762233278,176205,194059,142091,1272
1783333817672207147,2026-07-06T17:30:17.672+07:00,540195396762233278,176239,194019,142069,1321
1783333817690388965,2026-07-06T17:30:17.690+07:00,540195396762233278,176150,193987,141986,1282
1783333817708570783,2026-07-06T17:30:17.708+07:00,540195396762233278,176111,193934,141939,1290
1783333817726752601,2026-07-06T17:30:17.726+07:00,540195396762233278,176038,193978,141898,1267
1783333817744934419,2026-07-06T17:30:17.744+07:00,540195396762233278,176031,193873,141892,1267
1783333817763116237,2026-07-06T17:30:17.763+07:00,540195396762233278,176022,193848,141842,1264
1783333817781298055,2026-07-06T17:30:17.781+07:00,540195396762233278,176063,193941,141841,1266
1783333817799479873,2026-07-06T17:30:17.799+07:00,540195396762233278,176121,194018,141809,1274
1783333817817661691,2026-07-06T17:30:17.817+07:00,540195396762233278,176131,194044,141859,1302
1783333817835843509,2026-07-06T17:30:17.835+07:00,540195396762233278,176117,194068,141862,1336
1783333817854025327,2026-07-06T17:30:17.854+07:00,540195396762233278,176091,194014,141850,1322
1783333817872207145,2026-07-06T17:30:17.872+07:00,540195396762233278,176053,194021,141806,1245
1783333817890388963,2026-07-06T17:30:17.890+07:00,540195396762233278,176033,194027,141813,1246
1783333817908570781,2026-07-06T17:30:17.908+07:00,540195396762233278,176067,194048,141795,1262
1783333817926752599,2026-07-06T17:30:17.926+07:00,540195396762233278,176140,194035,141800,1313
1783333817944934417,2026-07-06T17:30:17.944+07:00,540195396762233278,176127,194059,141715,1377
1783333817963116235,2026-07-06T17:30:17.963+07:00,540195396762233278,176117,194069,141750,1289
1783333817981298053,2026-07-06T17:30:17.981+07:00,540195396762233278,176123,194073,141828,1243
1783333817999479871,2026-07-06T17:30:17.999+07:00,540195396762233278,176194,194206,141889,1284
1783333818017661689,2026-07-06T17:30:18.017+07:00,540195396762233278,176210,194174,141833,1239
1783333818035843507,2026-07-06T17:30:18.035+07:00,540195396762233278,176243,194291,141893,1274
1783333818054025325,2026-07-06T17:30:18.054+07:00,540195396762233278,176261,194352,141909,1241
1783333818072207143,2026-07-06T17:30:18.072+07:00,540195396762233278,176318,194479,141951,1339
1783333818090388961,2026-07-06T17:30:18.090+07:00,540195396762233278,176411,194599,142063,1326
1783333818108570779,2026-07-06T17:30:18.108+07:00,540195396762233278,176452,194706,142140,1317
1783333818126752597,2026-07-06T17:30:18.126+07:00,540195396762233278,176471,194821,142277,1335
1783333818144934415,2026-07-06T17:30:18.144+07:00,540195396762233278,176536,194954,142409,1301
1783333818163116233,2026-07-06T17:30:18.163+07:00,540195396762233278,176674,195095,142565,1301
1783333818181298051,2026-07-06T17:30:18.181+07:00,540195396762233278,176848,195261,142762,1290
1783333818199479869,2026-07-06T17:30:18.199+07:00,540195397526510810,176989,195422,142896,1335
1783333818217661687,2026-07-06T17:30:18.217+07:00,540195397526510810,177068,195584,143035,1283
1783333818235843505,2026-07-06T17:30:18.235+07:00,540195397526510810,177234,195619,143242,1257
1783333818254025323,2026-07-06T17:30:18.254+07:00,540195397526510810,177369,195798,143417,1274
1783333818272207141,2026-07-06T17:30:18.272+07:00,540195397526510810,177478,195971,143610,1271
1783333818290388959,2026-07-06T17:30:18.290+07:00,540195397526510810,177593,196103,143685,1302
1783333818308570777,2026-07-06T17:30:18.308+07:00,540195397526510810,177634,196156,143649,1254
1783333818326752595,2026-07-06T17:30:18.326+07:00,540195397526510810,177714,196305,143739,1318
1783333818344934413,2026-07-06T17:30:18.344+07:00,540195397526510810,177734,196346,143712,1292
1783333818363116231,2026-07-06T17:30:18.363+07:00,540195397526510810,177673,196334,143739,1276
1783333818381298049,2026-07-06T17:30:18.381+07:00,540195397526510810,177708,196374,143751,1275
1783333818399479867,2026-07-06T17:30:18.399+07:00,540195397526510810,177794,196453,143783,1270
1783333818417661685,2026-07-06T17:30:18.417+07:00,540195397526510810,177840,196560,143822,1283
1783333818435843503,2026-07-06T17:30:18.435+07:00,540195397526510810,177848,196625,143919,1277
1783333818454025321,2026-07-06T17:30:18.454+07:00,540195397526510810,177899,196732,143963,1280
1783333818472207139,2026-07-06T17:30:18.472+07:00,540195397526510810,177962,196850,144017,1228
1783333818490388957,2026-07-06T17:30:18.490+07:00,540195397526510810,178015,196974,144111,1243
1783333818508570775,2026-07-06T17:30:18.508+07:00,540195397526510810,178134,197118,144271,1294
1783333818526752593,2026-07-06T17:30:18.526+07:00,540195397526510810,178206,197153,144294,1272
1783333818544934411,2026-07-06T17:30:18.544+07:00,540195397526510810,178357,197298,144447,1263
1783333818563116229,2026-07-06T17:30:18.563+07:00,540195397526510810,178349,197423,144522,1284
1783333818581298047,2026-07-06T17:30:18.581+07:00,540195397526510810,178435,197544,144597,1240
1783333818599479865,2026-07-06T17:30:18.599+07:00,540195397526510810,178503,197592,144739,1291
1783333818617661683,2026-07-06T17:30:18.617+07:00,540195397526510810,178538,197655,144831,1266
1783333818635843501,2026-07-06T17:30:18.635+07:00,540195397526510810,178639,197717,144922,1304
1783333818654025319,2026-07-06T17:30:18.654+07:00,540195397526510810,178641,197818,145054,1280
1783333818672207137,2026-07-06T17:30:18.672+07:00,540195397526510810,178718,197912,145130,1245
1783333818690388955,2026-07-06T17:30:18.690+07:00,540195397526510810,178821,198070,145287,1296
1783333818708570773,2026-07-06T17:30:18.708+07:00,540195397526510810,178845,198104,145310,1272
1783333818726752591,2026-07-06T17:30:18.726+07:00,540195397526510810,178985,198256,145523,1337
1783333818744934409,2026-07-06T17:30:18.744+07:00,540195397526510810,179038,198414,145607,1324
1783333818763116227,2026-07-06T17:30:18.763+07:00,540195397526510810,179169,198597,145706,1320
1783333818781298045,2026-07-06T17:30:18.781+07:00,540195397526510810,179296,198690,145887,1284
1783333818799479863,2026-07-06T17:30:18.799+07:00,540195397526510810,179461,198910,145995,1335
1783333818817661681,2026-07-06T17:30:18.817+07:00,540195397526510810,179606,199153,146125,1290
1783333818835843499,2026-07-06T17:30:18.835+07:00,540195397526510810,179768,199334,146229,1299
1783333818854025317,2026-07-06T17:30:18.854+07:00,540195397526510810,179896,199481,146316,1277
1783333818872207135,2026-07-06T17:30:18.872+07:00,540195397526510810,180066,199674,146510,1276
1783333818890388953,2026-07-06T17:30:18.890+07:00,540195397526510810,180279,199887,146625,1304
1783333818908570771,2026-07-06T17:30:18.908+07:00,540195397526510810,180444,200060,146765,1287
1783333818926752589,2026-07-06T17:30:18.926+07:00,540195397526510810,180597,200318,146918,1313
1783333818944934407,2026-07-06T17:30:18.944+07:00,540195397526510810,180780,200477,147048,1305
1783333818963116225,2026-07-06T17:30:18.963+07:00,540195398290803602,181002,200679,147229,1308
1783333818981298043,2026-07-06T17:30:18.981+07:00,540195398290803602,181138,200957,147363,1340
1783333818999479861,2026-07-06T17:30:18.999+07:00,540195398290803602,181244,201094,147449,1311
1783333819017661679,2026-07-06T17:30:19.017+07:00,540195398290803602,181442,201098,147468,1255
1783333819035843497,2026-07-06T17:30:19.035+07:00,540195398290803602,181634,201238,147498,1276
1783333819054025315,2026-07-06T17:30:19.054+07:00,540195398290803602,181732,201279,147548,1222
1783333819072207133,2026-07-06T17:30:19.072+07:00,540195398290803602,181856,201465,147699,1283
1783333819090388951,2026-07-06T17:30:19.090+07:00,540195398290803602,182010,201604,147751,1314
1783333819108570769,2026-07-06T17:30:19.108+07:00,540195398290803602,182162,201740,147889,1269
1783333819126752587,2026-07-06T17:30:19.126+07:00,540195398290803602,182231,201808,147989,1299
1783333819144934405,2026-07-06T17:30:19.144+07:00,540195398290803602,182424,201923,148126,1299
1783333819163116223,2026-07-06T17:30:19.163+07:00,540195398290803602,182656,202181,148333,1267
1783333819181298041,2026-07-06T17:30:19.181+07:00,540195398290803602,182877,202335,148424,1211
1783333819199479859,2026-07-06T17:30:19.199+07:00,540195398290803602,183021,202503,148588,1228
1783333819217661677,2026-07-06T17:30:19.217+07:00,540195398290803602,183264,202758,148780,1323
1783333819235843495,2026-07-06T17:30:19.235+07:00,540195398290803602,183365,202857,148918,1339
1783333819254025313,2026-07-06T17:30:19.254+07:00,540195398290803602,183478,202930,149032,1292
1783333819272207131,2026-07-06T17:30:19.272+07:00,540195398290803602,183630,203119,149163,1293
1783333819290388949,2026-07-06T17:30:19.290+07:00,540195398290803602,183657,203172,149269,1254
1783333819308570767,2026-07-06T17:30:19.308+07:00,540195398290803602,183771,203309,149454,1306
1783333819326752585,2026-07-06T17:30:19.326+07:00,540195398290803602,183908,203441,149501,1265
1783333819344934403,2026-07-06T17:30:19.344+07:00,540195398290803602,183951,203557,149644,1290
1783333819363116221,2026-07-06T17:30:19.363+07:00,540195398290803602,183967,203604,149695,1245
1783333819381298039,2026-07-06T17:30:19.381+07:00,540195398290803602,184041,203752,149838,1260
1783333819399479857,2026-07-06T17:30:19.399+07:00,540195398290803602,184128,203821,149908,1291
1783333819417661675,2026-07-06T17:30:19.417+07:00,540195398290803602,184203,203955,149964,1275
1783333819435843493,2026-07-06T17:30:19.435+07:00,540195398290803602,184268,203993,150066,1304
1783333819454025311,2026-07-06T17:30:19.454+07:00,540195398290803602,184313,204130,150161,1283
1783333819472207129,2026-07-06T17:30:19.472+07:00,540195398290803602,184402,204241,150239,1296
1783333819490388947,2026-07-06T17:30:19.490+07:00,540195398290803602,184432,204318,150326,1290
1783333819508570765,2026-07-06T17:30:19.508+07:00,540195398290803602,184539,204367,150385,1267
1783333819526752583,2026-07-06T17:30:19.526+07:00,540195398290803602,184617,204473,150459,1270
1783333819544934401,2026-07-06T17:30:19.544+07:00,540195398290803602,184689,204499,150546,1335
1783333819563116219,2026-07-06T17:30:19.563+07:00,540195398290803602,184813,204660,150718,1308
1783333819581298037,2026-07-06T17:30:19.581+07:00,540195398290803602,184828,204753,150747,1234
1783333819599479855,2026-07-06T17:30:19.599+07:00,540195398290803602,185073,204912,150906,1302
1783333819617661673,2026-07-06T17:30:19.617+07:00,540195398290803602,185306,205142,151075,1271
1783333819635843491,2026-07-06T17:30:19.635+07:00,540195398290803602,185410,205233,151192,1264
1783333819654025309,2026-07-06T17:30:19.654+07:00,540195398290803602,185503,205344,151335,1257
1783333819672207127,2026-07-06T17:30:19.672+07:00,540195398290803602,185559,205446,151363,1230
1783333819690388945,2026-07-06T17:30:19.690+07:00,540195398290803602,185682,205517,151440,1263
1783333819708570763,2026-07-06T17:30:19.708+07:00,540195398290803602,185716,205552,151473,1257
1783333819726752581,2026-07-06T17:30:19.726+07:00,540195399073393461,185680,205461,151473,1238
1783333819744934399,2026-07-06T17:30:19.744+07:00,540195399073393461,185751,205534,151492,1270
1783333819763116217,2026-07-06T17:30:19.763+07:00,540195399073393461,185730,205532,151448,1237
1783333819781298035,2026-07-06T17:30:19.781+07:00,540195399073393461,185753,205571,151494,1202
1783333819799479853,2026-07-06T17:30:19.799+07:00,540195399073393461,185814,205615,151518,1242
1783333819817661671,2026-07-06T17:30:19.817+07:00,540195399073393461,185846,205682,151554,1238
1783333819835843489,2026-07-06T17:30:19.835+07:00,540195399073393461,185924,205739,151587,1240
1783333819854025307,2026-07-06T17:30:19.854+07:00,540195399073393461,186043,205863,151621,1241
1783333819872207125,2026-07-06T17:30:19.872+07:00,540195399073393461,186084,205929,151709,1256
1783333819890388943,2026-07-06T17:30:19.890+07:00,540195399073393461,186181,206020,151689,1280
1783333819908570761,2026-07-06T17:30:19.908+07:00,540195399073393461,186282,206115,151795,1310
1783333819926752579,2026-07-06T17:30:19.926+07:00,540195399073393461,186364,206153,151763,1290
1783333819944934397,2026-07-06T17:30:19.944+07:00,540195399073393461,186427,206299,151861,1216
1783333819963116215,2026-07-06T17:30:19.963+07:00,540195399073393461,186461,206414,151901,1199
1783333819981298033,2026-07-06T17:30:19.981+07:00,540195399073393461,186614,206485,152031,1267
1783333819999479851,2026-07-06T17:30:19.999+07:00,540195399073393461,186710,206535,152054,1251
1783333820017661669,2026-07-06T17:30:20.017+07:00,540195399073393461,186784,206627,152079,1241
1783333820035843487,2026-07-06T17:30:20.035+07:00,540195399073393461,186871,206664,152165,1311
1783333820054025305,2026-07-06T17:30:20.054+07:00,540195399073393461,186955,206727,152178,1214
1783333820072207123,2026-07-06T17:30:20.072+07:00,540195399073393461,187085,206848,152271,1287
1783333820090388941,2026-07-06T17:30:20.090+07:00,540195399073393461,187150,207014,152338,1219
1783333820108570759,2026-07-06T17:30:20.108+07:00,540195399073393461,187192,207033,152311,1228
1783333820126752577,2026-07-06T17:30:20.126+07:00,540195399073393461,187299,207190,152431,1258
1783333820144934395,2026-07-06T17:30:20.144+07:00,540195399073393461,187386,207297,152436,1251
1783333820163116213,2026-07-06T17:30:20.163+07:00,540195399073393461,187520,207500,152527,1248
1783333820181298031,2026-07-06T17:30:20.181+07:00,540195399073393461,187693,207587,152609,1271
1783333820199479849,2026-07-06T17:30:20.199+07:00,540195399073393461,187839,207756,152703,1231
1783333820217661667,2026-07-06T17:30:20.217+07:00,540195399073393461,187950,207840,152802,1235
1783333820235843485,2026-07-06T17:30:20.235+07:00,540195399073393461,187988,207914,152835,1229
1783333820254025303,2026-07-06T17:30:20.254+07:00,540195399073393461,188170,207980,152922,1222
1783333820272207121,2026-07-06T17:30:20.272+07:00,540195399073393461,188242,208091,152975,1201
1783333820290388939,2026-07-06T17:30:20.290+07:00,540195399073393461,188338,208261,153056,1288
1783333820308570757,2026-07-06T17:30:20.308+07:00,540195399073393461,188422,208372,153081,1207
1783333820326752575,2026-07-06T17:30:20.326+07:00,540195399073393461,188469,208384,153112,1302
1783333820344934393,2026-07-06T17:30:20.344+07:00,540195399073393461,188657,208450,153218,1319
1783333820363116211,2026-07-06T17:30:20.363+07:00,540195399073393461,188554,208413,153143,1260
1783333820381298029,2026-07-06T17:30:20.381+07:00,540195399073393461,188588,208464,153202,1277
1783333820399479847,2026-07-06T17:30:20.399+07:00,540195399073393461,188558,208456,153178,1238
1783333820417661665,2026-07-06T17:30:20.417+07:00,540195399073393461,188650,208497,153229,1325
1783333820435843483,2026-07-06T17:30:20.435+07:00,540195399073393461,188729,208534,153292,1263
1783333820454025301,2026-07-06T17:30:20.454+07:00,540195399073393461,188786,208625,153278,1281
1783333820472207119,2026-07-06T17:30:20.472+07:00,540195399073393461,188796,208598,153317,1327
1783333820490388937,2026-07-06T17:30:20.490+07:00,540195399073393461,188887,208666,153386,1299
1783333820508570755,2026-07-06T17:30:20.508+07:00,540195399837799169,189010,208785,153469,1282
1783333820526752573,2026-07-06T17:30:20.526+07:00,540195399837799169,189081,208940,153548,1299
1783333820544934391,2026-07-06T17:30:20.544+07:00,540195399837799169,189146,208960,153622,1270
1783333820563116209,2026-07-06T17:30:20.563+07:00,540195399837799169,189233,209038,153643,1246
1783333820581298027,2026-07-06T17:30:20.581+07:00,540195399837799169,189303,209064,153745,1282
1783333820599479845,2026-07-06T17:30:20.599+07:00,540195399837799169,189356,209097,153811,1305
1783333820617661663,2026-07-06T17:30:20.617+07:00,540195399837799169,189357,209052,153856,1287
1783333820635843481,2026-07-06T17:30:20.635+07:00,540195399837799169,189377,209077,153837,1285
1783333820654025299,2026-07-06T17:30:20.654+07:00,540195399837799169,189414,209011,153844,1273
1783333820672207117,2026-07-06T17:30:20.672+07:00,540195399837799169,189444,208995,153852,1229
1783333820690388935,2026-07-06T17:30:20.690+07:00,540195399837799169,189508,208910,153895,1251
1783333820708570753,2026-07-06T17:30:20.708+07:00,540195399837799169,189595,208859,153905,1347
1783333820726752571,2026-07-06T17:30:20.726+07:00,540195399837799169,189489,208764,153869,1351
1783333820744934389,2026-07-06T17:30:20.744+07:00,540195399837799169,189489,208636,153775,1259
1783333820763116207,2026-07-06T17:30:20.763+07:00,540195399837799169,189499,208626,153726,1243
1783333820781298025,2026-07-06T17:30:20.781+07:00,540195399837799169,189532,208578,153708,1277
1783333820799479843,2026-07-06T17:30:20.799+07:00,540195399837799169,189535,208498,153623,1279
1783333820817661661,2026-07-06T17:30:20.817+07:00,540195399837799169,189553,208500,153638,1336
1783333820835843479,2026-07-06T17:30:20.835+07:00,540195399837799169,189520,208464,153628,1315
1783333820854025297,2026-07-06T17:30:20.854+07:00,540195399837799169,189510,208462,153598,1297
1783333820872207115,2026-07-06T17:30:20.872+07:00,540195399837799169,189471,208460,153484,1234
1783333820890388933,2026-07-06T17:30:20.890+07:00,540195399837799169,189476,208414,153455,1328
1783333820908570751,2026-07-06T17:30:20.908+07:00,540195399837799169,189517,208399,153379,1339
1783333820926752569,2026-07-06T17:30:20.926+07:00,540195399837799169,189448,208341,153315,1324
1783333820944934387,2026-07-06T17:30:20.944+07:00,540195399837799169,189363,208348,153290,1321
1783333820963116205,2026-07-06T17:30:20.963+07:00,540195399837799169,189291,208223,153195,1263
1783333820981298023,2026-07-06T17:30:20.981+07:00,540195399837799169,189311,208225,153219,1326
1783333820999479841,2026-07-06T17:30:20.999+07:00,540195399837799169,189215,208179,153173,1302
1783333821017661659,2026-07-06T17:30:21.017+07:00,540195399837799169,189201,208156,153141,1292
1783333821035843477,2026-07-06T17:30:21.035+07:00,540195399837799169,189132,208003,153041,1252
1783333821054025295,2026-07-06T17:30:21.054+07:00,540195399837799169,188987,207899,152869,1266
1783333821072207113,2026-07-06T17:30:21.072+07:00,540195399837799169,188886,207756,152743,1260
1783333821090388931,2026-07-06T17:30:21.090+07:00,540195399837799169,188815,207714,152621,1228
1783333821108570749,2026-07-06T17:30:21.108+07:00,540195399837799169,188689,207425,152559,1246
1783333821126752567,2026-07-06T17:30:21.126+07:00,540195399837799169,188543,207249,152442,1306
1783333821144934385,2026-07-06T17:30:21.144+07:00,540195399837799169,188430,207016,152226,1238
1783333821163116203,2026-07-06T17:30:21.163+07:00,540195399837799169,188324,206919,152105,1238
1783333821181298021,2026-07-06T17:30:21.181+07:00,540195399837799169,188236,206840,151990,1273
1783333821199479839,2026-07-06T17:30:21.199+07:00,540195399837799169,188255,206802,151981,1309
1783333821217661657,2026-07-06T17:30:21.217+07:00,540195399837799169,188180,206705,151914,1270
1783333821235843475,2026-07-06T17:30:21.235+07:00,540195399837799169,188076,206573,151754,1238
1783333821254025293,2026-07-06T17:30:21.254+07:00,540195399837799169,188001,206401,151683,1242
1783333821272207111,2026-07-06T17:30:21.272+07:00,540195400656803110,187985,206359,151557,1283
1783333821290388929,2026-07-06T17:30:21.290+07:00,540195400656803110,187947,206304,151521,1322
1783333821308570747,2026-07-06T17:30:21.308+07:00,540195400656803110,187890,206168,151421,1320
1783333821326752565,2026-07-06T17:30:21.326+07:00,540195400656803110,187795,206005,151328,1331
1783333821344934383,2026-07-06T17:30:21.344+07:00,540195400656803110,187762,205939,151277,1291
1783333821363116201,2026-07-06T17:30:21.363+07:00,540195400656803110,187706,205846,151197,1282
1783333821381298019,2026-07-06T17:30:21.381+07:00,540195400656803110,187648,205821,151113,1307
1783333821399479837,2026-07-06T17:30:21.399+07:00,540195400656803110,187521,205861,151022,1242
1783333821417661655,2026-07-06T17:30:21.417+07:00,540195400656803110,187573,205805,151004,1239
1783333821435843473,2026-07-06T17:30:21.435+07:00,540195400656803110,187581,205801,150944,1299
1783333821454025291,2026-07-06T17:30:21.454+07:00,540195400656803110,187590,205771,150842,1256
1783333821472207109,2026-07-06T17:30:21.472+07:00,540195400656803110,187561,205723,150769,1239
1783333821490388927,2026-07-06T17:30:21.490+07:00,540195400656803110,187609,205728,150758,1280
1783333821508570745,2026-07-06T17:30:21.508+07:00,540195400656803110,187585,205698,150718,1249
1783333821526752563,2026-07-06T17:30:21.526+07:00,540195400656803110,187603,205676,150705,1271
1783333821544934381,2026-07-06T17:30:21.544+07:00,540195400656803110,187660,205673,150720,1321
1783333821563116199,2026-07-06T17:30:21.563+07:00,540195400656803110,187663,205699,150633,1325
1783333821581298017,2026-07-06T17:30:21.581+07:00,540195400656803110,187697,205745,150659,1374
1783333821599479835,2026-07-06T17:30:21.599+07:00,540195400656803110,187731,205736,150598,1299
1783333821617661653,2026-07-06T17:30:21.617+07:00,540195400656803110,187718,205679,150565,1231
1783333821635843471,2026-07-06T17:30:21.635+07:00,540195400656803110,187748,205694,150491,1259
1783333821654025289,2026-07-06T17:30:21.654+07:00,540195400656803110,187839,205657,150568,1306
1783333821672207107,2026-07-06T17:30:21.672+07:00,540195400656803110,187832,205646,150451,1294
1783333821690388925,2026-07-06T17:30:21.690+07:00,540195400656803110,187768,205581,150364,1262
1783333821708570743,2026-07-06T17:30:21.708+07:00,540195400656803110,187646,205577,150341,1241
1783333821726752561,2026-07-06T17:30:21.726+07:00,540195400656803110,187730,205489,150260,1343
1783333821744934379,2026-07-06T17:30:21.744+07:00,540195400656803110,187548,205246,150075,1273
1783333821763116197,2026-07-06T17:30:21.763+07:00,540195400656803110,187469,205109,149908,1349
1783333821781298015,2026-07-06T17:30:21.781+07:00,540195400656803110,187313,204974,149719,1305
1783333821799479833,2026-07-06T17:30:21.799+07:00,540195400656803110,187215,204831,149563,1265
1783333821817661651,2026-07-06T17:30:21.817+07:00,540195400656803110,187122,204689,149510,1306
1783333821835843469,2026-07-06T17:30:21.835+07:00,540195400656803110,187026,204584,149417,1296
1783333821854025287,2026-07-06T17:30:21.854+07:00,540195400656803110,186924,204415,149281,1259
1783333821872207105,2026-07-06T17:30:21.872+07:00,540195400656803110,186932,204389,149158,1246
1783333821890388923,2026-07-06T17:30:21.890+07:00,540195400656803110,186924,204376,149111,1277
1783333821908570741,2026-07-06T17:30:21.908+07:00,540195400656803110,186837,204308,149044,1282
1783333821926752559,2026-07-06T17:30:21.926+07:00,540195400656803110,186855,204211,148979,1257
1783333821944934377,2026-07-06T17:30:21.944+07:00,540195400656803110,186788,204139,148905,1249
1783333821963116195,2026-07-06T17:30:21.963+07:00,540195400656803110,186813,204152,148861,1307
1783333821981298013,2026-07-06T17:30:21.981+07:00,540195400656803110,186762,204042,148756,1265
1783333821999479831,2026-07-06T17:30:21.999+07:00,540195400656803110,186725,204030,148636,1285
1783333822017661649,2026-07-06T17:30:22.017+07:00,540195400656803110,186659,204017,148588,1236
1783333822035843467,2026-07-06T17:30:22.035+07:00,540195400656803110,186637,203974,148535,1315
1783333822054025285,2026-07-06T17:30:22.054+07:00,540195400656803110,186607,203904,148435,1311
1783333822072207103,2026-07-06T17:30:22.072+07:00,540195400656803110,186547,203869,148380,1290
1783333822090388921,2026-07-06T17:30:22.090+07:00,540195401457528288,186552,203722,148269,1320
1783333822108570739,2026-07-06T17:30:22.108+07:00,540195401457528288,186500,203750,148189,1285
1783333822126752557,2026-07-06T17:30:22.126+07:00,540195401457528288,186542,203724,148198,1293
1783333822144934375,2026-07-06T17:30:22.144+07:00,540195401457528288,186505,203647,148140,1256
1783333822163116193,2026-07-06T17:30:22.163+07:00,540195401457528288,186497,203664,148132,1280
1783333822181298011,2026-07-06T17:30:22.181+07:00,540195401457528288,186510,203564,148109,1284
1783333822199479829,2026-07-06T17:30:22.199+07:00,540195401457528288,186508,203579,148078,1343
1783333822217661647,2026-07-06T17:30:22.217+07:00,540195401457528288,186583,203638,148073,1355
1783333822235843465,2026-07-06T17:30:22.235+07:00,540195401457528288,186589,203547,147995,1305
1783333822254025283,2026-07-06T17:30:22.254+07:00,540195401457528288,186572,203624,148017,1347
1783333822272207101,2026-07-06T17:30:22.272+07:00,540195401457528288,186548,203611,148003,1294
1783333822290388919,2026-07-06T17:30:22.290+07:00,540195401457528288,186544,203591,147924,1222
1783333822308570737,2026-07-06T17:30:22.308+07:00,540195401457528288,186603,203610,147918,1237
1783333822326752555,2026-07-06T17:30:22.326+07:00,540195401457528288,186573,203601,147868,1231
1783333822344934373,2026-07-06T17:30:22.344+07:00,540195401457528288,186565,203576,147835,1291
1783333822363116191,2026-07-06T17:30:22.363+07:00,540195401457528288,186486,203528,147784,1257
1783333822381298009,2026-07-06T17:30:22.381+07:00,540195401457528288,186481,203499,147785,1302
1783333822399479827,2026-07-06T17:30:22.399+07:00,540195401457528288,186351,203345,147622,1259
1783333822417661645,2026-07-06T17:30:22.417+07:00,540195401457528288,186308,203190,147490,1321
1783333822435843463,2026-07-06T17:30:22.435+07:00,540195401457528288,186197,203088,147407,1296
1783333822454025281,2026-07-06T17:30:22.454+07:00,540195401457528288,186104,203001,147307,1304
1783333822472207099,2026-07-06T17:30:22.472+07:00,540195401457528288,186009,202804,147153,1247
1783333822490388917,2026-07-06T17:30:22.490+07:00,540195401457528288,186008,202829,147110,1260
1783333822508570735,2026-07-06T17:30:22.508+07:00,540195401457528288,185951,202798,147018,1269
1783333822526752553,2026-07-06T17:30:22.526+07:00,540195401457528288,185901,202744,146978,1281
1783333822544934371,2026-07-06T17:30:22.544+07:00,540195401457528288,185844,202709,146905,1298
1783333822563116189,2026-07-06T17:30:22.563+07:00,540195401457528288,185824,202642,146925,1267
1783333822581298007,2026-07-06T17:30:22.581+07:00,540195401457528288,185828,202627,146886,1318
1783333822599479825,2026-07-06T17:30:22.599+07:00,540195401457528288,185816,202627,146836,1283
1783333822617661643,2026-07-06T17:30:22.617+07:00,540195401457528288,185778,202627,146827,1277
1783333822635843461,2026-07-06T17:30:22.635+07:00,540195401457528288,185759,202572,146746,1268
1783333822654025279,2026-07-06T17:30:22.654+07:00,540195401457528288,185767,202598,146751,1255
1783333822672207097,2026-07-06T17:30:22.672+07:00,540195401457528288,185708,202592,146714,1249
1783333822690388915,2026-07-06T17:30:22.690+07:00,540195401457528288,185691,202578,146700,1209
1783333822708570733,2026-07-06T17:30:22.708+07:00,540195401457528288,185680,202591,146679,1257
1783333822726752551,2026-07-06T17:30:22.726+07:00,540195401457528288,185677,202571,146681,1290
1783333822744934369,2026-07-06T17:30:22.744+07:00,540195401457528288,185628,202519,146581,1260
1783333822763116187,2026-07-06T17:30:22.763+07:00,540195401457528288,185626,202613,146588,1214
1783333822781298005,2026-07-06T17:30:22.781+07:00,540195401457528288,185731,202615,146606,1289
1783333822799479823,2026-07-06T17:30:22.799+07:00,540195401457528288,185768,202674,146611,1305
1783333822817661641,2026-07-06T17:30:22.817+07:00,540195401457528288,185738,202656,146574,1279
1783333822835843459,2026-07-06T17:30:22.835+07:00,540195401457528288,185734,202730,146555,1285
1783333822854025277,2026-07-06T17:30:22.854+07:00,540195401457528288,185727,202757,146670,1263
1783333822872207095,2026-07-06T17:30:22.872+07:00,540195401457528288,185817,202777,146693,1195
1783333822890388913,2026-07-06T17:30:22.890+07:00,540195402403677838,185845,202858,146674,1260
1783333822908570731,2026-07-06T17:30:22.908+07:00,540195402403677838,185875,202839,146601,1279
1783333822926752549,2026-07-06T17:30:22.926+07:00,540195402403677838,185917,202885,146663,1285
1783333822944934367,2026-07-06T17:30:22.944+07:00,540195402403677838,185892,203007,146691,1294
1783333822963116185,2026-07-06T17:30:22.963+07:00,540195402403677838,185932,203022,146734,1267
1783333822981298003,2026-07-06T17:30:22.981+07:00,540195402403677838,185923,203070,146737,1296
1783333822999479821,2026-07-06T17:30:22.999+07:00,540195402403677838,185950,203043,146737,1285
1783333823017661639,2026-07-06T17:30:23.017+07:00,540195402403677838,185900,203045,146697,1221
1783333823035843457,2026-07-06T17:30:23.035+07:00,540195402403677838,185851,202971,146616,1263
1783333823054025275,2026-07-06T17:30:23.054+07:00,540195402403677838,185853,202907,146560,1291
1783333823072207093,2026-07-06T17:30:23.072+07:00,540195402403677838,185730,202861,146481,1280
1783333823090388911,2026-07-06T17:30:23.090+07:00,540195402403677838,185683,202799,146389,1273
1783333823108570729,2026-07-06T17:30:23.108+07:00,540195402403677838,185615,202777,146330,1294
1783333823126752547,2026-07-06T17:30:23.126+07:00,540195402403677838,185515,202716,146339,1302
1783333823144934365,2026-07-06T17:30:23.144+07:00,540195402403677838,185521,202712,146259,1279
1783333823163116183,2026-07-06T17:30:23.163+07:00,540195402403677838,185469,202638,146204,1257
1783333823181298001,2026-07-06T17:30:23.181+07:00,540195402403677838,185489,202670,146310,1285
1783333823199479819,2026-07-06T17:30:23.199+07:00,540195402403677838,185482,202660,146264,1349
1783333823217661637,2026-07-06T17:30:23.217+07:00,540195402403677838,185411,202693,146200,1319
1783333823235843455,2026-07-06T17:30:23.235+07:00,540195402403677838,185428,202712,146239,1281
1783333823254025273,2026-07-06T17:30:23.254+07:00,540195402403677838,185356,202685,146228,1190
1783333823272207091,2026-07-06T17:30:23.272+07:00,540195402403677838,185421,202760,146185,1273
1783333823290388909,2026-07-06T17:30:23.290+07:00,540195402403677838,185476,202780,146247,1273
1783333823308570727,2026-07-06T17:30:23.308+07:00,540195402403677838,185390,202787,146175,1291
1783333823326752545,2026-07-06T17:30:23.326+07:00,540195402403677838,185357,202811,146235,1254
1783333823344934363,2026-07-06T17:30:23.344+07:00,540195402403677838,185401,202796,146228,1306
1783333823363116181,2026-07-06T17:30:23.363+07:00,540195402403677838,185303,202824,146230,1247
1783333823381297999,2026-07-06T17:30:23.381+07:00,540195402403677838,185344,202898,146251,1235
1783333823399479817,2026-07-06T17:30:23.399+07:00,540195402403677838,185427,202976,146305,1279
1783333823417661635,2026-07-06T17:30:23.417+07:00,540195402403677838,185442,202973,146314,1321
1783333823435843453,2026-07-06T17:30:23.435+07:00,540195402403677838,185401,203032,146273,1286
1783333823454025271,2026-07-06T17:30:23.454+07:00,540195402403677838,185416,203055,146340,1242
1783333823472207089,2026-07-06T17:30:23.472+07:00,540195402403677838,185440,203081,146343,1302
1783333823490388907,2026-07-06T17:30:23.490+07:00,540195402403677838,185442,203173,146416,1279
1783333823508570725,2026-07-06T17:30:23.508+07:00,540195402403677838,185454,203276,146441,1294
1783333823526752543,2026-07-06T17:30:23.526+07:00,540195402403677838,185556,203345,146462,1293
1783333823544934361,2026-07-06T17:30:23.544+07:00,540195402403677838,185596,203423,146513,1342
1783333823563116179,2026-07-06T17:30:23.563+07:00,540195402403677838,185576,203485,146528,1321
1783333823581297997,2026-07-06T17:30:23.581+07:00,540195402403677838,185669,203512,146584,1301
1783333823599479815,2026-07-06T17:30:23.599+07:00,540195402403677838,185704,203592,146628,1287
1783333823617661633,2026-07-06T17:30:23.617+07:00,540195402403677838,185729,203700,146682,1287
1783333823635843451,2026-07-06T17:30:23.635+07:00,540195402403677838,185704,203716,146715,1254
1783333823654025269,2026-07-06T17:30:23.654+07:00,540195402403677838,185652,203688,146708,1241
1783333823672207087,2026-07-06T17:30:23.672+07:00,540195402403677838,185695,203791,146735,1240
1783333823690388905,2026-07-06T17:30:23.690+07:00,540195402403677838,185619,203737,146622,1277
1783333823708570723,2026-07-06T17:30:23.708+07:00,540195402403677838,185584,203762,146632,1273
1783333823726752541,2026-07-06T17:30:23.726+07:00,540195402403677838,185554,203681,146627,1262
1783333823744934359,2026-07-06T17:30:23.744+07:00,540195402403677838,185482,203664,146577,1290
1783333823763116177,2026-07-06T17:30:23.763+07:00,540195402403677838,185461,203604,146552,1273
1783333823781297995,2026-07-06T17:30:23.781+07:00,540195402403677838,185453,203580,146519,1265
1783333823799479813,2026-07-06T17:30:23.799+07:00,540195402403677838,185351,203611,146488,1221
1783333823817661631,2026-07-06T17:30:23.817+07:00,540195402403677838,185405,203712,146554,1291
1783333823835843449,2026-07-06T17:30:23.835+07:00,540195403204354196,185409,203704,146566,1266
1783333823854025267,2026-07-06T17:30:23.854+07:00,540195403204354196,185440,203728,146607,1240
1783333823872207085,2026-07-06T17:30:23.872+07:00,540195403204354196,185409,203784,146605,1268
1783333823890388903,2026-07-06T17:30:23.890+07:00,540195403204354196,185438,203859,146602,1272
1783333823908570721,2026-07-06T17:30:23.908+07:00,540195403204354196,185432,203883,146620,1254
1783333823926752539,2026-07-06T17:30:23.926+07:00,540195403204354196,185474,203965,146659,1276
1783333823944934357,2026-07-06T17:30:23.944+07:00,540195403204354196,185520,204018,146698,1250
1783333823963116175,2026-07-06T17:30:23.963+07:00,540195403204354196,185454,204020,146734,1235
1783333823981297993,2026-07-06T17:30:23.981+07:00,540195403204354196,185439,204001,146752,1242
1783333823999479811,2026-07-06T17:30:23.999+07:00,540195403204354196,185447,204097,146769,1260
1783333824017661629,2026-07-06T17:30:24.017+07:00,540195403204354196,185535,204142,146889,1299
1783333824035843447,2026-07-06T17:30:24.035+07:00,540195403204354196,185555,204227,146880,1279
1783333824054025265,2026-07-06T17:30:24.054+07:00,540195403204354196,185571,204286,146919,1345
1783333824072207083,2026-07-06T17:30:24.072+07:00,540195403204354196,185589,204306,146956,1272
1783333824090388901,2026-07-06T17:30:24.090+07:00,540195403204354196,185620,204400,147012,1286
1783333824108570719,2026-07-06T17:30:24.108+07:00,540195403204354196,185698,204518,147070,1402
1783333824126752537,2026-07-06T17:30:24.126+07:00,540195403204354196,185705,204506,147079,1290
1783333824144934355,2026-07-06T17:30:24.144+07:00,540195403204354196,185730,204632,147175,1220
1783333824163116173,2026-07-06T17:30:24.163+07:00,540195403204354196,185841,204678,147287,1286
1783333824181297991,2026-07-06T17:30:24.181+07:00,540195403204354196,185851,204780,147327,1260
1783333824199479809,2026-07-06T17:30:24.199+07:00,540195403204354196,185903,204850,147366,1263
1783333824217661627,2026-07-06T17:30:24.217+07:00,540195403204354196,185949,204934,147435,1259
1783333824235843445,2026-07-06T17:30:24.235+07:00,540195403204354196,185988,205036,147466,1279
1783333824254025263,2026-07-06T17:30:24.254+07:00,540195403204354196,185942,205080,147500,1229
1783333824272207081,2026-07-06T17:30:24.272+07:00,540195403204354196,185970,205120,147474,1245
1783333824290388899,2026-07-06T17:30:24.290+07:00,540195403204354196,185971,205117,147525,1189
1783333824308570717,2026-07-06T17:30:24.308+07:00,540195403204354196,185937,205092,147551,1202
1783333824326752535,2026-07-06T17:30:24.326+07:00,540195403204354196,185945,205076,147511,1265
1783333824344934353,2026-07-06T17:30:24.344+07:00,540195403204354196,185900,205034,147505,1246
1783333824363116171,2026-07-06T17:30:24.363+07:00,540195403204354196,185916,205126,147541,1252
1783333824381297989,2026-07-06T17:30:24.381+07:00,540195403204354196,185909,205146,147462,1282
1783333824399479807,2026-07-06T17:30:24.399+07:00,540195403204354196,185936,205276,147545,1347
1783333824417661625,2026-07-06T17:30:24.417+07:00,540195403204354196,185824,205233,147591,1263
1783333824435843443,2026-07-06T17:30:24.435+07:00,540195403204354196,185907,205236,147529,1245
1783333824454025261,2026-07-06T17:30:24.454+07:00,540195403204354196,185889,205309,147595,1284
1783333824472207079,2026-07-06T17:30:24.472+07:00,540195403204354196,185922,205402,147607,1308
1783333824490388897,2026-07-06T17:30:24.490+07:00,540195403204354196,185951,205387,147626,1240
1783333824508570715,2026-07-06T17:30:24.508+07:00,540195403204354196,186003,205549,147767,1288
1783333824526752533,2026-07-06T17:30:24.526+07:00,540195403204354196,186007,205473,147703,1302
1783333824544934351,2026-07-06T17:30:24.544+07:00,540195403204354196,186095,205623,147814,1319
1783333824563116169,2026-07-06T17:30:24.563+07:00,540195403204354196,186070,205652,147804,1250
1783333824581297987,2026-07-06T17:30:24.581+07:00,540195403204354196,186137,205745,147910,1319
1783333824599479805,2026-07-06T17:30:24.599+07:00,540195403204354196,186111,205753,148008,1328
1783333824617661623,2026-07-06T17:30:24.617+07:00,540195403204354196,186088,205769,147932,1298
1783333824635843441,2026-07-06T17:30:24.635+07:00,540195404023243687,186156,205863,148006,1292
1783333824654025259,2026-07-06T17:30:24.654+07:00,540195404023243687,186217,205946,148078,1287
1783333824672207077,2026-07-06T17:30:24.672+07:00,540195404023243687,186199,205950,148065,1228
1783333824690388895,2026-07-06T17:30:24.690+07:00,540195404023243687,186265,206065,148144,1206
1783333824708570713,2026-07-06T17:30:24.708+07:00,540195404023243687,186335,206138,148212,1253
1783333824726752531,2026-07-06T17:30:24.726+07:00,540195404023243687,186374,206213,148217,1275
1783333824744934349,2026-07-06T17:30:24.744+07:00,540195404023243687,186434,206315,148319,1314
1783333824763116167,2026-07-06T17:30:24.763+07:00,540195404023243687,186481,206379,148410,1294
1783333824781297985,2026-07-06T17:30:24.781+07:00,540195404023243687,186578,206462,148444,1307
1783333824799479803,2026-07-06T17:30:24.799+07:00,540195404023243687,186618,206493,148489,1245
1783333824817661621,2026-07-06T17:30:24.817+07:00,540195404023243687,186676,206583,148552,1298
1783333824835843439,2026-07-06T17:30:24.835+07:00,540195404023243687,186737,206695,148641,1285
1783333824854025257,2026-07-06T17:30:24.854+07:00,540195404023243687,186767,206790,148705,1307
1783333824872207075,2026-07-06T17:30:24.872+07:00,540195404023243687,186841,206895,148757,1287
1783333824890388893,2026-07-06T17:30:24.890+07:00,540195404023243687,186885,206918,148831,1263
1783333824908570711,2026-07-06T17:30:24.908+07:00,540195404023243687,186895,206963,148845,1232
1783333824926752529,2026-07-06T17:30:24.926+07:00,540195404023243687,186966,207084,148921,1259
1783333824944934347,2026-07-06T17:30:24.944+07:00,540195404023243687,186975,207047,148857,1240
1783333824963116165,2026-07-06T17:30:24.963+07:00,540195404023243687,186983,207068,148924,1285
1783333824981297983,2026-07-06T17:30:24.981+07:00,540195404023243687,186951,207113,148922,1269
1783333824999479801,2026-07-06T17:30:24.999+07:00,540195404023243687,186920,207177,148928,1292
1783333825017661619,2026-07-06T17:30:25.017+07:00,540195404023243687,186966,207062,148890,1309
1783333825035843437,2026-07-06T17:30:25.035+07:00,540195404023243687,186950,207119,148938,1315
1783333825054025255,2026-07-06T17:30:25.054+07:00,540195404023243687,186930,207169,148967,1302
1783333825072207073,2026-07-06T17:30:25.072+07:00,540195404023243687,186930,207294,149037,1299
1783333825090388891,2026-07-06T17:30:25.090+07:00,540195404023243687,186999,207333,149096,1273
1783333825108570709,2026-07-06T17:30:25.108+07:00,540195404023243687,187032,207361,149102,1258
1783333825126752527,2026-07-06T17:30:25.126+07:00,540195404023243687,187060,207489,149182,1281
1783333825144934345,2026-07-06T17:30:25.144+07:00,540195404023243687,187112,207488,149243,1262
1783333825163116163,2026-07-06T17:30:25.163+07:00,540195404023243687,187154,207554,149228,1271
1783333825181297981,2026-07-06T17:30:25.181+07:00,540195404023243687,187158,207630,149235,1300
1783333825199479799,2026-07-06T17:30:25.199+07:00,540195404023243687,187190,207645,149297,1260
1783333825217661617,2026-07-06T17:30:25.217+07:00,540195404023243687,187215,207675,149331,1266
1783333825235843435,2026-07-06T17:30:25.235+07:00,540195404023243687,187281,207722,149354,1271
1783333825254025253,2026-07-06T17:30:25.254+07:00,540195404023243687,187326,207757,149379,1304
1783333825272207071,2026-07-06T17:30:25.272+07:00,540195404023243687,187355,207720,149390,1307
1783333825290388889,2026-07-06T17:30:25.290+07:00,540195404023243687,187421,207844,149502,1371
1783333825308570707,2026-07-06T17:30:25.308+07:00,540195404023243687,187427,207926,149501,1292
1783333825326752525,2026-07-06T17:30:25.326+07:00,540195404023243687,187517,207953,149550,1344
1783333825344934343,2026-07-06T17:30:25.344+07:00,540195404023243687,187568,208017,149584,1308
1783333825363116161,2026-07-06T17:30:25.363+07:00,540195404023243687,187544,208060,149592,1310
1783333825381297979,2026-07-06T17:30:25.381+07:00,540195404023243687,187647,208121,149700,1258
1783333825399479797,2026-07-06T17:30:25.399+07:00,540195404023243687,187717,208187,149736,1274
1783333825417661615,2026-07-06T17:30:25.417+07:00,540195404023243687,187774,208255,149806,1266
1783333825435843433,2026-07-06T17:30:25.435+07:00,540195404023243687,187782,208314,149859,1297
1783333825454025251,2026-07-06T17:30:25.454+07:00,540195404896575761,187858,208376,149874,1269
1783333825472207069,2026-07-06T17:30:25.472+07:00,540195404896575761,187884,208439,149924,1276
1783333825490388887,2026-07-06T17:30:25.490+07:00,540195404896575761,188006,208575,150018,1259
1783333825508570705,2026-07-06T17:30:25.508+07:00,540195404896575761,188038,208684,150067,1268
1783333825526752523,2026-07-06T17:30:25.526+07:00,540195404896575761,188101,208733,150136,1248
1783333825544934341,2026-07-06T17:30:25.544+07:00,540195404896575761,188133,208789,150165,1238
1783333825563116159,2026-07-06T17:30:25.563+07:00,540195404896575761,188127,208767,150230,1239
1783333825581297977,2026-07-06T17:30:25.581+07:00,540195404896575761,188142,208865,150204,1217
1783333825599479795,2026-07-06T17:30:25.599+07:00,540195404896575761,188178,208806,150243,1232
1783333825617661613,2026-07-06T17:30:25.617+07:00,540195404896575761,188194,208874,150274,1298
1783333825635843431,2026-07-06T17:30:25.635+07:00,540195404896575761,188173,208796,150260,1282
1783333825654025249,2026-07-06T17:30:25.654+07:00,540195404896575761,188202,208804,150275,1279
1783333825672207067,2026-07-06T17:30:25.672+07:00,540195404896575761,188229,208774,150382,1293
1783333825690388885,2026-07-06T17:30:25.690+07:00,540195404896575761,188217,208850,150363,1291
1783333825708570703,2026-07-06T17:30:25.708+07:00,540195404896575761,188235,208793,150389,1311
1783333825726752521,2026-07-06T17:30:25.726+07:00,540195404896575761,188216,208853,150343,1298
1783333825744934339,2026-07-06T17:30:25.744+07:00,540195404896575761,188206,208856,150357,1302
1783333825763116157,2026-07-06T17:30:25.763+07:00,540195404896575761,188250,208974,150468,1298
1783333825781297975,2026-07-06T17:30:25.781+07:00,540195404896575761,188309,208922,150424,1343
1783333825799479793,2026-07-06T17:30:25.799+07:00,540195404896575761,188341,208983,150506,1251
1783333825817661611,2026-07-06T17:30:25.817+07:00,540195404896575761,188299,208991,150489,1238
1783333825835843429,2026-07-06T17:30:25.835+07:00,540195404896575761,188325,209049,150533,1220
1783333825854025247,2026-07-06T17:30:25.854+07:00,540195404896575761,188392,209113,150530,1240
1783333825872207065,2026-07-06T17:30:25.872+07:00,540195404896575761,188426,209155,150597,1276
1783333825890388883,2026-07-06T17:30:25.890+07:00,540195404896575761,188398,209148,150613,1248
1783333825908570701,2026-07-06T17:30:25.908+07:00,540195404896575761,188521,209234,150673,1263
1783333825926752519,2026-07-06T17:30:25.926+07:00,540195404896575761,188543,209260,150707,1207
1783333825944934337,2026-07-06T17:30:25.944+07:00,540195404896575761,188609,209386,150782,1223
1783333825963116155,2026-07-06T17:30:25.963+07:00,540195404896575761,188588,209367,150811,1245
1783333825981297973,2026-07-06T17:30:25.981+07:00,540195404896575761,188684,209388,150822,1243
1783333825999479791,2026-07-06T17:30:25.999+07:00,540195404896575761,188768,209480,150931,1280
1783333826017661609,2026-07-06T17:30:26.017+07:00,540195404896575761,188824,209567,150930,1307
1783333826035843427,2026-07-06T17:30:26.035+07:00,540195404896575761,188909,209559,150993,1267
1783333826054025245,2026-07-06T17:30:26.054+07:00,540195404896575761,188924,209607,151029,1287
1783333826072207063,2026-07-06T17:30:26.072+07:00,540195404896575761,188948,209700,151095,1255
1783333826090388881,2026-07-06T17:30:26.090+07:00,540195404896575761,189023,209788,151143,1239
1783333826108570699,2026-07-06T17:30:26.108+07:00,540195404896575761,189091,209858,151269,1286
1783333826126752517,2026-07-06T17:30:26.126+07:00,540195404896575761,189159,209906,151260,1243
1783333826144934335,2026-07-06T17:30:26.144+07:00,540195404896575761,189251,209976,151318,1214
1783333826163116153,2026-07-06T17:30:26.163+07:00,540195404896575761,189299,210017,151350,1260
1783333826181297971,2026-07-06T17:30:26.181+07:00,540195404896575761,189333,210126,151432,1247
1783333826199479789,2026-07-06T17:30:26.199+07:00,540195404896575761,189427,210155,151478,1284
1783333826217661607,2026-07-06T17:30:26.217+07:00,540195404896575761,189448,210220,151515,1298
1783333826235843425,2026-07-06T17:30:26.235+07:00,540195404896575761,189483,210296,151559,1298
1783333826254025243,2026-07-06T17:30:26.254+07:00,540195404896575761,189486,210266,151566,1304
1783333826272207061,2026-07-06T17:30:26.272+07:00,540195404896575761,189514,210257,151534,1245
1783333826290388879,2026-07-06T17:30:26.290+07:00,540195404896575761,189430,210195,151541,1228
1783333826308570697,2026-07-06T17:30:26.308+07:00,540195404896575761,189465,210223,151534,1235
1783333826326752515,2026-07-06T17:30:26.326+07:00,540195405842764995,189424,210257,151551,1284
1783333826344934333,2026-07-06T17:30:26.344+07:00,540195405842764995,189467,210250,151594,1259
1783333826363116151,2026-07-06T17:30:26.363+07:00,540195405842764995,189517,210248,151578,1271
1783333826381297969,2026-07-06T17:30:26.381+07:00,540195405842764995,189525,210227,151635,1245
1783333826399479787,2026-07-06T17:30:26.399+07:00,540195405842764995,189524,210315,151635,1320
1783333826417661605,2026-07-06T17:30:26.417+07:00,540195405842764995,189641,210281,151686,1256
1783333826435843423,2026-07-06T17:30:26.435+07:00,540195405842764995,189677,210360,151730,1328
1783333826454025241,2026-07-06T17:30:26.454+07:00,540195405842764995,189712,210405,151781,1341
1783333826472207059,2026-07-06T17:30:26.472+07:00,540195405842764995,189710,210354,151748,1274
1783333826490388877,2026-07-06T17:30:26.490+07:00,540195405842764995,189736,210355,151765,1218
1783333826508570695,2026-07-06T17:30:26.508+07:00,540195405842764995,189726,210431,151757,1218
1783333826526752513,2026-07-06T17:30:26.526+07:00,540195405842764995,189763,210508,151848,1310
1783333826544934331,2026-07-06T17:30:26.544+07:00,540195405842764995,189796,210511,151873,1368
1783333826563116149,2026-07-06T17:30:26.563+07:00,540195405842764995,189855,210442,151904,1247
1783333826581297967,2026-07-06T17:30:26.581+07:00,540195405842764995,189876,210508,151858,1242
1783333826599479785,2026-07-06T17:30:26.599+07:00,540195405842764995,189935,210505,151925,1247
1783333826617661603,2026-07-06T17:30:26.617+07:00,540195405842764995,189996,210570,151913,1298
1783333826635843421,2026-07-06T17:30:26.635+07:00,540195405842764995,190026,210581,151903,1262
1783333826654025239,2026-07-06T17:30:26.654+07:00,540195405842764995,190082,210667,151976,1289
1783333826672207057,2026-07-06T17:30:26.672+07:00,540195405842764995,190095,210700,152023,1275
1783333826690388875,2026-07-06T17:30:26.690+07:00,540195405842764995,190144,210650,152061,1292
1783333826708570693,2026-07-06T17:30:26.708+07:00,540195405842764995,190140,210747,152099,1290
1783333826726752511,2026-07-06T17:30:26.726+07:00,540195405842764995,190225,210816,152204,1280
1783333826744934329,2026-07-06T17:30:26.744+07:00,540195405842764995,190289,210835,152183,1270
1783333826763116147,2026-07-06T17:30:26.763+07:00,540195405842764995,190327,210868,152217,1266
1783333826781297965,2026-07-06T17:30:26.781+07:00,540195405842764995,190413,210960,152289,1289
1783333826799479783,2026-07-06T17:30:26.799+07:00,540195405842764995,190455,211006,152279,1297
1783333826817661601,2026-07-06T17:30:26.817+07:00,540195405842764995,190499,211020,152347,1271
1783333826835843419,2026-07-06T17:30:26.835+07:00,540195405842764995,190603,211114,152443,1260
1783333826854025237,2026-07-06T17:30:26.854+07:00,540195405842764995,190579,211095,152464,1235
1783333826872207055,2026-07-06T17:30:26.872+07:00,540195405842764995,190580,211102,152409,1268
1783333826890388873,2026-07-06T17:30:26.890+07:00,540195405842764995,190608,211148,152434,1281
1783333826908570691,2026-07-06T17:30:26.908+07:00,540195405842764995,190614,211095,152403,1253
1783333826926752509,2026-07-06T17:30:26.926+07:00,540195405842764995,190561,211031,152355,1300
1783333826944934327,2026-07-06T17:30:26.944+07:00,540195405842764995,190547,210978,152364,1351
1783333826963116145,2026-07-06T17:30:26.963+07:00,540195405842764995,190542,210918,152335,1286
1783333826981297963,2026-07-06T17:30:26.981+07:00,540195405842764995,190529,210881,152309,1298
1783333826999479781,2026-07-06T17:30:26.999+07:00,540195405842764995,190541,210877,152286,1233
1783333827017661599,2026-07-06T17:30:27.017+07:00,540195405842764995,190537,210854,152256,1237
1783333827035843417,2026-07-06T17:30:27.035+07:00,540195405842764995,190492,210863,152280,1247
1783333827054025235,2026-07-06T17:30:27.054+07:00,540195405842764995,190560,210807,152299,1233
1783333827072207053,2026-07-06T17:30:27.072+07:00,540195405842764995,190651,210868,152359,1286
1783333827090388871,2026-07-06T17:30:27.090+07:00,540195405842764995,190664,210858,152343,1263
1783333827108570689,2026-07-06T17:30:27.108+07:00,540195405842764995,190650,210867,152357,1283
1783333827126752507,2026-07-06T17:30:27.126+07:00,540195405842764995,190631,210890,152388,1272
1783333827144934325,2026-07-06T17:30:27.144+07:00,540195405842764995,190735,210932,152423,1296
1783333827163116143,2026-07-06T17:30:27.163+07:00,540195405842764995,190739,210982,152456,1256
1783333827181297961,2026-07-06T17:30:27.181+07:00,540195405842764995,190737,210918,152415,1222
1783333827199479779,2026-07-06T17:30:27.199+07:00,540195405842764995,190743,210967,152415,1291
1783333827217661597,2026-07-06T17:30:27.217+07:00,540195405842764995,190784,210918,152391,1274
1783333827235843415,2026-07-06T17:30:27.235+07:00,540195405842764995,190768,210933,152464,1249
1783333827254025233,2026-07-06T17:30:27.254+07:00,540195405842764995,190842,210998,152497,1288
1783333827272207051,2026-07-06T17:30:27.272+07:00,540195406661540042,190861,210973,152461,1299
1783333827290388869,2026-07-06T17:30:27.290+07:00,540195406661540042,190864,210971,152499,1280
1783333827308570687,2026-07-06T17:30:27.308+07:00,540195406661540042,190946,211042,152526,1257
1783333827326752505,2026-07-06T17:30:27.326+07:00,540195406661540042,190994,211068,152577,1287
1783333827344934323,2026-07-06T17:30:27.344+07:00,540195406661540042,191055,211084,152632,1293
1783333827363116141,2026-07-06T17:30:27.363+07:00,540195406661540042,191108,211144,152652,1324
1783333827381297959,2026-07-06T17:30:27.381+07:00,540195406661540042,191130,211199,152687,1334
1783333827399479777,2026-07-06T17:30:27.399+07:00,540195406661540042,191151,211225,152699,1246
1783333827417661595,2026-07-06T17:30:27.417+07:00,540195406661540042,191205,211315,152773,1283
1783333827435843413,2026-07-06T17:30:27.435+07:00,540195406661540042,191230,211259,152760,1255
1783333827454025231,2026-07-06T17:30:27.454+07:00,540195406661540042,191265,211366,152838,1226
1783333827472207049,2026-07-06T17:30:27.472+07:00,540195406661540042,191316,211356,152815,1224
1783333827490388867,2026-07-06T17:30:27.490+07:00,540195406661540042,191390,211396,152823,1262
1783333827508570685,2026-07-06T17:30:27.508+07:00,540195406661540042,191399,211361,152833,1245
1783333827526752503,2026-07-06T17:30:27.526+07:00,540195406661540042,191367,211334,152824,1272
1783333827544934321,2026-07-06T17:30:27.544+07:00,540195406661540042,191268,211250,152702,1228
1783333827563116139,2026-07-06T17:30:27.563+07:00,540195406661540042,191276,211222,152767,1387
1783333827581297957,2026-07-06T17:30:27.581+07:00,540195406661540042,191171,211053,152652,1314
1783333827599479775,2026-07-06T17:30:27.599+07:00,540195406661540042,191180,211050,152621,1323
1783333827617661593,2026-07-06T17:30:27.617+07:00,540195406661540042,191171,210946,152593,1317
1783333827635843411,2026-07-06T17:30:27.635+07:00,540195406661540042,191164,210918,152548,1293
1783333827654025229,2026-07-06T17:30:27.654+07:00,540195406661540042,191059,210803,152495,1275
1783333827672207047,2026-07-06T17:30:27.672+07:00,540195406661540042,191100,210795,152456,1353
1783333827690388865,2026-07-06T17:30:27.690+07:00,540195406661540042,191062,210826,152420,1293
1783333827708570683,2026-07-06T17:30:27.708+07:00,540195406661540042,191027,210724,152428,1268
1783333827726752501,2026-07-06T17:30:27.726+07:00,540195406661540042,191046,210745,152441,1256
1783333827744934319,2026-07-06T17:30:27.744+07:00,540195406661540042,191060,210690,152442,1304
1783333827763116137,2026-07-06T17:30:27.763+07:00,540195406661540042,191057,210655,152408,1320
1783333827781297955,2026-07-06T17:30:27.781+07:00,540195406661540042,191063,210632,152408,1233
1783333827799479773,2026-07-06T17:30:27.799+07:00,540195406661540042,191092,210692,152513,1318
1783333827817661591,2026-07-06T17:30:27.817+07:00,540195406661540042,191015,210649,152443,1237
1783333827835843409,2026-07-06T17:30:27.835+07:00,540195406661540042,191110,210623,152451,1272
1783333827854025227,2026-07-06T17:30:27.854+07:00,540195406661540042,191049,210607,152398,1296
1783333827872207045,2026-07-06T17:30:27.872+07:00,540195406661540042,191012,210558,152395,1300
1783333827890388863,2026-07-06T17:30:27.890+07:00,540195406661540042,191078,210577,152404,1297
1783333827908570681,2026-07-06T17:30:27.908+07:00,540195406661540042,191074,210626,152438,1254
1783333827926752499,2026-07-06T17:30:27.926+07:00,540195406661540042,191072,210578,152342,1243
1783333827944934317,2026-07-06T17:30:27.944+07:00,540195406661540042,191199,210614,152377,1302
1783333827963116135,2026-07-06T17:30:27.963+07:00,540195406661540042,191161,210554,152463,1296
1783333827981297953,2026-07-06T17:30:27.981+07:00,540195406661540042,191175,210606,152428,1331
1783333827999479771,2026-07-06T17:30:27.999+07:00,540195406661540042,191135,210639,152411,1296
1783333828017661589,2026-07-06T17:30:28.017+07:00,540195406661540042,191196,210625,152431,1337
1783333828035843407,2026-07-06T17:30:28.035+07:00,540195406661540042,191275,210681,152417,1317
1783333828054025225,2026-07-06T17:30:28.054+07:00,540195406661540042,191282,210645,152474,1303
1783333828072207043,2026-07-06T17:30:28.072+07:00,540195406661540042,191284,210638,152515,1266
1783333828090388861,2026-07-06T17:30:28.090+07:00,540195407443891861,191274,210691,152519,1265
1783333828108570679,2026-07-06T17:30:28.108+07:00,540195407443891861,191296,210668,152499,1236
1783333828126752497,2026-07-06T17:30:28.126+07:00,540195407443891861,191374,210750,152577,1281
1783333828144934315,2026-07-06T17:30:28.144+07:00,540195407443891861,191359,210697,152570,1199
1783333828163116133,2026-07-06T17:30:28.163+07:00,540195407443891861,191330,210700,152544,1204
1783333828181297951,2026-07-06T17:30:28.181+07:00,540195407443891861,191408,210666,152576,1222
1783333828199479769,2026-07-06T17:30:28.199+07:00,540195407443891861,191379,210617,152532,1234
1783333828217661587,2026-07-06T17:30:28.217+07:00,540195407443891861,191258,210522,152425,1233
1783333828235843405,2026-07-06T17:30:28.235+07:00,540195407443891861,191195,210303,152219,1198
1783333828254025223,2026-07-06T17:30:28.254+07:00,540195407443891861,191089,210223,152153,1219
1783333828272207041,2026-07-06T17:30:28.272+07:00,540195407443891861,191046,210162,152188,1272
1783333828290388859,2026-07-06T17:30:28.290+07:00,540195407443891861,191050,209992,152085,1272
1783333828308570677,2026-07-06T17:30:28.308+07:00,540195407443891861,191004,209959,152002,1255
1783333828326752495,2026-07-06T17:30:28.326+07:00,540195407443891861,190893,209822,151988,1303
1783333828344934313,2026-07-06T17:30:28.344+07:00,540195407443891861,190946,209828,151985,1274
1783333828363116131,2026-07-06T17:30:28.363+07:00,540195407443891861,190906,209836,151947,1303
1783333828381297949,2026-07-06T17:30:28.381+07:00,540195407443891861,190831,209736,151905,1277
1783333828399479767,2026-07-06T17:30:28.399+07:00,540195407443891861,190872,209700,151883,1251
1783333828417661585,2026-07-06T17:30:28.417+07:00,540195407443891861,190920,209695,151921,1273
1783333828435843403,2026-07-06T17:30:28.435+07:00,540195407443891861,190830,209638,151843,1268
1783333828454025221,2026-07-06T17:30:28.454+07:00,540195407443891861,190748,209609,151819,1265
1783333828472207039,2026-07-06T17:30:28.472+07:00,540195407443891861,190773,209510,151826,1218
1783333828490388857,2026-07-06T17:30:28.490+07:00,540195407443891861,190729,209517,151780,1277
1783333828508570675,2026-07-06T17:30:28.508+07:00,540195407443891861,190686,209436,151761,1248
1783333828526752493,2026-07-06T17:30:28.526+07:00,540195407443891861,190709,209387,151729,1247
1783333828544934311,2026-07-06T17:30:28.544+07:00,540195407443891861,190697,209349,151657,1224
1783333828563116129,2026-07-06T17:30:28.563+07:00,540195407443891861,190669,209295,151632,1283
1783333828581297947,2026-07-06T17:30:28.581+07:00,540195407443891861,190691,209300,151620,1275
1783333828599479765,2026-07-06T17:30:28.599+07:00,540195407443891861,190610,209242,151641,1276
1783333828617661583,2026-07-06T17:30:28.617+07:00,540195407443891861,190632,209256,151602,1256
1783333828635843401,2026-07-06T17:30:28.635+07:00,540195407443891861,190601,209229,151570,1247
1783333828654025219,2026-07-06T17:30:28.654+07:00,540195407443891861,190682,209234,151611,1256
1783333828672207037,2026-07-06T17:30:28.672+07:00,540195407443891861,190734,209319,151668,1257
1783333828690388855,2026-07-06T17:30:28.690+07:00,540195407443891861,190698,209238,151600,1236
1783333828708570673,2026-07-06T17:30:28.708+07:00,540195407443891861,190749,209279,151654,1279
1783333828726752491,2026-07-06T17:30:28.726+07:00,540195407443891861,190783,209189,151700,1288
1783333828744934309,2026-07-06T17:30:28.744+07:00,540195407443891861,190795,209217,151711,1229
1783333828763116127,2026-07-06T17:30:28.763+07:00,540195407443891861,190734,209227,151680,1217
1783333828781297945,2026-07-06T17:30:28.781+07:00,540195407443891861,190748,209251,151686,1255
1783333828799479763,2026-07-06T17:30:28.799+07:00,540195407443891861,190792,209286,151698,1254
1783333828817661581,2026-07-06T17:30:28.817+07:00,540195407443891861,190753,209313,151705,1253
1783333828835843399,2026-07-06T17:30:28.835+07:00,540195407443891861,190811,209238,151708,1291
1783333828854025217,2026-07-06T17:30:28.854+07:00,540195407443891861,190769,209166,151666,1288
1783333828872207035,2026-07-06T17:30:28.872+07:00,540195408226335232,190683,209066,151579,1235
1783333828890388853,2026-07-06T17:30:28.890+07:00,540195408226335232,190582,208925,151451,1219
1783333828908570671,2026-07-06T17:30:28.908+07:00,540195408226335232,190494,208789,151375,1262
1783333828926752489,2026-07-06T17:30:28.926+07:00,540195408226335232,190385,208632,151280,1308
1783333828944934307,2026-07-06T17:30:28.944+07:00,540195408226335232,190271,208512,151160,1323
1783333828963116125,2026-07-06T17:30:28.963+07:00,540195408226335232,190257,208386,151062,1301
1783333828981297943,2026-07-06T17:30:28.981+07:00,540195408226335232,190090,208232,151025,1217
1783333828999479761,2026-07-06T17:30:28.999+07:00,540195408226335232,190053,208136,150972,1291
1783333829017661579,2026-07-06T17:30:29.017+07:00,540195408226335232,190035,208140,150961,1303
1783333829035843397,2026-07-06T17:30:29.035+07:00,540195408226335232,189935,207999,150802,1247
1783333829054025215,2026-07-06T17:30:29.054+07:00,540195408226335232,189908,207953,150829,1239
1783333829072207033,2026-07-06T17:30:29.072+07:00,540195408226335232,189846,207866,150808,1206
1783333829090388851,2026-07-06T17:30:29.090+07:00,540195408226335232,189748,207725,150721,1224
1783333829108570669,2026-07-06T17:30:29.108+07:00,540195408226335232,189765,207738,150647,1232
1783333829126752487,2026-07-06T17:30:29.126+07:00,540195408226335232,189739,207706,150652,1234
1783333829144934305,2026-07-06T17:30:29.144+07:00,540195408226335232,189653,207593,150551,1242
1783333829163116123,2026-07-06T17:30:29.163+07:00,540195408226335232,189684,207576,150590,1252
1783333829181297941,2026-07-06T17:30:29.181+07:00,540195408226335232,189561,207456,150559,1266
1783333829199479759,2026-07-06T17:30:29.199+07:00,540195408226335232,189598,207469,150499,1251
1783333829217661577,2026-07-06T17:30:29.217+07:00,540195408226335232,189542,207397,150451,1213
1783333829235843395,2026-07-06T17:30:29.235+07:00,540195408226335232,189535,207364,150491,1223
1783333829254025213,2026-07-06T17:30:29.254+07:00,540195408226335232,189514,207312,150465,1221
1783333829272207031,2026-07-06T17:30:29.272+07:00,540195408226335232,189492,207348,150479,1233
1783333829290388849,2026-07-06T17:30:29.290+07:00,540195408226335232,189428,207282,150458,1224
1783333829308570667,2026-07-06T17:30:29.308+07:00,540195408226335232,189471,207295,150446,1246
1783333829326752485,2026-07-06T17:30:29.326+07:00,540195408226335232,189446,207294,150390,1220
1783333829344934303,2026-07-06T17:30:29.344+07:00,540195408226335232,189436,207303,150450,1233
1783333829363116121,2026-07-06T17:30:29.363+07:00,540195408226335232,189385,207243,150415,1199
1783333829381297939,2026-07-06T17:30:29.381+07:00,540195408226335232,189487,207299,150518,1257
1783333829399479757,2026-07-06T17:30:29.399+07:00,540195408226335232,189413,207289,150482,1260
1783333829417661575,2026-07-06T17:30:29.417+07:00,540195408226335232,189404,207242,150510,1250
1783333829435843393,2026-07-06T17:30:29.435+07:00,540195408226335232,189450,207248,150457,1268
1783333829454025211,2026-07-06T17:30:29.454+07:00,540195408226335232,189466,207207,150480,1241
1783333829472207029,2026-07-06T17:30:29.472+07:00,540195408226335232,189516,207215,150521,1303
1783333829490388847,2026-07-06T17:30:29.490+07:00,540195408226335232,189456,207172,150480,1231
1783333829508570665,2026-07-06T17:30:29.508+07:00,540195408226335232,189502,207147,150514,1206
1783333829526752483,2026-07-06T17:30:29.526+07:00,540195408226335232,189448,207102,150414,1238
1783333829544934301,2026-07-06T17:30:29.544+07:00,540195408226335232,189381,206981,150358,1239
1783333829563116119,2026-07-06T17:30:29.563+07:00,540195408226335232,189246,206871,150229,1221
1783333829581297937,2026-07-06T17:30:29.581+07:00,540195408226335232,189140,206712,150182,1281
1783333829599479755,2026-07-06T17:30:29.599+07:00,540195408226335232,188989,206545,150041,1237
1783333829617661573,2026-07-06T17:30:29.617+07:00,540195408226335232,188837,206334,149934,1216
1783333829635843391,2026-07-06T17:30:29.635+07:00,540195408226335232,188826,206232,149831,1275
1783333829654025209,2026-07-06T17:30:29.654+07:00,540195408990524260,188679,206078,149783,1236
1783333829672207027,2026-07-06T17:30:29.672+07:00,540195408990524260,188575,205957,149707,1248
1783333829690388845,2026-07-06T17:30:29.690+07:00,540195408990524260,188553,205876,149633,1215
1783333829708570663,2026-07-06T17:30:29.708+07:00,540195408990524260,188497,205843,149607,1204
1783333829726752481,2026-07-06T17:30:29.726+07:00,540195408990524260,188478,205739,149491,1228
1783333829744934299,2026-07-06T17:30:29.744+07:00,540195408990524260,188418,205711,149512,1250
1783333829763116117,2026-07-06T17:30:29.763+07:00,540195408990524260,188416,205655,149498,1226
1783333829781297935,2026-07-06T17:30:29.781+07:00,540195408990524260,188346,205617,149485,1205
1783333829799479753,2026-07-06T17:30:29.799+07:00,540195408990524260,188246,205570,149427,1254
1783333829817661571,2026-07-06T17:30:29.817+07:00,540195408990524260,188260,205577,149426,1256
1783333829835843389,2026-07-06T17:30:29.835+07:00,540195408990524260,188183,205496,149391,1276
1783333829854025207,2026-07-06T17:30:29.854+07:00,540195408990524260,188188,205364,149327,1285
1783333829872207025,2026-07-06T17:30:29.872+07:00,540195408990524260,188117,205285,149287,1266
1783333829890388843,2026-07-06T17:30:29.890+07:00,540195408990524260,188014,205284,149282,1234
1783333829908570661,2026-07-06T17:30:29.908+07:00,540195408990524260,188084,205256,149322,1248
1783333829926752479,2026-07-06T17:30:29.926+07:00,540195408990524260,188003,205211,149266,1239
1783333829944934297,2026-07-06T17:30:29.944+07:00,540195408990524260,188005,205188,149273,1293
1783333829963116115,2026-07-06T17:30:29.963+07:00,540195408990524260,188016,205171,149253,1324
1783333829981297933,2026-07-06T17:30:29.981+07:00,540195408990524260,187961,205113,149250,1247
1783333829999479751,2026-07-06T17:30:29.999+07:00,540195408990524260,187971,205119,149279,1259
1783333830017661569,2026-07-06T17:30:30.017+07:00,540195408990524260,187972,205101,149242,1241
1783333830035843387,2026-07-06T17:30:30.035+07:00,540195408990524260,188038,205113,149298,1267
1783333830054025205,2026-07-06T17:30:30.054+07:00,540195408990524260,188014,205136,149288,1257
1783333830072207023,2026-07-06T17:30:30.072+07:00,540195408990524260,188049,205127,149340,1230
1783333830090388841,2026-07-06T17:30:30.090+07:00,540195408990524260,188037,205109,149283,1318
1783333830108570659,2026-07-06T17:30:30.108+07:00,540195408990524260,188037,205150,149345,1267
1783333830126752477,2026-07-06T17:30:30.126+07:00,540195408990524260,188037,205165,149353,1313
1783333830144934295,2026-07-06T17:30:30.144+07:00,540195408990524260,188042,205171,149389,1288
1783333830163116113,2026-07-06T17:30:30.163+07:00,540195408990524260,188064,205190,149362,1268
1783333830181297931,2026-07-06T17:30:30.181+07:00,540195408990524260,188098,205229,149408,1297
1783333830199479749,2026-07-06T17:30:30.199+07:00,540195408990524260,188069,205214,149377,1259
1783333830217661567,2026-07-06T17:30:30.217+07:00,540195408990524260,187992,205109,149274,1236
1783333830235843385,2026-07-06T17:30:30.235+07:00,540195408990524260,187923,204968,149216,1309
1783333830254025203,2026-07-06T17:30:30.254+07:00,540195408990524260,187816,204867,149192,1324
1783333830272207021,2026-07-06T17:30:30.272+07:00,540195408990524260,187649,204656,149061,1280
1783333830290388839,2026-07-06T17:30:30.290+07:00,540195408990524260,187585,204474,148962,1296
1783333830308570657,2026-07-06T17:30:30.308+07:00,540195408990524260,187436,204307,148844,1235
1783333830326752475,2026-07-06T17:30:30.326+07:00,540195408990524260,187367,204231,148800,1281
1783333830344934293,2026-07-06T17:30:30.344+07:00,540195408990524260,187280,204180,148725,1249
1783333830363116111,2026-07-06T17:30:30.363+07:00,540195408990524260,187249,204086,148678,1237
1783333830381297929,2026-07-06T17:30:30.381+07:00,540195408990524260,187203,204081,148687,1245
1783333830399479747,2026-07-06T17:30:30.399+07:00,540195408990524260,187197,204020,148627,1294
1783333830417661565,2026-07-06T17:30:30.417+07:00,540195409827523144,187215,204040,148706,1290
1783333830435843383,2026-07-06T17:30:30.435+07:00,540195409827523144,187175,204033,148620,1243
1783333830454025201,2026-07-06T17:30:30.454+07:00,540195409827523144,187184,203970,148614,1294
1783333830472207019,2026-07-06T17:30:30.472+07:00,540195409827523144,187160,203935,148700,1287
1783333830490388837,2026-07-06T17:30:30.490+07:00,540195409827523144,187064,203833,148607,1224
1783333830508570655,2026-07-06T17:30:30.508+07:00,540195409827523144,187068,203805,148638,1274
1783333830526752473,2026-07-06T17:30:30.526+07:00,540195409827523144,186991,203745,148594,1252
1783333830544934291,2026-07-06T17:30:30.544+07:00,540195409827523144,186978,203765,148617,1298
1783333830563116109,2026-07-06T17:30:30.563+07:00,540195409827523144,186936,203663,148575,1207
1783333830581297927,2026-07-06T17:30:30.581+07:00,540195409827523144,186960,203703,148623,1277
1783333830599479745,2026-07-06T17:30:30.599+07:00,540195409827523144,186903,203611,148561,1233
1783333830617661563,2026-07-06T17:30:30.617+07:00,540195409827523144,186917,203612,148609,1269
1783333830635843381,2026-07-06T17:30:30.635+07:00,540195409827523144,186859,203638,148568,1248
1783333830654025199,2026-07-06T17:30:30.654+07:00,540195409827523144,186862,203629,148590,1190
1783333830672207017,2026-07-06T17:30:30.672+07:00,540195409827523144,186916,203713,148655,1153
1783333830690388835,2026-07-06T17:30:30.690+07:00,540195409827523144,186977,203677,148665,1224
1783333830708570653,2026-07-06T17:30:30.708+07:00,540195409827523144,186979,203750,148719,1272
1783333830726752471,2026-07-06T17:30:30.726+07:00,540195409827523144,186993,203772,148736,1292
1783333830744934289,2026-07-06T17:30:30.744+07:00,540195409827523144,186992,203752,148729,1262
1783333830763116107,2026-07-06T17:30:30.763+07:00,540195409827523144,186991,203789,148765,1245
1783333830781297925,2026-07-06T17:30:30.781+07:00,540195409827523144,187047,203813,148781,1287
1783333830799479743,2026-07-06T17:30:30.799+07:00,540195409827523144,187034,203853,148854,1270
1783333830817661561,2026-07-06T17:30:30.817+07:00,540195409827523144,187074,203922,148911,1282
1783333830835843379,2026-07-06T17:30:30.835+07:00,540195409827523144,187120,203904,148898,1222
1783333830854025197,2026-07-06T17:30:30.854+07:00,540195409827523144,187119,203911,148935,1270
1783333830872207015,2026-07-06T17:30:30.872+07:00,540195409827523144,187158,203971,148921,1229
1783333830890388833,2026-07-06T17:30:30.890+07:00,540195409827523144,187128,203916,148990,1189
1783333830908570651,2026-07-06T17:30:30.908+07:00,540195409827523144,187137,203846,148934,1279
1783333830926752469,2026-07-06T17:30:30.926+07:00,540195409827523144,187006,203788,148889,1240
1783333830944934287,2026-07-06T17:30:30.944+07:00,540195409827523144,186947,203620,148817,1269
1783333830963116105,2026-07-06T17:30:30.963+07:00,540195409827523144,186818,203526,148688,1237
1783333830981297923,2026-07-06T17:30:30.981+07:00,540195409827523144,186691,203417,148661,1224
1783333830999479741,2026-07-06T17:30:30.999+07:00,540195409827523144,186683,203338,148678,1239
1783333831017661559,2026-07-06T17:30:31.017+07:00,540195409827523144,186609,203318,148632,1274
1783333831035843377,2026-07-06T17:30:31.035+07:00,540195409827523144,186595,203232,148615,1249
1783333831054025195,2026-07-06T17:30:31.054+07:00,540195409827523144,186640,203220,148641,1254
1783333831072207013,2026-07-06T17:30:31.072+07:00,540195409827523144,186623,203217,148615,1256
1783333831090388831,2026-07-06T17:30:31.090+07:00,540195409827523144,186593,203250,148612,1273
1783333831108570649,2026-07-06T17:30:31.108+07:00,540195409827523144,186589,203210,148577,1220
1783333831126752467,2026-07-06T17:30:31.126+07:00,540195409827523144,186581,203183,148569,1257
1783333831144934285,2026-07-06T17:30:31.144+07:00,540195409827523144,186591,203165,148653,1240
1783333831163116103,2026-07-06T17:30:31.163+07:00,540195409827523144,186586,203127,148627,1199
1783333831181297921,2026-07-06T17:30:31.181+07:00,540195409827523144,186602,203130,148695,1275
1783333831199479739,2026-07-06T17:30:31.199+07:00,540195409827523144,186554,203153,148668,1238
1783333831217661557,2026-07-06T17:30:31.217+07:00,540195409827523144,186546,203104,148680,1230
1783333831235843375,2026-07-06T17:30:31.235+07:00,540195409827523144,186563,203040,148616,1203
1783333831254025193,2026-07-06T17:30:31.254+07:00,540195410664555586,186638,203103,148670,1246
1783333831272207011,2026-07-06T17:30:31.272+07:00,540195410664555586,186562,203121,148689,1208
1783333831290388829,2026-07-06T17:30:31.290+07:00,540195410664555586,186643,203140,148741,1276
1783333831308570647,2026-07-06T17:30:31.308+07:00,540195410664555586,186663,203187,148735,1237
1783333831326752465,2026-07-06T17:30:31.326+07:00,540195410664555586,186702,203245,148767,1228
1783333831344934283,2026-07-06T17:30:31.344+07:00,540195410664555586,186706,203223,148722,1205
1783333831363116101,2026-07-06T17:30:31.363+07:00,540195410664555586,186750,203329,148819,1252
1783333831381297919,2026-07-06T17:30:31.381+07:00,540195410664555586,186759,203334,148832,1231
1783333831399479737,2026-07-06T17:30:31.399+07:00,540195410664555586,186852,203397,148889,1229
1783333831417661555,2026-07-06T17:30:31.417+07:00,540195410664555586,186895,203462,148891,1267
1783333831435843373,2026-07-06T17:30:31.435+07:00,540195410664555586,186956,203502,148930,1243
1783333831454025191,2026-07-06T17:30:31.454+07:00,540195410664555586,186946,203566,148956,1201
1783333831472207009,2026-07-06T17:30:31.472+07:00,540195410664555586,187053,203636,149085,1252
1783333831490388827,2026-07-06T17:30:31.490+07:00,540195410664555586,187084,203698,149100,1255
1783333831508570645,2026-07-06T17:30:31.508+07:00,540195410664555586,187127,203772,149141,1282
1783333831526752463,2026-07-06T17:30:31.526+07:00,540195410664555586,187162,203762,149112,1317
1783333831544934281,2026-07-06T17:30:31.544+07:00,540195410664555586,187109,203685,149127,1260
1783333831563116099,2026-07-06T17:30:31.563+07:00,540195410664555586,187062,203602,149065,1212
1783333831581297917,2026-07-06T17:30:31.581+07:00,540195410664555586,187024,203599,149052,1249
1783333831599479735,2026-07-06T17:30:31.599+07:00,540195410664555586,186990,203499,148999,1235
1783333831617661553,2026-07-06T17:30:31.617+07:00,540195410664555586,186965,203470,149013,1204
1783333831635843371,2026-07-06T17:30:31.635+07:00,540195410664555586,186997,203544,149083,1204
1783333831654025189,2026-07-06T17:30:31.654+07:00,540195410664555586,186966,203569,149010,1230
1783333831672207007,2026-07-06T17:30:31.672+07:00,540195410664555586,186990,203468,148978,1246
1783333831690388825,2026-07-06T17:30:31.690+07:00,540195410664555586,186981,203568,149010,1265
1783333831708570643,2026-07-06T17:30:31.708+07:00,540195410664555586,187087,203642,149064,1258
1783333831726752461,2026-07-06T17:30:31.726+07:00,540195410664555586,187103,203714,149132,1221
1783333831744934279,2026-07-06T17:30:31.744+07:00,540195410664555586,187219,203749,149175,1241
1783333831763116097,2026-07-06T17:30:31.763+07:00,540195410664555586,187219,203837,149198,1249
1783333831781297915,2026-07-06T17:30:31.781+07:00,540195410664555586,187219,203831,149202,1190
1783333831799479733,2026-07-06T17:30:31.799+07:00,540195410664555586,187247,203898,149317,1262
1783333831817661551,2026-07-06T17:30:31.817+07:00,540195410664555586,187285,203966,149349,1268
1783333831835843369,2026-07-06T17:30:31.835+07:00,540195410664555586,187330,204017,149363,1288
1783333831854025187,2026-07-06T17:30:31.854+07:00,540195410664555586,187361,204047,149459,1294
1783333831872207005,2026-07-06T17:30:31.872+07:00,540195410664555586,187409,204074,149414,1226
1783333831890388823,2026-07-06T17:30:31.890+07:00,540195410664555586,187473,204184,149450,1249
1783333831908570641,2026-07-06T17:30:31.908+07:00,540195410664555586,187548,204238,149573,1238
1783333831926752459,2026-07-06T17:30:31.926+07:00,540195410664555586,187625,204369,149641,1189
1783333831944934277,2026-07-06T17:30:31.944+07:00,540195410664555586,187625,204462,149593,1233
1783333831963116095,2026-07-06T17:30:31.963+07:00,540195410664555586,187727,204575,149719,1226
1783333831981297913,2026-07-06T17:30:31.981+07:00,540195410664555586,187825,204685,149812,1205
1783333831999479731,2026-07-06T17:30:31.999+07:00,540195410664555586,187907,204818,149915,1254
1783333832017661549,2026-07-06T17:30:32.017+07:00,540195410664555586,187954,204845,149952,1218
1783333832035843367,2026-07-06T17:30:32.035+07:00,540195410664555586,188023,204980,150065,1239
1783333832054025185,2026-07-06T17:30:32.054+07:00,540195410664555586,188184,205084,150138,1230
1783333832072207003,2026-07-06T17:30:32.072+07:00,540195410664555586,188216,205251,150219,1209
1783333832090388821,2026-07-06T17:30:32.090+07:00,540195411428802600,188358,205374,150328,1304
1783333832108570639,2026-07-06T17:30:32.108+07:00,540195411428802600,188393,205436,150414,1279
1783333832126752457,2026-07-06T17:30:32.126+07:00,540195411428802600,188449,205615,150458,1236
1783333832144934275,2026-07-06T17:30:32.144+07:00,540195411428802600,188546,205735,150546,1247
1783333832163116093,2026-07-06T17:30:32.163+07:00,540195411428802600,188580,205793,150582,1257
1783333832181297911,2026-07-06T17:30:32.181+07:00,540195411428802600,188732,205855,150670,1218
1783333832199479729,2026-07-06T17:30:32.199+07:00,540195411428802600,188737,205868,150659,1263
1783333832217661547,2026-07-06T17:30:32.217+07:00,540195411428802600,188729,205888,150735,1269
1783333832235843365,2026-07-06T17:30:32.235+07:00,540195411428802600,188714,205917,150759,1236
1783333832254025183,2026-07-06T17:30:32.254+07:00,540195411428802600,188742,205950,150785,1223
1783333832272207001,2026-07-06T17:30:32.272+07:00,540195411428802600,188784,206010,150840,1276
1783333832290388819,2026-07-06T17:30:32.290+07:00,540195411428802600,188828,206080,150868,1265
1783333832308570637,2026-07-06T17:30:32.308+07:00,540195411428802600,188882,206175,150976,1300
1783333832326752455,2026-07-06T17:30:32.326+07:00,540195411428802600,188981,206219,150964,1277
1783333832344934273,2026-07-06T17:30:32.344+07:00,540195411428802600,189004,206288,151017,1258
1783333832363116091,2026-07-06T17:30:32.363+07:00,540195411428802600,189138,206425,151095,1225
1783333832381297909,2026-07-06T17:30:32.381+07:00,540195411428802600,189186,206532,151212,1200
1783333832399479727,2026-07-06T17:30:32.399+07:00,540195411428802600,189262,206621,151296,1226
1783333832417661545,2026-07-06T17:30:32.417+07:00,540195411428802600,189304,206722,151307,1223
1783333832435843363,2026-07-06T17:30:32.435+07:00,540195411428802600,189335,206832,151414,1229
1783333832454025181,2026-07-06T17:30:32.454+07:00,540195411428802600,189403,206911,151521,1196
1783333832472206999,2026-07-06T17:30:32.472+07:00,540195411428802600,189520,207016,151542,1184
1783333832490388817,2026-07-06T17:30:32.490+07:00,540195411428802600,189620,207127,151679,1231
1783333832508570635,2026-07-06T17:30:32.508+07:00,540195411428802600,189720,207297,151773,1255
1783333832526752453,2026-07-06T17:30:32.526+07:00,540195411428802600,189815,207439,151844,1199
1783333832544934271,2026-07-06T17:30:32.544+07:00,540195411428802600,189884,207529,151892,1197
1783333832563116089,2026-07-06T17:30:32.563+07:00,540195411428802600,189984,207591,151986,1228
1783333832581297907,2026-07-06T17:30:32.581+07:00,540195411428802600,190106,207775,152136,1336
1783333832599479725,2026-07-06T17:30:32.599+07:00,540195411428802600,190127,207921,152199,1228
1783333832617661543,2026-07-06T17:30:32.617+07:00,540195411428802600,190330,208009,152309,1301
1783333832635843361,2026-07-06T17:30:32.635+07:00,540195411428802600,190388,208122,152406,1289
1783333832654025179,2026-07-06T17:30:32.654+07:00,540195411428802600,190541,208311,152548,1265
1783333832672206997,2026-07-06T17:30:32.672+07:00,540195411428802600,190556,208406,152633,1249
1783333832690388815,2026-07-06T17:30:32.690+07:00,540195411428802600,190668,208549,152668,1277
1783333832708570633,2026-07-06T17:30:32.708+07:00,540195411428802600,190732,208687,152797,1248
1783333832726752451,2026-07-06T17:30:32.726+07:00,540195411428802600,190862,208879,152950,1273
1783333832744934269,2026-07-06T17:30:32.744+07:00,540195411428802600,190973,208990,153042,1268
1783333832763116087,2026-07-06T17:30:32.763+07:00,540195411428802600,191061,209081,153161,1206
1783333832781297905,2026-07-06T17:30:32.781+07:00,540195411428802600,191160,209195,153239,1188
1783333832799479723,2026-07-06T17:30:32.799+07:00,540195411428802600,191306,209415,153402,1290
1783333832817661541,2026-07-06T17:30:32.817+07:00,540195411428802600,191422,209579,153509,1318
1783333832835843359,2026-07-06T17:30:32.835+07:00,540195411428802600,191497,209642,153533,1322
1783333832854025177,2026-07-06T17:30:32.854+07:00,540195412193049614,191528,209727,153549,1258
1783333832872206995,2026-07-06T17:30:32.872+07:00,540195412193049614,191631,209859,153705,1301
1783333832890388813,2026-07-06T17:30:32.890+07:00,540195412193049614,191622,209961,153785,1277
1783333832908570631,2026-07-06T17:30:32.908+07:00,540195412193049614,191693,210012,153820,1282
1783333832926752449,2026-07-06T17:30:32.926+07:00,540195412193049614,191777,210074,153897,1273
1783333832944934267,2026-07-06T17:30:32.944+07:00,540195412193049614,191811,210171,153969,1311
1783333832963116085,2026-07-06T17:30:32.963+07:00,540195412193049614,191981,210273,154069,1264
1783333832981297903,2026-07-06T17:30:32.981+07:00,540195412193049614,192059,210390,154185,1248
1783333832999479721,2026-07-06T17:30:32.999+07:00,540195412193049614,192128,210536,154253,1292
1783333833017661539,2026-07-06T17:30:33.017+07:00,540195412193049614,192304,210689,154379,1315
1783333833035843357,2026-07-06T17:30:33.035+07:00,540195412193049614,192297,210765,154468,1301
1783333833054025175,2026-07-06T17:30:33.054+07:00,540195412193049614,192401,210972,154594,1269
1783333833072206993,2026-07-06T17:30:33.072+07:00,540195412193049614,192454,211029,154725,1296
1783333833090388811,2026-07-06T17:30:33.090+07:00,540195412193049614,192576,211142,154757,1233
1783333833108570629,2026-07-06T17:30:33.108+07:00,540195412193049614,192652,211250,154887,1209
1783333833126752447,2026-07-06T17:30:33.126+07:00,540195412193049614,192735,211383,154986,1258
1783333833144934265,2026-07-06T17:30:33.144+07:00,540195412193049614,192842,211491,155105,1317
1783333833163116083,2026-07-06T17:30:33.163+07:00,540195412193049614,192942,211623,155247,1306
1783333833181297901,2026-07-06T17:30:33.181+07:00,540195412193049614,193001,211725,155269,1225
1783333833199479719,2026-07-06T17:30:33.199+07:00,540195412193049614,193155,211892,155401,1304
1783333833217661537,2026-07-06T17:30:33.217+07:00,540195412193049614,193239,212004,155486,1266
1783333833235843355,2026-07-06T17:30:33.235+07:00,540195412193049614,193275,212083,155524,1233
1783333833254025173,2026-07-06T17:30:33.254+07:00,540195412193049614,193437,212249,155705,1242
1783333833272206991,2026-07-06T17:30:33.272+07:00,540195412193049614,193479,212355,155785,1203
1783333833290388809,2026-07-06T17:30:33.290+07:00,540195412193049614,193651,212482,155850,1274
1783333833308570627,2026-07-06T17:30:33.308+07:00,540195412193049614,193696,212617,155973,1235
1783333833326752445,2026-07-06T17:30:33.326+07:00,540195412193049614,193840,212776,156093,1285
1783333833344934263,2026-07-06T17:30:33.344+07:00,540195412193049614,193934,212935,156247,1249
1783333833363116081,2026-07-06T17:30:33.363+07:00,540195412193049614,194015,213052,156334,1229
1783333833381297899,2026-07-06T17:30:33.381+07:00,540195412193049614,194201,213179,156465,1231
1783333833399479717,2026-07-06T17:30:33.399+07:00,540195412193049614,194261,213307,156623,1231
1783333833417661535,2026-07-06T17:30:33.417+07:00,540195412193049614,194369,213432,156754,1294
1783333833435843353,2026-07-06T17:30:33.435+07:00,540195412193049614,194470,213561,156791,1247
1783333833454025171,2026-07-06T17:30:33.454+07:00,540195412193049614,194598,213718,156986,1237
1783333833472206989,2026-07-06T17:30:33.472+07:00,540195412193049614,194595,213773,157060,1265
1783333833490388807,2026-07-06T17:30:33.490+07:00,540195412193049614,194756,213935,157117,1256
1783333833508570625,2026-07-06T17:30:33.508+07:00,540195412193049614,194825,214096,157267,1259
1783333833526752443,2026-07-06T17:30:33.526+07:00,540195412193049614,194929,214177,157406,1258
1783333833544934261,2026-07-06T17:30:33.544+07:00,540195412193049614,194971,214248,157453,1226
1783333833563116079,2026-07-06T17:30:33.563+07:00,540195412193049614,195007,214333,157473,1196
1783333833581297897,2026-07-06T17:30:33.581+07:00,540195412193049614,195121,214476,157610,1231
1783333833599479715,2026-07-06T17:30:33.599+07:00,540195412193049614,195179,214530,157663,1255
1783333833617661533,2026-07-06T17:30:33.617+07:00,540195412957272212,195243,214579,157812,1254
1783333833635843351,2026-07-06T17:30:33.635+07:00,540195412957272212,195359,214748,157918,1270
1783333833654025169,2026-07-06T17:30:33.654+07:00,540195412957272212,195411,214794,157949,1253
1783333833672206987,2026-07-06T17:30:33.672+07:00,540195412957272212,195510,214970,158082,1326
1783333833690388805,2026-07-06T17:30:33.690+07:00,540195412957272212,195562,215052,158167,1228
1783333833708570623,2026-07-06T17:30:33.708+07:00,540195412957272212,195596,215205,158269,1268
1783333833726752441,2026-07-06T17:30:33.726+07:00,540195412957272212,195734,215243,158364,1286
1783333833744934259,2026-07-06T17:30:33.744+07:00,540195412957272212,195858,215456,158489,1294
1783333833763116077,2026-07-06T17:30:33.763+07:00,540195412957272212,195964,215523,158632,1289
1783333833781297895,2026-07-06T17:30:33.781+07:00,540195412957272212,195959,215585,158705,1268
1783333833799479713,2026-07-06T17:30:33.799+07:00,540195412957272212,196060,215680,158798,1305
1783333833817661531,2026-07-06T17:30:33.817+07:00,540195412957272212,196107,215806,158853,1265
1783333833835843349,2026-07-06T17:30:33.835+07:00,540195412957272212,196215,216011,158923,1276
1783333833854025167,2026-07-06T17:30:33.854+07:00,540195412957272212,196269,216131,159086,1302
1783333833872206985,2026-07-06T17:30:33.872+07:00,540195412957272212,196351,216162,159149,1272
1783333833890388803,2026-07-06T17:30:33.890+07:00,540195412957272212,196412,216284,159248,1207
1783333833908570621,2026-07-06T17:30:33.908+07:00,540195412957272212,196504,216362,159336,1283
1783333833926752439,2026-07-06T17:30:33.926+07:00,540195412957272212,196647,216517,159466,1296
1783333833944934257,2026-07-06T17:30:33.944+07:00,540195412957272212,196702,216584,159551,1267
1783333833963116075,2026-07-06T17:30:33.963+07:00,540195412957272212,196760,216722,159675,1353
1783333833981297893,2026-07-06T17:30:33.981+07:00,540195412957272212,196872,216794,159762,1302
1783333833999479711,2026-07-06T17:30:33.999+07:00,540195412957272212,197003,216919,159841,1240
1783333834017661529,2026-07-06T17:30:34.017+07:00,540195412957272212,197051,216987,159902,1224
1783333834035843347,2026-07-06T17:30:34.035+07:00,540195412957272212,197126,217128,159997,1222
1783333834054025165,2026-07-06T17:30:34.054+07:00,540195412957272212,197246,217240,160167,1266
1783333834072206983,2026-07-06T17:30:34.072+07:00,540195412957272212,197321,217359,160244,1274
1783333834090388801,2026-07-06T17:30:34.090+07:00,540195412957272212,197416,217501,160325,1280
1783333834108570619,2026-07-06T17:30:34.108+07:00,540195412957272212,197431,217619,160413,1273
1783333834126752437,2026-07-06T17:30:34.126+07:00,540195412957272212,197585,217760,160508,1296
1783333834144934255,2026-07-06T17:30:34.144+07:00,540195412957272212,197602,217849,160628,1265
1783333834163116073,2026-07-06T17:30:34.163+07:00,540195412957272212,197740,217968,160708,1220
1783333834181297891,2026-07-06T17:30:34.181+07:00,540195412957272212,197882,218076,160885,1264
1783333834199479709,2026-07-06T17:30:34.199+07:00,540195412957272212,197934,218110,160931,1246
1783333834217661527,2026-07-06T17:30:34.217+07:00,540195412957272212,197991,218232,160997,1271
1783333834235843345,2026-07-06T17:30:34.235+07:00,540195412957272212,197990,218319,161079,1265
1783333834254025163,2026-07-06T17:30:34.254+07:00,540195412957272212,197991,218372,161059,1231
1783333834272206981,2026-07-06T17:30:34.272+07:00,540195412957272212,198064,218442,161211,1297
1783333834290388799,2026-07-06T17:30:34.290+07:00,540195412957272212,198069,218496,161228,1236
1783333834308570617,2026-07-06T17:30:34.308+07:00,540195412957272212,198198,218577,161302,1274
1783333834326752435,2026-07-06T17:30:34.326+07:00,540195412957272212,198254,218633,161381,1224
1783333834344934253,2026-07-06T17:30:34.344+07:00,540195412957272212,198315,218770,161435,1250
1783333834363116071,2026-07-06T17:30:34.363+07:00,540195412957272212,198394,218837,161507,1259
1783333834381297889,2026-07-06T17:30:34.381+07:00,540195413721543642,198545,219019,161659,1266
1783333834399479707,2026-07-06T17:30:34.399+07:00,540195413721543642,198611,219095,161752,1257
1783333834417661525,2026-07-06T17:30:34.417+07:00,540195413721543642,198711,219203,161860,1279
1783333834435843343,2026-07-06T17:30:34.435+07:00,540195413721543642,198726,219327,161981,1265
1783333834454025161,2026-07-06T17:30:34.454+07:00,540195413721543642,198857,219402,162049,1304
1783333834472206979,2026-07-06T17:30:34.472+07:00,540195413721543642,198918,219532,162102,1300
1783333834490388797,2026-07-06T17:30:34.490+07:00,540195413721543642,199002,219595,162172,1294
1783333834508570615,2026-07-06T17:30:34.508+07:00,540195413721543642,199024,219691,162259,1247
1783333834526752433,2026-07-06T17:30:34.526+07:00,540195413721543642,199049,219720,162367,1275
1783333834544934251,2026-07-06T17:30:34.544+07:00,540195413721543642,199130,219928,162437,1269
1783333834563116069,2026-07-06T17:30:34.563+07:00,540195413721543642,199275,220101,162533,1354
1783333834581297887,2026-07-06T17:30:34.581+07:00,540195413721543642,199330,220090,162620,1285
1783333834599479705,2026-07-06T17:30:34.599+07:00,540195413721543642,199430,220201,162702,1281
1783333834617661523,2026-07-06T17:30:34.617+07:00,540195413721543642,199520,220338,162777,1283
1783333834635843341,2026-07-06T17:30:34.635+07:00,540195413721543642,199660,220516,162929,1341
1783333834654025159,2026-07-06T17:30:34.654+07:00,540195413721543642,199680,220536,162934,1265
1783333834672206977,2026-07-06T17:30:34.672+07:00,540195413721543642,199804,220670,163061,1323
1783333834690388795,2026-07-06T17:30:34.690+07:00,540195413721543642,199910,220766,163176,1304
1783333834708570613,2026-07-06T17:30:34.708+07:00,540195413721543642,199955,220862,163256,1264
1783333834726752431,2026-07-06T17:30:34.726+07:00,540195413721543642,200042,220961,163377,1308
1783333834744934249,2026-07-06T17:30:34.744+07:00,540195413721543642,200068,221035,163424,1245
1783333834763116067,2026-07-06T17:30:34.763+07:00,540195413721543642,200190,221212,163516,1259
1783333834781297885,2026-07-06T17:30:34.781+07:00,540195413721543642,200250,221247,163546,1302
1783333834799479703,2026-07-06T17:30:34.799+07:00,540195413721543642,200391,221387,163678,1241
1783333834817661521,2026-07-06T17:30:34.817+07:00,540195413721543642,200440,221468,163779,1238
1783333834835843339,2026-07-06T17:30:34.835+07:00,540195413721543642,200529,221540,163831,1219
1783333834854025157,2026-07-06T17:30:34.854+07:00,540195413721543642,200559,221668,163927,1269
1783333834872206975,2026-07-06T17:30:34.872+07:00,540195413721543642,200632,221779,164000,1275
1783333834890388793,2026-07-06T17:30:34.890+07:00,540195413721543642,200751,221830,164092,1264
1783333834908570611,2026-07-06T17:30:34.908+07:00,540195413721543642,200822,221907,164155,1317
1783333834926752429,2026-07-06T17:30:34.926+07:00,540195413721543642,200873,221976,164172,1262
1783333834944934247,2026-07-06T17:30:34.944+07:00,540195413721543642,200861,221998,164217,1243
1783333834963116065,2026-07-06T17:30:34.963+07:00,540195413721543642,200868,221992,164220,1190
1783333834981297883,2026-07-06T17:30:34.981+07:00,540195413721543642,200884,222104,164301,1196
1783333834999479701,2026-07-06T17:30:34.999+07:00,540195413721543642,200994,222158,164420,1263
1783333835017661519,2026-07-06T17:30:35.017+07:00,540195413721543642,201002,222224,164466,1255
1783333835035843337,2026-07-06T17:30:35.035+07:00,540195413721543642,201072,222273,164503,1238
1783333835054025155,2026-07-06T17:30:35.054+07:00,540195413721543642,201153,222361,164572,1262
1783333835072206973,2026-07-06T17:30:35.072+07:00,540195413721543642,201115,222467,164640,1234
1783333835090388791,2026-07-06T17:30:35.090+07:00,540195413721543642,201215,222517,164711,1252
1783333835108570609,2026-07-06T17:30:35.108+07:00,540195413721543642,201230,222621,164785,1219
1783333835126752427,2026-07-06T17:30:35.126+07:00,540195413721543642,201306,222655,164861,1276
1783333835144934245,2026-07-06T17:30:35.144+07:00,540195414594990170,201333,222774,164912,1281
1783333835163116063,2026-07-06T17:30:35.163+07:00,540195414594990170,201365,222844,164889,1253
1783333835181297881,2026-07-06T17:30:35.181+07:00,540195414594990170,201413,222831,164999,1230
1783333835199479699,2026-07-06T17:30:35.199+07:00,540195414594990170,201521,222956,165089,1286
1783333835217661517,2026-07-06T17:30:35.217+07:00,540195414594990170,201582,223001,165189,1307
1783333835235843335,2026-07-06T17:30:35.235+07:00,540195414594990170,201622,223077,165189,1314
1783333835254025153,2026-07-06T17:30:35.254+07:00,540195414594990170,201638,223148,165252,1289
1783333835272206971,2026-07-06T17:30:35.272+07:00,540195414594990170,201720,223216,165286,1284
1783333835290388789,2026-07-06T17:30:35.290+07:00,540195414594990170,201739,223266,165332,1235
1783333835308570607,2026-07-06T17:30:35.308+07:00,540195414594990170,201773,223332,165451,1263
1783333835326752425,2026-07-06T17:30:35.326+07:00,540195414594990170,201789,223443,165519,1214
1783333835344934243,2026-07-06T17:30:35.344+07:00,540195414594990170,201852,223433,165572,1293
1783333835363116061,2026-07-06T17:30:35.363+07:00,540195414594990170,201922,223602,165679,1285
1783333835381297879,2026-07-06T17:30:35.381+07:00,540195414594990170,201891,223663,165668,1211
1783333835399479697,2026-07-06T17:30:35.399+07:00,540195414594990170,202042,223735,165779,1252
1783333835417661515,2026-07-06T17:30:35.417+07:00,540195414594990170,202080,223769,165857,1243
1783333835435843333,2026-07-06T17:30:35.435+07:00,540195414594990170,202115,223850,165895,1259
1783333835454025151,2026-07-06T17:30:35.454+07:00,540195414594990170,202168,223989,165979,1250
1783333835472206969,2026-07-06T17:30:35.472+07:00,540195414594990170,202268,223979,166076,1236
1783333835490388787,2026-07-06T17:30:35.490+07:00,540195414594990170,202296,224071,166133,1276
1783333835508570605,2026-07-06T17:30:35.508+07:00,540195414594990170,202321,224178,166185,1260
1783333835526752423,2026-07-06T17:30:35.526+07:00,540195414594990170,202366,224235,166218,1272
1783333835544934241,2026-07-06T17:30:35.544+07:00,540195414594990170,202417,224329,166250,1282
1783333835563116059,2026-07-06T17:30:35.563+07:00,540195414594990170,202525,224383,166300,1316
1783333835581297877,2026-07-06T17:30:35.581+07:00,540195414594990170,202499,224425,166394,1302
1783333835599479695,2026-07-06T17:30:35.599+07:00,540195414594990170,202502,224440,166371,1290
1783333835617661513,2026-07-06T17:30:35.617+07:00,540195414594990170,202446,224426,166394,1228
1783333835635843331,2026-07-06T17:30:35.635+07:00,540195414594990170,202405,224409,166374,1255
1783333835654025149,2026-07-06T17:30:35.654+07:00,540195414594990170,202413,224440,166336,1250
1783333835672206967,2026-07-06T17:30:35.672+07:00,540195414594990170,202384,224455,166406,1240
1783333835690388785,2026-07-06T17:30:35.690+07:00,540195414594990170,202389,224403,166452,1228
1783333835708570603,2026-07-06T17:30:35.708+07:00,540195414594990170,202373,224411,166498,1277
1783333835726752421,2026-07-06T17:30:35.726+07:00,540195414594990170,202386,224470,166495,1282
1783333835744934239,2026-07-06T17:30:35.744+07:00,540195414594990170,202413,224461,166499,1255
1783333835763116057,2026-07-06T17:30:35.763+07:00,540195414594990170,202414,224467,166586,1253
1783333835781297875,2026-07-06T17:30:35.781+07:00,540195414594990170,202371,224499,166594,1298
1783333835799479693,2026-07-06T17:30:35.799+07:00,540195414594990170,202347,224451,166568,1243
1783333835817661511,2026-07-06T17:30:35.817+07:00,540195414594990170,202374,224511,166644,1300
1783333835835843329,2026-07-06T17:30:35.835+07:00,540195414594990170,202398,224542,166717,1316
1783333835854025147,2026-07-06T17:30:35.854+07:00,540195414594990170,202382,224483,166770,1268
1783333835872206965,2026-07-06T17:30:35.872+07:00,540195414594990170,202358,224514,166755,1240
1783333835890388783,2026-07-06T17:30:35.890+07:00,540195414594990170,202376,224546,166783,1276
1783333835908570601,2026-07-06T17:30:35.908+07:00,540195414594990170,202303,224549,166723,1242
1783333835926752419,2026-07-06T17:30:35.926+07:00,540195414594990170,202330,224569,166788,1234
1783333835944934237,2026-07-06T17:30:35.944+07:00,540195414594990170,202306,224591,166845,1231
1783333835963116055,2026-07-06T17:30:35.963+07:00,540195414594990170,202277,224666,166797,1306
1783333835981297873,2026-07-06T17:30:35.981+07:00,540195414594990170,202293,224624,166833,1267
1783333835999479691,2026-07-06T17:30:35.999+07:00,540195414594990170,202328,224662,166883,1307
1783333836017661509,2026-07-06T17:30:36.017+07:00,540195415359215822,202315,224596,166888,1298
1783333836035843327,2026-07-06T17:30:36.035+07:00,540195415359215822,202281,224619,166925,1208
1783333836054025145,2026-07-06T17:30:36.054+07:00,540195415359215822,202359,224649,166983,1253
1783333836072206963,2026-07-06T17:30:36.072+07:00,540195415359215822,202361,224745,167050,1310
1783333836090388781,2026-07-06T17:30:36.090+07:00,540195415359215822,202308,224752,166990,1219
1783333836108570599,2026-07-06T17:30:36.108+07:00,540195415359215822,202354,224757,167077,1237
1783333836126752417,2026-07-06T17:30:36.126+07:00,540195415359215822,202298,224795,167090,1251
1783333836144934235,2026-07-06T17:30:36.144+07:00,540195415359215822,202387,224840,167169,1316
1783333836163116053,2026-07-06T17:30:36.163+07:00,540195415359215822,202406,224804,167189,1301
1783333836181297871,2026-07-06T17:30:36.181+07:00,540195415359215822,202358,224818,167179,1255
1783333836199479689,2026-07-06T17:30:36.199+07:00,540195415359215822,202481,224946,167301,1303
1783333836217661507,2026-07-06T17:30:36.217+07:00,540195415359215822,202422,224920,167223,1250
1783333836235843325,2026-07-06T17:30:36.235+07:00,540195415359215822,202432,224980,167277,1337
1783333836254025143,2026-07-06T17:30:36.254+07:00,540195415359215822,202374,224973,167303,1198
1783333836272206961,2026-07-06T17:30:36.272+07:00,540195415359215822,202409,224973,167321,1272
1783333836290388779,2026-07-06T17:30:36.290+07:00,540195415359215822,202460,225008,167319,1267
1783333836308570597,2026-07-06T17:30:36.308+07:00,540195415359215822,202414,224990,167352,1221
1783333836326752415,2026-07-06T17:30:36.326+07:00,540195415359215822,202487,225062,167408,1282
1783333836344934233,2026-07-06T17:30:36.344+07:00,540195415359215822,202418,225048,167405,1226
1783333836363116051,2026-07-06T17:30:36.363+07:00,540195415359215822,202435,225010,167400,1259
1783333836381297869,2026-07-06T17:30:36.381+07:00,540195415359215822,202345,224973,167369,1284
1783333836399479687,2026-07-06T17:30:36.399+07:00,540195415359215822,202234,224799,167272,1248
1783333836417661505,2026-07-06T17:30:36.417+07:00,540195415359215822,202124,224672,167270,1255
1783333836435843323,2026-07-06T17:30:36.435+07:00,540195415359215822,202016,224644,167207,1223
1783333836454025141,2026-07-06T17:30:36.454+07:00,540195415359215822,201977,224619,167254,1242
1783333836472206959,2026-07-06T17:30:36.472+07:00,540195415359215822,201887,224519,167217,1281
1783333836490388777,2026-07-06T17:30:36.490+07:00,540195415359215822,201845,224478,167166,1238
1783333836508570595,2026-07-06T17:30:36.508+07:00,540195415359215822,201736,224359,167076,1182
1783333836526752413,2026-07-06T17:30:36.526+07:00,540195415359215822,201806,224332,167120,1263
1783333836544934231,2026-07-06T17:30:36.544+07:00,540195415359215822,201751,224304,167053,1258
1783333836563116049,2026-07-06T17:30:36.563+07:00,540195415359215822,201685,224229,167084,1248
1783333836581297867,2026-07-06T17:30:36.581+07:00,540195415359215822,201663,224235,167086,1305
1783333836599479685,2026-07-06T17:30:36.599+07:00,540195415359215822,201600,224142,167035,1304
1783333836617661503,2026-07-06T17:30:36.617+07:00,540195415359215822,201566,224143,167049,1314
1783333836635843321,2026-07-06T17:30:36.635+07:00,540195415359215822,201445,223984,166944,1233
1783333836654025139,2026-07-06T17:30:36.654+07:00,540195415359215822,201431,223971,166897,1269
1783333836672206957,2026-07-06T17:30:36.672+07:00,540195415359215822,201384,223909,166918,1195
1783333836690388775,2026-07-06T17:30:36.690+07:00,540195415359215822,201290,223878,166842,1239
1783333836708570593,2026-07-06T17:30:36.708+07:00,540195415359215822,201363,223916,166924,1309
1783333836726752411,2026-07-06T17:30:36.726+07:00,540195415359215822,201309,223883,166899,1298
1783333836744934229,2026-07-06T17:30:36.744+07:00,540195415359215822,201252,223810,166855,1259
1783333836763116047,2026-07-06T17:30:36.763+07:00,540195415359215822,201193,223732,166799,1280
1783333836781297865,2026-07-06T17:30:36.781+07:00,540195416141642407,201157,223703,166823,1251
1783333836799479683,2026-07-06T17:30:36.799+07:00,540195416141642407,201070,223716,166783,1270
1783333836817661501,2026-07-06T17:30:36.817+07:00,540195416141642407,201092,223646,166780,1225
1783333836835843319,2026-07-06T17:30:36.835+07:00,540195416141642407,201071,223657,166762,1240
1783333836854025137,2026-07-06T17:30:36.854+07:00,540195416141642407,201091,223597,166770,1209
1783333836872206955,2026-07-06T17:30:36.872+07:00,540195416141642407,201024,223619,166741,1268
1783333836890388773,2026-07-06T17:30:36.890+07:00,540195416141642407,201037,223599,166776,1206
1783333836908570591,2026-07-06T17:30:36.908+07:00,540195416141642407,201053,223530,166728,1281
1783333836926752409,2026-07-06T17:30:36.926+07:00,540195416141642407,201014,223490,166786,1289
1783333836944934227,2026-07-06T17:30:36.944+07:00,540195416141642407,201005,223479,166768,1313
1783333836963116045,2026-07-06T17:30:36.963+07:00,540195416141642407,200953,223480,166756,1233
1783333836981297863,2026-07-06T17:30:36.981+07:00,540195416141642407,200982,223461,166712,1254
1783333836999479681,2026-07-06T17:30:36.999+07:00,540195416141642407,200941,223521,166721,1267
1783333837017661499,2026-07-06T17:30:37.017+07:00,540195416141642407,200963,223480,166761,1301
1783333837035843317,2026-07-06T17:30:37.035+07:00,540195416141642407,200950,223506,166727,1322
1783333837054025135,2026-07-06T17:30:37.054+07:00,540195416141642407,200955,223491,166739,1300
1783333837072206953,2026-07-06T17:30:37.072+07:00,540195416141642407,200857,223416,166712,1260
1783333837090388771,2026-07-06T17:30:37.090+07:00,540195416141642407,200925,223335,166695,1292
1783333837108570589,2026-07-06T17:30:37.108+07:00,540195416141642407,200800,223248,166568,1243
1783333837126752407,2026-07-06T17:30:37.126+07:00,540195416141642407,200700,223143,166499,1237
1783333837144934225,2026-07-06T17:30:37.144+07:00,540195416141642407,200524,223019,166430,1240
1783333837163116043,2026-07-06T17:30:37.163+07:00,540195416141642407,200407,222854,166349,1255
1783333837181297861,2026-07-06T17:30:37.181+07:00,540195416141642407,200377,222731,166305,1277
1783333837199479679,2026-07-06T17:30:37.199+07:00,540195416141642407,200145,222544,166210,1211
1783333837217661497,2026-07-06T17:30:37.217+07:00,540195416141642407,200093,222453,166080,1307
1783333837235843315,2026-07-06T17:30:37.235+07:00,540195416141642407,199996,222299,166006,1287
1783333837254025133,2026-07-06T17:30:37.254+07:00,540195416141642407,199901,222237,165985,1299
1783333837272206951,2026-07-06T17:30:37.272+07:00,540195416141642407,199823,222080,165902,1305
1783333837290388769,2026-07-06T17:30:37.290+07:00,540195416141642407,199721,222062,165837,1311
1783333837308570587,2026-07-06T17:30:37.308+07:00,540195416141642407,199672,221940,165733,1311
1783333837326752405,2026-07-06T17:30:37.326+07:00,540195416141642407,199547,221774,165680,1262
1783333837344934223,2026-07-06T17:30:37.344+07:00,540195416141642407,199485,221700,165596,1269
1783333837363116041,2026-07-06T17:30:37.363+07:00,540195416141642407,199395,221685,165549,1269
1783333837381297859,2026-07-06T17:30:37.381+07:00,540195416141642407,199277,221529,165450,1207
1783333837399479677,2026-07-06T17:30:37.399+07:00,540195416141642407,199219,221379,165387,1276
1783333837417661495,2026-07-06T17:30:37.417+07:00,540195416141642407,199168,221306,165357,1254
1783333837435843313,2026-07-06T17:30:37.435+07:00,540195416141642407,199132,221191,165333,1319
1783333837454025131,2026-07-06T17:30:37.454+07:00,540195416141642407,198986,221171,165247,1267
1783333837472206949,2026-07-06T17:30:37.472+07:00,540195416141642407,198988,221068,165177,1297
1783333837490388767,2026-07-06T17:30:37.490+07:00,540195416141642407,198921,220954,165145,1307
1783333837508570585,2026-07-06T17:30:37.508+07:00,540195416141642407,198802,220954,165110,1309
1783333837526752403,2026-07-06T17:30:37.526+07:00,540195416141642407,198751,220749,165032,1288
1783333837544934221,2026-07-06T17:30:37.544+07:00,540195416141642407,198685,220722,164977,1263
1783333837563116039,2026-07-06T17:30:37.563+07:00,540195416924072046,198671,220713,164983,1269
1783333837581297857,2026-07-06T17:30:37.581+07:00,540195416924072046,198630,220591,164940,1283
1783333837599479675,2026-07-06T17:30:37.599+07:00,540195416924072046,198541,220485,164865,1253
1783333837617661493,2026-07-06T17:30:37.617+07:00,540195416924072046,198512,220452,164770,1280
1783333837635843311,2026-07-06T17:30:37.635+07:00,540195416924072046,198472,220445,164748,1252
1783333837654025129,2026-07-06T17:30:37.654+07:00,540195416924072046,198447,220451,164753,1274
1783333837672206947,2026-07-06T17:30:37.672+07:00,540195416924072046,198399,220384,164753,1265
1783333837690388765,2026-07-06T17:30:37.690+07:00,540195416924072046,198390,220314,164679,1228
1783333837708570583,2026-07-06T17:30:37.708+07:00,540195416924072046,198343,220326,164675,1304
1783333837726752401,2026-07-06T17:30:37.726+07:00,540195416924072046,198230,220184,164588,1234
1783333837744934219,2026-07-06T17:30:37.744+07:00,540195416924072046,198238,220198,164559,1191
1783333837763116037,2026-07-06T17:30:37.763+07:00,540195416924072046,198269,220174,164584,1292
1783333837781297855,2026-07-06T17:30:37.781+07:00,540195416924072046,198238,220180,164628,1313
1783333837799479673,2026-07-06T17:30:37.799+07:00,540195416924072046,198202,220062,164529,1269
1783333837817661491,2026-07-06T17:30:37.817+07:00,540195416924072046,198170,220006,164491,1216
1783333837835843309,2026-07-06T17:30:37.835+07:00,540195416924072046,198160,220040,164509,1294
1783333837854025127,2026-07-06T17:30:37.854+07:00,540195416924072046,198065,219889,164412,1246
1783333837872206945,2026-07-06T17:30:37.872+07:00,540195416924072046,197955,219788,164302,1296
