host_timestamp_ns,host_timestamp_iso,elapsed_s,red,infrared,background
1783265541725098600,2026-07-05T22:32:21.725+07:00,0.097,661988,682805,0
1783265541725098600,2026-07-05T22:32:21.725+07:00,0.097,1149700,682634,0
1783265541725098600,2026-07-05T22:32:21.725+07:00,0.097,1149700,1149987,0
1783265541725098600,2026-07-05T22:32:21.725+07:00,0.097,1149987,1149987,0
1783265541725098600,2026-07-05T22:32:21.725+07:00,0.097,1149700,1149987,0
1783265541725098600,2026-07-05T22:32:21.725+07:00,0.097,1149987,1149987,0
1783265541725098600,2026-07-05T22:32:21.725+07:00,0.097,1149700,1150274,0
1783265541725098600,2026-07-05T22:32:21.725+07:00,0.097,1149987,1150274,0
1783265541725098600,2026-07-05T22:32:21.725+07:00,0.097,1149987,1150274,0
1783265541725098600,2026-07-05T22:32:21.725+07:00,0.097,1149987,1150274,0
1783265541725098600,2026-07-05T22:32:21.725+07:00,0.097,1149987,1149987,0
1783265541725098600,2026-07-05T22:32:21.725+07:00,0.097,1150274,1149987,0
1783265541725098600,2026-07-05T22:32:21.725+07:00,0.097,1149987,1149987,0
1783265541725098600,2026-07-05T22:32:21.725+07:00,0.097,1149987,1149987,0
1783265541725098600,2026-07-05T22:32:21.725+07:00,0.097,1149700,1149987,0
1783265541755200000,2026-07-05T22:32:21.755+07:00,0.127,1149987,1149987,0
1783265541755200000,2026-07-05T22:32:21.755+07:00,0.127,1149987,1149700,0
1783265541755200000,2026-07-05T22:32:21.755+07:00,0.127,1149987,1150274,0
1783265541755200000,2026-07-05T22:32:21.755+07:00,0.127,1150274,1149987,0
1783265541755200000,2026-07-05T22:32:21.755+07:00,0.127,1149987,1149987,0
1783265541755200000,2026-07-05T22:32:21.755+07:00,0.127,1149987,1149987,0
1783265541755200000,2026-07-05T22:32:21.755+07:00,0.127,1149700,1149987,0
1783265541755200000,2026-07-05T22:32:21.755+07:00,0.127,1149700,1149987,0
1783265541755200000,2026-07-05T22:32:21.755+07:00,0.127,1149987,1150274,0
1783265541755200000,2026-07-05T22:32:21.755+07:00,0.127,1149987,1149700,0
1783265541755200000,2026-07-05T22:32:21.755+07:00,0.127,1149987,1149987,0
1783265541755200000,2026-07-05T22:32:21.755+07:00,0.127,1149700,1149987,0
1783265541755200000,2026-07-05T22:32:21.755+07:00,0.127,1149987,1149987,0
1783265541755200000,2026-07-05T22:32:21.755+07:00,0.127,1149700,1150274,0
1783265541755200000,2026-07-05T22:32:21.755+07:00,0.127,1150274,1150274,0
1783265541755200000,2026-07-05T22:32:21.755+07:00,0.127,1149987,1149987,0
1783265541755200000,2026-07-05T22:32:21.755+07:00,0.127,1150274,1149987,0
1783265541797366600,2026-07-05T22:32:21.797+07:00,0.169,1150274,1150274,0
1783265541797366600,2026-07-05T22:32:21.797+07:00,0.169,1149987,1149987,0
1783265541797366600,2026-07-05T22:32:21.797+07:00,0.169,1149987,1149987,0
1783265541797366600,2026-07-05T22:32:21.797+07:00,0.169,1149987,1149987,0
1783265541797366600,2026-07-05T22:32:21.797+07:00,0.169,1149987,1149987,0
1783265541797366600,2026-07-05T22:32:21.797+07:00,0.169,1149987,1149987,0
1783265541797366600,2026-07-05T22:32:21.797+07:00,0.169,1149700,1149987,0
1783265541797366600,2026-07-05T22:32:21.797+07:00,0.169,1150274,1150274,0
1783265541797366600,2026-07-05T22:32:21.797+07:00,0.169,1149987,1149987,0
1783265541797366600,2026-07-05T22:32:21.797+07:00,0.169,1149987,1149987,0
1783265541797366600,2026-07-05T22:32:21.797+07:00,0.169,1149987,1149987,0
1783265541797366600,2026-07-05T22:32:21.797+07:00,0.169,1150274,1149987,0
1783265541797366600,2026-07-05T22:32:21.797+07:00,0.169,1150274,1150274,0
1783265541797366600,2026-07-05T22:32:21.797+07:00,0.169,1149987,1149987,0
1783265541797366600,2026-07-05T22:32:21.797+07:00,0.169,1150274,1149987,0
1783265541797366600,2026-07-05T22:32:21.797+07:00,0.169,1150274,1149987,0
1783265541797366600,2026-07-05T22:32:21.797+07:00,0.169,1149700,1149700,0
1783265541838809100,2026-07-05T22:32:21.838+07:00,0.210,1149987,1150274,0
1783265541838809100,2026-07-05T22:32:21.838+07:00,0.210,1149987,1150274,0
1783265541838809100,2026-07-05T22:32:21.838+07:00,0.210,1149987,1150274,0
1783265541838809100,2026-07-05T22:32:21.838+07:00,0.210,1149987,1149987,0
1783265541838809100,2026-07-05T22:32:21.838+07:00,0.210,1149700,1149987,0
1783265541838809100,2026-07-05T22:32:21.838+07:00,0.210,1149987,1149987,0
1783265541838809100,2026-07-05T22:32:21.838+07:00,0.210,1149987,1149987,0
1783265541838809100,2026-07-05T22:32:21.838+07:00,0.210,1150274,1150274,0
1783265541838809100,2026-07-05T22:32:21.838+07:00,0.210,1150274,1150274,0
1783265541838809100,2026-07-05T22:32:21.838+07:00,0.210,1150274,1150274,0
1783265541838809100,2026-07-05T22:32:21.838+07:00,0.210,1150274,1150274,0
1783265541838809100,2026-07-05T22:32:21.838+07:00,0.210,1149987,1149987,0
1783265541838809100,2026-07-05T22:32:21.838+07:00,0.210,1150274,1150274,0
1783265541838809100,2026-07-05T22:32:21.838+07:00,0.210,1149700,1149987,0
1783265541838809100,2026-07-05T22:32:21.838+07:00,0.210,1150274,1149987,0
1783265541838809100,2026-07-05T22:32:21.838+07:00,0.210,1149987,1150274,0
1783265541838809100,2026-07-05T22:32:21.838+07:00,0.210,1150561,1150274,0
1783265541878444800,2026-07-05T22:32:21.878+07:00,0.250,1149987,1150274,0
1783265541878444800,2026-07-05T22:32:21.878+07:00,0.250,1149987,1150274,0
1783265541878444800,2026-07-05T22:32:21.878+07:00,0.250,1149987,1149987,0
1783265541878444800,2026-07-05T22:32:21.878+07:00,0.250,1149987,1150274,0
1783265541878444800,2026-07-05T22:32:21.878+07:00,0.250,1149987,1149987,0
1783265541878444800,2026-07-05T22:32:21.878+07:00,0.250,1149987,1150274,0
1783265541878444800,2026-07-05T22:32:21.878+07:00,0.250,1149987,1149987,0
1783265541878444800,2026-07-05T22:32:21.878+07:00,0.250,1149700,1150274,0
1783265541878444800,2026-07-05T22:32:21.878+07:00,0.250,1150274,1150274,0
1783265541878444800,2026-07-05T22:32:21.878+07:00,0.250,1149987,1149987,0
1783265541878444800,2026-07-05T22:32:21.878+07:00,0.250,1149700,1150274,0
1783265541878444800,2026-07-05T22:32:21.878+07:00,0.250,1149987,1149987,0
1783265541878444800,2026-07-05T22:32:21.878+07:00,0.250,1149700,1150274,0
1783265541878444800,2026-07-05T22:32:21.878+07:00,0.250,1149987,1150274,0
1783265541878444800,2026-07-05T22:32:21.878+07:00,0.250,1150274,1149987,0
1783265541878444800,2026-07-05T22:32:21.878+07:00,0.250,1149987,1149987,0
1783265541878444800,2026-07-05T22:32:21.878+07:00,0.250,1149987,1150274,0
1783265541918519600,2026-07-05T22:32:21.918+07:00,0.290,1149987,1149987,0
1783265541918519600,2026-07-05T22:32:21.918+07:00,0.290,1149987,1149700,0
1783265541918519600,2026-07-05T22:32:21.918+07:00,0.290,1149987,1150274,0
1783265541918519600,2026-07-05T22:32:21.918+07:00,0.290,1149987,1149987,0
1783265541918519600,2026-07-05T22:32:21.918+07:00,0.290,1149987,1150274,0
1783265541918519600,2026-07-05T22:32:21.918+07:00,0.290,1149987,1149987,0
1783265541918519600,2026-07-05T22:32:21.918+07:00,0.290,1149987,1149987,0
1783265541918519600,2026-07-05T22:32:21.918+07:00,0.290,1150274,1150274,0
1783265541918519600,2026-07-05T22:32:21.918+07:00,0.290,1149987,1149987,0
1783265541918519600,2026-07-05T22:32:21.918+07:00,0.290,1149987,1149987,0
1783265541918519600,2026-07-05T22:32:21.918+07:00,0.290,1149987,1150274,0
1783265541918519600,2026-07-05T22:32:21.918+07:00,0.290,1149987,1149987,0
1783265541918519600,2026-07-05T22:32:21.918+07:00,0.290,1149987,1149987,0
1783265541918519600,2026-07-05T22:32:21.918+07:00,0.290,1150274,1150274,0
1783265541918519600,2026-07-05T22:32:21.918+07:00,0.290,1149987,1149987,0
1783265541958402000,2026-07-05T22:32:21.958+07:00,0.330,1149987,1149987,0
1783265541958402000,2026-07-05T22:32:21.958+07:00,0.330,1149987,1150274,0
1783265541958402000,2026-07-05T22:32:21.958+07:00,0.330,1149987,1150274,0
1783265541958402000,2026-07-05T22:32:21.958+07:00,0.330,1150274,1150274,0
1783265541958402000,2026-07-05T22:32:21.958+07:00,0.330,1149987,1150274,0
1783265541958402000,2026-07-05T22:32:21.958+07:00,0.330,1149987,1150274,0
1783265541958402000,2026-07-05T22:32:21.958+07:00,0.330,1150274,1149987,0
1783265541958402000,2026-07-05T22:32:21.958+07:00,0.330,1150561,1150274,0
1783265541958402000,2026-07-05T22:32:21.958+07:00,0.330,1150274,1149987,0
1783265541958402000,2026-07-05T22:32:21.958+07:00,0.330,1150274,1149987,0
1783265541958402000,2026-07-05T22:32:21.958+07:00,0.330,1150274,1150274,0
1783265541958402000,2026-07-05T22:32:21.958+07:00,0.330,1150274,1150274,0
1783265541958402000,2026-07-05T22:32:21.958+07:00,0.330,1149987,1149987,0
1783265541958402000,2026-07-05T22:32:21.958+07:00,0.330,1150274,1150274,0
1783265541958402000,2026-07-05T22:32:21.958+07:00,0.330,1149987,1149987,0
1783265541958402000,2026-07-05T22:32:21.958+07:00,0.330,1149987,1149987,0
1783265541958402000,2026-07-05T22:32:21.958+07:00,0.330,1150274,1149987,0
1783265541958402000,2026-07-05T22:32:21.958+07:00,0.330,1150274,1150274,0
1783265542002336000,2026-07-05T22:32:22.002+07:00,0.374,1149987,1149700,0
1783265542002336000,2026-07-05T22:32:22.002+07:00,0.374,1150274,1150561,0
1783265542002336000,2026-07-05T22:32:22.002+07:00,0.374,1150274,1150274,0
1783265542002336000,2026-07-05T22:32:22.002+07:00,0.374,1149987,1149987,0
1783265542002336000,2026-07-05T22:32:22.002+07:00,0.374,1149987,1149987,0
1783265542002336000,2026-07-05T22:32:22.002+07:00,0.374,1150274,1150274,0
1783265542002336000,2026-07-05T22:32:22.002+07:00,0.374,1149987,1150274,0
1783265542002336000,2026-07-05T22:32:22.002+07:00,0.374,1150274,1150274,0
1783265542002336000,2026-07-05T22:32:22.002+07:00,0.374,1149987,1149987,0
1783265542002336000,2026-07-05T22:32:22.002+07:00,0.374,1150274,1150274,0
1783265542002336000,2026-07-05T22:32:22.002+07:00,0.374,1149987,1150274,0
1783265542002336000,2026-07-05T22:32:22.002+07:00,0.374,1149987,1150274,0
1783265542002336000,2026-07-05T22:32:22.002+07:00,0.374,1149987,1149987,0
1783265542002336000,2026-07-05T22:32:22.002+07:00,0.374,1149987,1149700,0
1783265542002336000,2026-07-05T22:32:22.002+07:00,0.374,1149987,1150274,0
1783265542002336000,2026-07-05T22:32:22.002+07:00,0.374,1149987,1149987,0
1783265542002336000,2026-07-05T22:32:22.002+07:00,0.374,1149700,1149987,0
1783265542048688800,2026-07-05T22:32:22.048+07:00,0.420,1149987,1150274,0
1783265542048688800,2026-07-05T22:32:22.048+07:00,0.420,1149987,1149987,0
1783265542048688800,2026-07-05T22:32:22.048+07:00,0.420,1149987,1149987,0
1783265542048688800,2026-07-05T22:32:22.048+07:00,0.420,1149987,1149987,0
1783265542048688800,2026-07-05T22:32:22.048+07:00,0.420,1150274,1149987,0
1783265542048688800,2026-07-05T22:32:22.048+07:00,0.420,1149987,1149987,0
1783265542048688800,2026-07-05T22:32:22.048+07:00,0.420,1149987,1149987,0
1783265542048688800,2026-07-05T22:32:22.048+07:00,0.420,1149987,1149987,0
1783265542048688800,2026-07-05T22:32:22.048+07:00,0.420,1149987,1150274,0
1783265542048688800,2026-07-05T22:32:22.048+07:00,0.420,1149987,1149987,0
1783265542048688800,2026-07-05T22:32:22.048+07:00,0.420,1150274,1150274,0
1783265542048688800,2026-07-05T22:32:22.048+07:00,0.420,1150274,1150274,0
1783265542048688800,2026-07-05T22:32:22.048+07:00,0.420,1149987,1149987,0
1783265542048688800,2026-07-05T22:32:22.048+07:00,0.420,1149987,1149987,0
1783265542048688800,2026-07-05T22:32:22.048+07:00,0.420,1149987,1149700,0
1783265542048688800,2026-07-05T22:32:22.048+07:00,0.420,1149987,1149987,0
1783265542048688800,2026-07-05T22:32:22.048+07:00,0.420,1149987,1149987,0
1783265542080490400,2026-07-05T22:32:22.080+07:00,0.452,1149987,1149987,0
1783265542080490400,2026-07-05T22:32:22.080+07:00,0.452,1150274,1150274,0
1783265542080490400,2026-07-05T22:32:22.080+07:00,0.452,1149987,1149700,0
1783265542080490400,2026-07-05T22:32:22.080+07:00,0.452,1149987,1150274,0
1783265542080490400,2026-07-05T22:32:22.080+07:00,0.452,1149987,1149987,0
1783265542080490400,2026-07-05T22:32:22.080+07:00,0.452,1149700,1150274,0
1783265542080490400,2026-07-05T22:32:22.080+07:00,0.452,1149987,1149987,0
1783265542080490400,2026-07-05T22:32:22.080+07:00,0.452,1150274,1149987,0
1783265542080490400,2026-07-05T22:32:22.080+07:00,0.452,1149987,1149700,0
1783265542080490400,2026-07-05T22:32:22.080+07:00,0.452,1149987,1149987,0
1783265542080490400,2026-07-05T22:32:22.080+07:00,0.452,1149987,1149987,0
1783265542080490400,2026-07-05T22:32:22.080+07:00,0.452,1149987,1149987,0
1783265542080490400,2026-07-05T22:32:22.080+07:00,0.452,1149700,1150274,0
1783265542080490400,2026-07-05T22:32:22.080+07:00,0.452,1149987,1149987,0
1783265542080490400,2026-07-05T22:32:22.080+07:00,0.452,1149987,1150274,0
1783265542128455900,2026-07-05T22:32:22.128+07:00,0.500,1149987,1149987,0
1783265542128455900,2026-07-05T22:32:22.128+07:00,0.500,1149987,1150274,0
1783265542130492300,2026-07-05T22:32:22.130+07:00,0.502,1149700,1149987,0
1783265542130492300,2026-07-05T22:32:22.130+07:00,0.502,1149987,1150274,0
1783265542130492300,2026-07-05T22:32:22.130+07:00,0.502,1149987,1149700,0
1783265542130492300,2026-07-05T22:32:22.130+07:00,0.502,1150274,1149987,0
1783265542130492300,2026-07-05T22:32:22.130+07:00,0.502,1150274,1149987,0
1783265542130492300,2026-07-05T22:32:22.130+07:00,0.502,1150274,1149987,0
1783265542130492300,2026-07-05T22:32:22.130+07:00,0.502,1149987,1149987,0
1783265542130492300,2026-07-05T22:32:22.130+07:00,0.502,1149987,1150274,0
1783265542130492300,2026-07-05T22:32:22.130+07:00,0.502,1149987,1149987,0
1783265542130492300,2026-07-05T22:32:22.130+07:00,0.502,1149987,1149987,0
1783265542130492300,2026-07-05T22:32:22.130+07:00,0.502,1149987,1150274,0
1783265542130492300,2026-07-05T22:32:22.130+07:00,0.502,1149987,1149987,0
1783265542130492300,2026-07-05T22:32:22.130+07:00,0.502,1149987,1149987,0
1783265542130492300,2026-07-05T22:32:22.130+07:00,0.502,1149987,1150274,0
1783265542130492300,2026-07-05T22:32:22.130+07:00,0.502,1149987,1150274,0
1783265542171319000,2026-07-05T22:32:22.171+07:00,0.543,1149987,1149987,0
1783265542171319000,2026-07-05T22:32:22.171+07:00,0.543,1150274,1150274,0
1783265542171319000,2026-07-05T22:32:22.171+07:00,0.543,1149987,1149987,0
1783265542171319000,2026-07-05T22:32:22.171+07:00,0.543,1149987,1150274,0
1783265542171319000,2026-07-05T22:32:22.171+07:00,0.543,1149987,1150274,0
1783265542171319000,2026-07-05T22:32:22.171+07:00,0.543,1149987,1150274,0
1783265542171319000,2026-07-05T22:32:22.171+07:00,0.543,1149987,1149987,0
1783265542171319000,2026-07-05T22:32:22.171+07:00,0.543,1150274,1149987,0
1783265542171319000,2026-07-05T22:32:22.171+07:00,0.543,1150274,1149987,0
1783265542171319000,2026-07-05T22:32:22.171+07:00,0.543,1149987,1149987,0
1783265542171319000,2026-07-05T22:32:22.171+07:00,0.543,1149987,1149987,0
1783265542171319000,2026-07-05T22:32:22.171+07:00,0.543,1149987,1150274,0
1783265542171319000,2026-07-05T22:32:22.171+07:00,0.543,1149987,1149987,0
1783265542171319000,2026-07-05T22:32:22.171+07:00,0.543,1149987,1150274,0
1783265542171319000,2026-07-05T22:32:22.171+07:00,0.543,1149987,1150274,0
1783265542171319000,2026-07-05T22:32:22.171+07:00,0.543,1149987,1149700,0
1783265542171319000,2026-07-05T22:32:22.171+07:00,0.543,1149987,1149987,0
1783265542211329700,2026-07-05T22:32:22.211+07:00,0.583,1149987,1150274,0
1783265542211329700,2026-07-05T22:32:22.211+07:00,0.583,1149987,1150274,0
1783265542211329700,2026-07-05T22:32:22.211+07:00,0.583,1149987,1149987,0
1783265542211329700,2026-07-05T22:32:22.211+07:00,0.583,1149987,1150274,0
1783265542211329700,2026-07-05T22:32:22.211+07:00,0.583,1149987,1149987,0
1783265542211329700,2026-07-05T22:32:22.211+07:00,0.583,0,0,0
1783265542211329700,2026-07-05T22:32:22.211+07:00,0.583,0,0,0
1783265542211329700,2026-07-05T22:32:22.211+07:00,0.583,0,0,0
1783265542211329700,2026-07-05T22:32:22.211+07:00,0.583,0,0,0
1783265542211329700,2026-07-05T22:32:22.211+07:00,0.583,0,0,0
1783265542211329700,2026-07-05T22:32:22.211+07:00,0.583,0,0,0
1783265542211329700,2026-07-05T22:32:22.211+07:00,0.583,0,0,0
1783265542211329700,2026-07-05T22:32:22.211+07:00,0.583,0,0,0
1783265542211329700,2026-07-05T22:32:22.211+07:00,0.583,0,0,0
1783265542211329700,2026-07-05T22:32:22.211+07:00,0.583,0,0,0
1783265542211329700,2026-07-05T22:32:22.211+07:00,0.583,0,0,0
1783265542211329700,2026-07-05T22:32:22.211+07:00,0.583,0,0,0
1783265542256445700,2026-07-05T22:32:22.256+07:00,0.628,0,0,0
1783265542258452500,2026-07-05T22:32:22.258+07:00,0.630,0,0,0
1783265542258452500,2026-07-05T22:32:22.258+07:00,0.630,0,0,0
1783265542258452500,2026-07-05T22:32:22.258+07:00,0.630,0,0,0
1783265542258452500,2026-07-05T22:32:22.258+07:00,0.630,0,0,0
1783265542258452500,2026-07-05T22:32:22.258+07:00,0.630,0,0,0
1783265542258452500,2026-07-05T22:32:22.258+07:00,0.630,0,0,0
1783265542258452500,2026-07-05T22:32:22.258+07:00,0.630,0,0,0
1783265542258452500,2026-07-05T22:32:22.258+07:00,0.630,0,0,0
1783265542258452500,2026-07-05T22:32:22.258+07:00,0.630,0,0,0
1783265542258452500,2026-07-05T22:32:22.258+07:00,0.630,0,0,0
1783265542258452500,2026-07-05T22:32:22.258+07:00,0.630,0,0,0
1783265542258452500,2026-07-05T22:32:22.258+07:00,0.630,0,0,0
1783265542258452500,2026-07-05T22:32:22.258+07:00,0.630,0,0,0
1783265542258452500,2026-07-05T22:32:22.258+07:00,0.630,0,0,0
1783265542258452500,2026-07-05T22:32:22.258+07:00,0.630,0,0,0
1783265542258452500,2026-07-05T22:32:22.258+07:00,0.630,0,0,0
1783265542297501700,2026-07-05T22:32:22.297+07:00,0.669,0,0,0
1783265542297501700,2026-07-05T22:32:22.297+07:00,0.669,0,0,0
1783265542297501700,2026-07-05T22:32:22.297+07:00,0.669,0,0,0
1783265542297501700,2026-07-05T22:32:22.297+07:00,0.669,0,0,0
1783265542297501700,2026-07-05T22:32:22.297+07:00,0.669,0,0,0
1783265542297501700,2026-07-05T22:32:22.297+07:00,0.669,0,0,0
1783265542297501700,2026-07-05T22:32:22.297+07:00,0.669,0,0,0
1783265542297501700,2026-07-05T22:32:22.297+07:00,0.669,0,0,0
1783265542297501700,2026-07-05T22:32:22.297+07:00,0.669,0,0,0
1783265542297501700,2026-07-05T22:32:22.297+07:00,0.669,0,0,0
1783265542297501700,2026-07-05T22:32:22.297+07:00,0.669,0,0,0
1783265542297501700,2026-07-05T22:32:22.297+07:00,0.669,331074,341487,0
1783265542297501700,2026-07-05T22:32:22.297+07:00,0.669,331074,341487,0
1783265542297501700,2026-07-05T22:32:22.297+07:00,0.669,1149987,1149987,0
1783265542297501700,2026-07-05T22:32:22.297+07:00,0.669,1149987,1149987,0
1783265542297501700,2026-07-05T22:32:22.297+07:00,0.669,1149987,1149987,0
1783265542338711500,2026-07-05T22:32:22.338+07:00,0.710,1149700,1150274,0
1783265542338711500,2026-07-05T22:32:22.338+07:00,0.710,1149987,1149987,0
1783265542338711500,2026-07-05T22:32:22.338+07:00,0.710,1149987,1150274,0
1783265542338711500,2026-07-05T22:32:22.338+07:00,0.710,1149987,1150274,0
1783265542338711500,2026-07-05T22:32:22.338+07:00,0.710,1150274,1150274,0
1783265542338711500,2026-07-05T22:32:22.338+07:00,0.710,1149987,1149987,0
1783265542338711500,2026-07-05T22:32:22.338+07:00,0.710,1149987,1149987,0
1783265542338711500,2026-07-05T22:32:22.338+07:00,0.710,1149987,1150274,0
1783265542338711500,2026-07-05T22:32:22.338+07:00,0.710,1150274,1150274,0
1783265542338711500,2026-07-05T22:32:22.338+07:00,0.710,1149987,1149987,0
1783265542338711500,2026-07-05T22:32:22.338+07:00,0.710,1149987,1150274,0
1783265542338711500,2026-07-05T22:32:22.338+07:00,0.710,1149987,1150274,0
1783265542338711500,2026-07-05T22:32:22.338+07:00,0.710,1150274,1150274,0
1783265542338711500,2026-07-05T22:32:22.338+07:00,0.710,1149987,1149987,0
1783265542338711500,2026-07-05T22:32:22.338+07:00,0.710,1149987,1149987,0
1783265542338711500,2026-07-05T22:32:22.338+07:00,0.710,1149987,1149700,0
1783265542338711500,2026-07-05T22:32:22.338+07:00,0.710,1149987,1149987,0
1783265542378496100,2026-07-05T22:32:22.378+07:00,0.750,1149987,1149987,0
1783265542378496100,2026-07-05T22:32:22.378+07:00,0.750,1149987,1149987,0
1783265542378496100,2026-07-05T22:32:22.378+07:00,0.750,1150274,1149987,0
1783265542378496100,2026-07-05T22:32:22.378+07:00,0.750,1149987,1149987,0
1783265542378496100,2026-07-05T22:32:22.378+07:00,0.750,1149987,1149987,0
1783265542378496100,2026-07-05T22:32:22.378+07:00,0.750,1149987,1149987,0
1783265542378496100,2026-07-05T22:32:22.378+07:00,0.750,1149700,1149987,0
1783265542378496100,2026-07-05T22:32:22.378+07:00,0.750,1149700,1150274,0
1783265542378496100,2026-07-05T22:32:22.378+07:00,0.750,1149987,1149987,0
1783265542378496100,2026-07-05T22:32:22.378+07:00,0.750,1149700,1149987,0
1783265542378496100,2026-07-05T22:32:22.378+07:00,0.750,1150274,1149987,0
1783265542378496100,2026-07-05T22:32:22.378+07:00,0.750,1149987,1149700,0
1783265542378496100,2026-07-05T22:32:22.378+07:00,0.750,1150274,1150274,0
1783265542378496100,2026-07-05T22:32:22.378+07:00,0.750,1149987,1149987,0
1783265542378496100,2026-07-05T22:32:22.378+07:00,0.750,1149987,1149987,0
1783265542378496100,2026-07-05T22:32:22.378+07:00,0.750,1149987,1149987,0
1783265542378496100,2026-07-05T22:32:22.378+07:00,0.750,1149987,1150274,0
1783265542423731600,2026-07-05T22:32:22.423+07:00,0.795,1149987,1150274,0
1783265542423731600,2026-07-05T22:32:22.423+07:00,0.795,0,0,0
1783265542423731600,2026-07-05T22:32:22.423+07:00,0.795,0,0,0
1783265542423731600,2026-07-05T22:32:22.423+07:00,0.795,0,0,0
1783265542423731600,2026-07-05T22:32:22.423+07:00,0.795,0,0,0
1783265542423731600,2026-07-05T22:32:22.423+07:00,0.795,0,0,0
1783265542423731600,2026-07-05T22:32:22.423+07:00,0.795,0,0,0
1783265542423731600,2026-07-05T22:32:22.423+07:00,0.795,0,0,0
1783265542423731600,2026-07-05T22:32:22.423+07:00,0.795,0,0,0
1783265542423731600,2026-07-05T22:32:22.423+07:00,0.795,0,0,0
1783265542423731600,2026-07-05T22:32:22.423+07:00,0.795,0,0,0
1783265542423731600,2026-07-05T22:32:22.423+07:00,0.795,0,0,0
1783265542423731600,2026-07-05T22:32:22.423+07:00,0.795,0,0,0
1783265542423731600,2026-07-05T22:32:22.423+07:00,0.795,0,0,0
1783265542423731600,2026-07-05T22:32:22.423+07:00,0.795,0,0,0
1783265542423731600,2026-07-05T22:32:22.423+07:00,0.795,0,0,0
1783265542423731600,2026-07-05T22:32:22.423+07:00,0.795,0,0,0
1783265542467622600,2026-07-05T22:32:22.467+07:00,0.839,0,0,0
1783265542467622600,2026-07-05T22:32:22.467+07:00,0.839,0,0,0
1783265542467622600,2026-07-05T22:32:22.467+07:00,0.839,0,0,0
1783265542467622600,2026-07-05T22:32:22.467+07:00,0.839,0,0,0
1783265542467622600,2026-07-05T22:32:22.467+07:00,0.839,0,0,0
1783265542467622600,2026-07-05T22:32:22.467+07:00,0.839,0,0,0
1783265542467622600,2026-07-05T22:32:22.467+07:00,0.839,0,0,0
1783265542467622600,2026-07-05T22:32:22.467+07:00,0.839,0,0,0
1783265542467622600,2026-07-05T22:32:22.467+07:00,0.839,0,0,0
1783265542467622600,2026-07-05T22:32:22.467+07:00,0.839,0,0,0
1783265542468645400,2026-07-05T22:32:22.468+07:00,0.840,0,0,0
1783265542468645400,2026-07-05T22:32:22.468+07:00,0.840,0,0,0
1783265542468645400,2026-07-05T22:32:22.468+07:00,0.840,0,0,0
1783265542468645400,2026-07-05T22:32:22.468+07:00,0.840,0,0,0
1783265542468645400,2026-07-05T22:32:22.468+07:00,0.840,0,0,0
1783265542468645400,2026-07-05T22:32:22.468+07:00,0.840,0,0,0
1783265542468645400,2026-07-05T22:32:22.468+07:00,0.840,0,0,0
1783265542500748800,2026-07-05T22:32:22.500+07:00,0.872,0,0,0
1783265542500748800,2026-07-05T22:32:22.500+07:00,0.872,0,0,0
1783265542500748800,2026-07-05T22:32:22.500+07:00,0.872,0,0,0
1783265542500748800,2026-07-05T22:32:22.500+07:00,0.872,0,0,0
1783265542500748800,2026-07-05T22:32:22.500+07:00,0.872,0,0,0
1783265542500748800,2026-07-05T22:32:22.500+07:00,0.872,0,0,0
1783265542500748800,2026-07-05T22:32:22.500+07:00,0.872,0,0,0
1783265542500748800,2026-07-05T22:32:22.500+07:00,0.872,330994,341402,0
1783265542500748800,2026-07-05T22:32:22.500+07:00,0.872,331074,341402,0
1783265542500748800,2026-07-05T22:32:22.500+07:00,0.872,1149700,1150274,0
1783265542500748800,2026-07-05T22:32:22.500+07:00,0.872,1149987,1150274,0
1783265542500748800,2026-07-05T22:32:22.500+07:00,0.872,1149987,1149700,0
1783265542500748800,2026-07-05T22:32:22.500+07:00,0.872,1149987,1149987,0
1783265542500748800,2026-07-05T22:32:22.500+07:00,0.872,1149987,1149987,0
1783265542500748800,2026-07-05T22:32:22.500+07:00,0.872,1149987,1149987,0
1783265542544062600,2026-07-05T22:32:22.544+07:00,0.916,1149987,1150274,0
1783265542544062600,2026-07-05T22:32:22.544+07:00,0.916,1149700,1149700,0
1783265542544062600,2026-07-05T22:32:22.544+07:00,0.916,1149700,1149700,0
1783265542544062600,2026-07-05T22:32:22.544+07:00,0.916,1149987,1149987,0
1783265542544062600,2026-07-05T22:32:22.544+07:00,0.916,1149987,1149987,0
1783265542544062600,2026-07-05T22:32:22.544+07:00,0.916,1149700,1149987,0
1783265542544062600,2026-07-05T22:32:22.544+07:00,0.916,1149987,1149987,0
1783265542544062600,2026-07-05T22:32:22.544+07:00,0.916,1149987,1149987,0
1783265542544062600,2026-07-05T22:32:22.544+07:00,0.916,1149987,1149987,0
1783265542544062600,2026-07-05T22:32:22.544+07:00,0.916,1149987,1149987,0
1783265542544062600,2026-07-05T22:32:22.544+07:00,0.916,1149987,1150274,0
1783265542544062600,2026-07-05T22:32:22.544+07:00,0.916,1149700,1150274,0
1783265542544062600,2026-07-05T22:32:22.544+07:00,0.916,1150274,1149987,0
1783265542544062600,2026-07-05T22:32:22.544+07:00,0.916,1149987,1149987,0
1783265542544062600,2026-07-05T22:32:22.544+07:00,0.916,1150274,1149987,0
1783265542544062600,2026-07-05T22:32:22.544+07:00,0.916,1149987,1149700,0
1783265542544062600,2026-07-05T22:32:22.544+07:00,0.916,1149987,1149987,0
1783265542588424100,2026-07-05T22:32:22.588+07:00,0.960,1149700,1149987,0
1783265542588424100,2026-07-05T22:32:22.588+07:00,0.960,1149987,1149987,0
1783265542588424100,2026-07-05T22:32:22.588+07:00,0.960,1149700,1149987,0
1783265542588424100,2026-07-05T22:32:22.588+07:00,0.960,1149987,1150274,0
1783265542588424100,2026-07-05T22:32:22.588+07:00,0.960,1149987,1150274,0
1783265542588424100,2026-07-05T22:32:22.588+07:00,0.960,1150274,1150274,0
1783265542588424100,2026-07-05T22:32:22.588+07:00,0.960,1150274,1150274,0
1783265542588424100,2026-07-05T22:32:22.588+07:00,0.960,1149987,1149987,0
1783265542588424100,2026-07-05T22:32:22.588+07:00,0.960,1149987,1150274,0
1783265542588424100,2026-07-05T22:32:22.588+07:00,0.960,1149987,1149987,0
1783265542588424100,2026-07-05T22:32:22.588+07:00,0.960,1149987,1149987,0
1783265542588424100,2026-07-05T22:32:22.588+07:00,0.960,1149987,1149987,0
1783265542588424100,2026-07-05T22:32:22.588+07:00,0.960,1149700,1149987,0
1783265542588424100,2026-07-05T22:32:22.588+07:00,0.960,1149700,1149987,0
1783265542588424100,2026-07-05T22:32:22.588+07:00,0.960,1149987,1150274,0
1783265542588424100,2026-07-05T22:32:22.588+07:00,0.960,0,0,0
1783265542629816800,2026-07-05T22:32:22.629+07:00,1.001,0,0,0
1783265542629816800,2026-07-05T22:32:22.629+07:00,1.001,0,0,0
1783265542629816800,2026-07-05T22:32:22.629+07:00,1.001,0,0,0
1783265542629816800,2026-07-05T22:32:22.629+07:00,1.001,0,0,0
1783265542629816800,2026-07-05T22:32:22.629+07:00,1.001,0,0,0
1783265542629816800,2026-07-05T22:32:22.629+07:00,1.001,0,0,0
1783265542629816800,2026-07-05T22:32:22.629+07:00,1.001,0,0,0
1783265542629816800,2026-07-05T22:32:22.629+07:00,1.001,0,0,0
1783265542629816800,2026-07-05T22:32:22.629+07:00,1.001,0,0,0
1783265542629816800,2026-07-05T22:32:22.629+07:00,1.001,0,0,0
1783265542629816800,2026-07-05T22:32:22.629+07:00,1.001,0,0,0
1783265542629816800,2026-07-05T22:32:22.629+07:00,1.001,0,0,0
1783265542629816800,2026-07-05T22:32:22.629+07:00,1.001,0,0,0
1783265542629816800,2026-07-05T22:32:22.629+07:00,1.001,0,0,0
1783265542629816800,2026-07-05T22:32:22.629+07:00,1.001,0,0,0
1783265542629816800,2026-07-05T22:32:22.629+07:00,1.001,0,0,0
1783265542629816800,2026-07-05T22:32:22.629+07:00,1.001,0,0,0
1783265542672926700,2026-07-05T22:32:22.672+07:00,1.044,0,0,0
1783265542672926700,2026-07-05T22:32:22.672+07:00,1.044,0,0,0
1783265542672926700,2026-07-05T22:32:22.672+07:00,1.044,0,0,0
1783265542672926700,2026-07-05T22:32:22.672+07:00,1.044,0,0,0
1783265542672926700,2026-07-05T22:32:22.672+07:00,1.044,0,0,0
1783265542672926700,2026-07-05T22:32:22.672+07:00,1.044,0,0,0
1783265542672926700,2026-07-05T22:32:22.672+07:00,1.044,0,0,0
1783265542672926700,2026-07-05T22:32:22.672+07:00,1.044,0,0,0
1783265542672926700,2026-07-05T22:32:22.672+07:00,1.044,0,0,0
1783265542672926700,2026-07-05T22:32:22.672+07:00,1.044,0,0,0
1783265542672926700,2026-07-05T22:32:22.672+07:00,1.044,0,0,0
1783265542672926700,2026-07-05T22:32:22.672+07:00,1.044,0,0,0
1783265542672926700,2026-07-05T22:32:22.672+07:00,1.044,0,0,0
1783265542672926700,2026-07-05T22:32:22.672+07:00,1.044,0,0,0
1783265542672926700,2026-07-05T22:32:22.672+07:00,1.044,0,0,0
1783265542672926700,2026-07-05T22:32:22.672+07:00,1.044,0,0,0
1783265542672926700,2026-07-05T22:32:22.672+07:00,1.044,0,0,0
1783265542708585900,2026-07-05T22:32:22.708+07:00,1.080,0,0,0
1783265542708585900,2026-07-05T22:32:22.708+07:00,1.080,0,0,0
1783265542708585900,2026-07-05T22:32:22.708+07:00,1.080,0,0,0
1783265542708585900,2026-07-05T22:32:22.708+07:00,1.080,0,0,0
1783265542708585900,2026-07-05T22:32:22.708+07:00,1.080,0,0,0
1783265542708585900,2026-07-05T22:32:22.708+07:00,1.080,331074,341402,0
1783265542708585900,2026-07-05T22:32:22.708+07:00,1.080,330994,341402,0
1783265542708585900,2026-07-05T22:32:22.708+07:00,1.080,1149987,1149987,0
1783265542708585900,2026-07-05T22:32:22.708+07:00,1.080,1149987,1150274,0
1783265542708585900,2026-07-05T22:32:22.708+07:00,1.080,1149987,1149987,0
1783265542708585900,2026-07-05T22:32:22.708+07:00,1.080,1149987,1149987,0
1783265542708585900,2026-07-05T22:32:22.708+07:00,1.080,1149987,1150274,0
1783265542708585900,2026-07-05T22:32:22.708+07:00,1.080,1149987,1149987,0
1783265542708585900,2026-07-05T22:32:22.708+07:00,1.080,1149987,1149987,0
1783265542708585900,2026-07-05T22:32:22.708+07:00,1.080,1149987,1150274,0
1783265542748554600,2026-07-05T22:32:22.748+07:00,1.120,1149987,1149987,0
1783265542748554600,2026-07-05T22:32:22.748+07:00,1.120,1149987,1150274,0
1783265542748554600,2026-07-05T22:32:22.748+07:00,1.120,1150274,1149987,0
1783265542748554600,2026-07-05T22:32:22.748+07:00,1.120,1149700,1149987,0
1783265542748554600,2026-07-05T22:32:22.748+07:00,1.120,1149700,1149987,0
1783265542748554600,2026-07-05T22:32:22.748+07:00,1.120,1149987,1149987,0
1783265542748554600,2026-07-05T22:32:22.748+07:00,1.120,1149987,1149987,0
1783265542748554600,2026-07-05T22:32:22.748+07:00,1.120,1149987,1149987,0
1783265542748554600,2026-07-05T22:32:22.748+07:00,1.120,1149987,1149987,0
1783265542748554600,2026-07-05T22:32:22.748+07:00,1.120,1149700,1150274,0
1783265542748554600,2026-07-05T22:32:22.748+07:00,1.120,1149987,1149987,0
1783265542748554600,2026-07-05T22:32:22.748+07:00,1.120,1149987,1150274,0
1783265542748554600,2026-07-05T22:32:22.748+07:00,1.120,1149987,1150274,0
1783265542748554600,2026-07-05T22:32:22.748+07:00,1.120,1149700,1149987,0
1783265542748554600,2026-07-05T22:32:22.748+07:00,1.120,1149987,1149700,0
1783265542748554600,2026-07-05T22:32:22.748+07:00,1.120,1149987,1149987,0
1783265542748554600,2026-07-05T22:32:22.748+07:00,1.120,1149987,1150274,0
1783265542794304800,2026-07-05T22:32:22.794+07:00,1.166,1150274,1150274,0
1783265542794304800,2026-07-05T22:32:22.794+07:00,1.166,1150274,1150274,0
1783265542794304800,2026-07-05T22:32:22.794+07:00,1.166,1150274,1150274,0
1783265542794304800,2026-07-05T22:32:22.794+07:00,1.166,1150274,1150274,0
1783265542794304800,2026-07-05T22:32:22.794+07:00,1.166,1149987,1149987,0
1783265542794304800,2026-07-05T22:32:22.794+07:00,1.166,1150274,1149987,0
1783265542794304800,2026-07-05T22:32:22.794+07:00,1.166,1150274,1149987,0
1783265542794304800,2026-07-05T22:32:22.794+07:00,1.166,1150274,1149987,0
1783265542794304800,2026-07-05T22:32:22.794+07:00,1.166,1149700,1149987,0
1783265542794304800,2026-07-05T22:32:22.794+07:00,1.166,1149987,1149987,0
1783265542796313800,2026-07-05T22:32:22.796+07:00,1.168,1150274,1149987,0
1783265542796313800,2026-07-05T22:32:22.796+07:00,1.168,1149987,1149987,0
1783265542796313800,2026-07-05T22:32:22.796+07:00,1.168,1149700,1149987,0
1783265542796313800,2026-07-05T22:32:22.796+07:00,1.168,0,0,0
1783265542796313800,2026-07-05T22:32:22.796+07:00,1.168,0,0,0
1783265542796313800,2026-07-05T22:32:22.796+07:00,1.168,0,0,0
1783265542796313800,2026-07-05T22:32:22.796+07:00,1.168,0,0,0
1783265542796313800,2026-07-05T22:32:22.796+07:00,1.168,0,0,0
1783265542840093200,2026-07-05T22:32:22.840+07:00,1.212,0,0,0
1783265542840093200,2026-07-05T22:32:22.840+07:00,1.212,0,0,0
1783265542840093200,2026-07-05T22:32:22.840+07:00,1.212,0,0,0
1783265542840093200,2026-07-05T22:32:22.840+07:00,1.212,0,0,0
1783265542840093200,2026-07-05T22:32:22.840+07:00,1.212,0,0,0
1783265542841099700,2026-07-05T22:32:22.841+07:00,1.213,0,0,0
1783265542841099700,2026-07-05T22:32:22.841+07:00,1.213,0,0,0
1783265542841099700,2026-07-05T22:32:22.841+07:00,1.213,0,0,0
1783265542841099700,2026-07-05T22:32:22.841+07:00,1.213,0,0,0
1783265542841099700,2026-07-05T22:32:22.841+07:00,1.213,0,0,0
1783265542841099700,2026-07-05T22:32:22.841+07:00,1.213,0,0,0
1783265542841099700,2026-07-05T22:32:22.841+07:00,1.213,0,0,0
1783265542841099700,2026-07-05T22:32:22.841+07:00,1.213,0,0,0
1783265542841099700,2026-07-05T22:32:22.841+07:00,1.213,0,0,0
1783265542841099700,2026-07-05T22:32:22.841+07:00,1.213,0,0,0
1783265542841099700,2026-07-05T22:32:22.841+07:00,1.213,0,0,0
1783265542841099700,2026-07-05T22:32:22.841+07:00,1.213,0,0,0
1783265542880699200,2026-07-05T22:32:22.880+07:00,1.252,0,0,0
1783265542880699200,2026-07-05T22:32:22.880+07:00,1.252,0,0,0
1783265542880699200,2026-07-05T22:32:22.880+07:00,1.252,0,0,0
1783265542880699200,2026-07-05T22:32:22.880+07:00,1.252,0,0,0
1783265542881164400,2026-07-05T22:32:22.881+07:00,1.253,0,0,0
1783265542881164400,2026-07-05T22:32:22.881+07:00,1.253,0,0,0
1783265542881164400,2026-07-05T22:32:22.881+07:00,1.253,0,0,0
1783265542881164400,2026-07-05T22:32:22.881+07:00,1.253,0,0,0
1783265542881164400,2026-07-05T22:32:22.881+07:00,1.253,0,0,0
1783265542881164400,2026-07-05T22:32:22.881+07:00,1.253,0,0,0
1783265542881164400,2026-07-05T22:32:22.881+07:00,1.253,0,0,0
1783265542881164400,2026-07-05T22:32:22.881+07:00,1.253,0,0,0
1783265542881164400,2026-07-05T22:32:22.881+07:00,1.253,0,0,0
1783265542881164400,2026-07-05T22:32:22.881+07:00,1.253,0,0,0
1783265542881164400,2026-07-05T22:32:22.881+07:00,1.253,0,0,0
1783265542881164400,2026-07-05T22:32:22.881+07:00,1.253,0,0,0
1783265542881164400,2026-07-05T22:32:22.881+07:00,1.253,0,0,0
1783265542918340800,2026-07-05T22:32:22.918+07:00,1.290,0,0,0
1783265542918340800,2026-07-05T22:32:22.918+07:00,1.290,331154,341487,0
1783265542918340800,2026-07-05T22:32:22.918+07:00,1.290,331074,341487,0
1783265542918340800,2026-07-05T22:32:22.918+07:00,1.290,1150274,1150274,0
1783265542918340800,2026-07-05T22:32:22.918+07:00,1.290,1150274,1149987,0
1783265542918340800,2026-07-05T22:32:22.918+07:00,1.290,1150274,1149987,0
1783265542918340800,2026-07-05T22:32:22.918+07:00,1.290,1150274,1150274,0
1783265542918340800,2026-07-05T22:32:22.918+07:00,1.290,1150274,1149987,0
1783265542918340800,2026-07-05T22:32:22.918+07:00,1.290,1149987,1150274,0
1783265542918340800,2026-07-05T22:32:22.918+07:00,1.290,1150274,1150274,0
1783265542918340800,2026-07-05T22:32:22.918+07:00,1.290,1149987,1149987,0
1783265542918340800,2026-07-05T22:32:22.918+07:00,1.290,1150274,1150274,0
1783265542918340800,2026-07-05T22:32:22.918+07:00,1.290,1149987,1149987,0
1783265542918340800,2026-07-05T22:32:22.918+07:00,1.290,1149987,1149987,0
1783265542918340800,2026-07-05T22:32:22.918+07:00,1.290,1149987,1149987,0
1783265542962557900,2026-07-05T22:32:22.962+07:00,1.334,1149987,1150274,0
1783265542962557900,2026-07-05T22:32:22.962+07:00,1.334,1149987,1149987,0
1783265542962557900,2026-07-05T22:32:22.962+07:00,1.334,1150274,1149987,0
1783265542962557900,2026-07-05T22:32:22.962+07:00,1.334,1149987,1149987,0
1783265542962557900,2026-07-05T22:32:22.962+07:00,1.334,1150274,1150274,0
1783265542962557900,2026-07-05T22:32:22.962+07:00,1.334,1150274,1150274,0
1783265542962557900,2026-07-05T22:32:22.962+07:00,1.334,1149987,1150274,0
1783265542962557900,2026-07-05T22:32:22.962+07:00,1.334,1149987,1149987,0
1783265542962557900,2026-07-05T22:32:22.962+07:00,1.334,1149987,1149987,0
1783265542962557900,2026-07-05T22:32:22.962+07:00,1.334,1149700,1149987,0
1783265542962557900,2026-07-05T22:32:22.962+07:00,1.334,1149987,1149987,0
1783265542962557900,2026-07-05T22:32:22.962+07:00,1.334,1150274,1149987,0
1783265542962557900,2026-07-05T22:32:22.962+07:00,1.334,1149987,1149987,0
1783265542962557900,2026-07-05T22:32:22.962+07:00,1.334,1150274,1150274,0
1783265542962557900,2026-07-05T22:32:22.962+07:00,1.334,1149987,1150274,0
1783265542962557900,2026-07-05T22:32:22.962+07:00,1.334,1149987,1150274,0
1783265542962557900,2026-07-05T22:32:22.962+07:00,1.334,1149987,1149987,0
1783265543005187300,2026-07-05T22:32:23.005+07:00,1.377,1149987,1149987,0
1783265543006059900,2026-07-05T22:32:23.006+07:00,1.378,1150274,1149987,0
1783265543006059900,2026-07-05T22:32:23.006+07:00,1.378,1149987,1149700,0
1783265543006059900,2026-07-05T22:32:23.006+07:00,1.378,1149987,1149987,0
1783265543006059900,2026-07-05T22:32:23.006+07:00,1.378,1150274,1150274,0
1783265543006059900,2026-07-05T22:32:23.006+07:00,1.378,1150274,1150274,0
1783265543006059900,2026-07-05T22:32:23.006+07:00,1.378,1149987,1149987,0
1783265543006059900,2026-07-05T22:32:23.006+07:00,1.378,1149700,1150274,0
1783265543006059900,2026-07-05T22:32:23.006+07:00,1.378,1150274,1150274,0
1783265543006059900,2026-07-05T22:32:23.006+07:00,1.378,0,0,0
1783265543006059900,2026-07-05T22:32:23.006+07:00,1.378,0,0,0
1783265543006059900,2026-07-05T22:32:23.006+07:00,1.378,0,0,0
1783265543006059900,2026-07-05T22:32:23.006+07:00,1.378,0,0,0
1783265543006059900,2026-07-05T22:32:23.006+07:00,1.378,0,0,0
1783265543006059900,2026-07-05T22:32:23.006+07:00,1.378,0,0,0
1783265543006059900,2026-07-05T22:32:23.006+07:00,1.378,0,0,0
1783265543006059900,2026-07-05T22:32:23.006+07:00,1.378,0,0,0
1783265543048362700,2026-07-05T22:32:23.048+07:00,1.420,0,0,0
1783265543048362700,2026-07-05T22:32:23.048+07:00,1.420,0,0,0
1783265543048362700,2026-07-05T22:32:23.048+07:00,1.420,0,0,0
1783265543048362700,2026-07-05T22:32:23.048+07:00,1.420,0,0,0
1783265543048362700,2026-07-05T22:32:23.048+07:00,1.420,0,0,0
1783265543048362700,2026-07-05T22:32:23.048+07:00,1.420,0,0,0
1783265543048362700,2026-07-05T22:32:23.048+07:00,1.420,0,0,0
1783265543048362700,2026-07-05T22:32:23.048+07:00,1.420,0,0,0
1783265543048362700,2026-07-05T22:32:23.048+07:00,1.420,0,0,0
1783265543048362700,2026-07-05T22:32:23.048+07:00,1.420,0,0,0
1783265543048362700,2026-07-05T22:32:23.048+07:00,1.420,0,0,0
1783265543048362700,2026-07-05T22:32:23.048+07:00,1.420,0,0,0
1783265543048362700,2026-07-05T22:32:23.048+07:00,1.420,0,0,0
1783265543048362700,2026-07-05T22:32:23.048+07:00,1.420,0,0,0
1783265543048362700,2026-07-05T22:32:23.048+07:00,1.420,0,0,0
1783265543048362700,2026-07-05T22:32:23.048+07:00,1.420,0,0,0
1783265543048362700,2026-07-05T22:32:23.048+07:00,1.420,0,0,0
1783265543081586200,2026-07-05T22:32:23.081+07:00,1.453,0,0,0
1783265543081586200,2026-07-05T22:32:23.081+07:00,1.453,0,0,0
1783265543081586200,2026-07-05T22:32:23.081+07:00,1.453,0,0,0
1783265543081586200,2026-07-05T22:32:23.081+07:00,1.453,0,0,0
1783265543081586200,2026-07-05T22:32:23.081+07:00,1.453,0,0,0
1783265543081586200,2026-07-05T22:32:23.081+07:00,1.453,0,0,0
1783265543081586200,2026-07-05T22:32:23.081+07:00,1.453,0,0,0
1783265543081586200,2026-07-05T22:32:23.081+07:00,1.453,0,0,0
1783265543081586200,2026-07-05T22:32:23.081+07:00,1.453,0,0,0
1783265543081586200,2026-07-05T22:32:23.081+07:00,1.453,0,0,0
1783265543081586200,2026-07-05T22:32:23.081+07:00,1.453,0,0,0
1783265543081586200,2026-07-05T22:32:23.081+07:00,1.453,0,0,0
1783265543081586200,2026-07-05T22:32:23.081+07:00,1.453,0,0,0
1783265543081586200,2026-07-05T22:32:23.081+07:00,1.453,0,0,0
1783265543081586200,2026-07-05T22:32:23.081+07:00,1.453,0,0,0
1783265543081586200,2026-07-05T22:32:23.081+07:00,1.453,331074,341402,0
1783265543129367000,2026-07-05T22:32:23.129+07:00,1.501,331074,341487,0
1783265543129367000,2026-07-05T22:32:23.129+07:00,1.501,1150274,1150274,0
1783265543129367000,2026-07-05T22:32:23.129+07:00,1.501,1149987,1149987,0
1783265543129367000,2026-07-05T22:32:23.129+07:00,1.501,1149987,1149987,0
1783265543129367000,2026-07-05T22:32:23.129+07:00,1.501,1149700,1150274,0
1783265543129367000,2026-07-05T22:32:23.129+07:00,1.501,1150274,1149987,0
1783265543129367000,2026-07-05T22:32:23.129+07:00,1.501,1149987,1149987,0
1783265543129367000,2026-07-05T22:32:23.129+07:00,1.501,1150274,1149987,0
1783265543129367000,2026-07-05T22:32:23.129+07:00,1.501,1149700,1149987,0
1783265543129367000,2026-07-05T22:32:23.129+07:00,1.501,1149700,1149987,0
1783265543129367000,2026-07-05T22:32:23.129+07:00,1.501,1149700,1149987,0
1783265543129367000,2026-07-05T22:32:23.129+07:00,1.501,1149987,1149987,0
1783265543129367000,2026-07-05T22:32:23.129+07:00,1.501,1149413,1149987,0
1783265543129367000,2026-07-05T22:32:23.129+07:00,1.501,1149700,1149700,0
1783265543129367000,2026-07-05T22:32:23.129+07:00,1.501,1149987,1149987,0
1783265543129367000,2026-07-05T22:32:23.129+07:00,1.501,1149987,1149987,0
1783265543129367000,2026-07-05T22:32:23.129+07:00,1.501,1149987,1149987,0
1783265543171652600,2026-07-05T22:32:23.171+07:00,1.543,1149987,1149987,0
1783265543171652600,2026-07-05T22:32:23.171+07:00,1.543,1149987,1149987,0
1783265543171652600,2026-07-05T22:32:23.171+07:00,1.543,1149987,1149987,0
1783265543171652600,2026-07-05T22:32:23.171+07:00,1.543,1149987,1149987,0
1783265543171652600,2026-07-05T22:32:23.171+07:00,1.543,1149987,1149987,0
1783265543171652600,2026-07-05T22:32:23.171+07:00,1.543,1149987,1150274,0
1783265543171652600,2026-07-05T22:32:23.171+07:00,1.543,1150274,1149987,0
1783265543171652600,2026-07-05T22:32:23.171+07:00,1.543,1149987,1149987,0
1783265543171652600,2026-07-05T22:32:23.171+07:00,1.543,1150274,1150274,0
1783265543171652600,2026-07-05T22:32:23.171+07:00,1.543,1150274,1149987,0
1783265543171652600,2026-07-05T22:32:23.171+07:00,1.543,1149987,1149987,0
1783265543171652600,2026-07-05T22:32:23.171+07:00,1.543,1149987,1149987,0
1783265543171652600,2026-07-05T22:32:23.171+07:00,1.543,1150274,1150274,0
1783265543171652600,2026-07-05T22:32:23.171+07:00,1.543,1149987,1149987,0
1783265543171652600,2026-07-05T22:32:23.171+07:00,1.543,1149987,1149987,0
1783265543171652600,2026-07-05T22:32:23.171+07:00,1.543,1150274,1149987,0
1783265543171652600,2026-07-05T22:32:23.171+07:00,1.543,1150274,1149987,0
1783265543210356300,2026-07-05T22:32:23.210+07:00,1.582,1149987,1149987,0
1783265543210356300,2026-07-05T22:32:23.210+07:00,1.582,1149987,1149987,0
1783265543210356300,2026-07-05T22:32:23.210+07:00,1.582,1149987,1150274,0
1783265543210356300,2026-07-05T22:32:23.210+07:00,1.582,1149987,1149987,0
1783265543210356300,2026-07-05T22:32:23.210+07:00,1.582,1149987,1149700,0
1783265543210356300,2026-07-05T22:32:23.210+07:00,1.582,0,0,0
1783265543210356300,2026-07-05T22:32:23.210+07:00,1.582,0,0,0
1783265543210356300,2026-07-05T22:32:23.210+07:00,1.582,0,0,0
1783265543210356300,2026-07-05T22:32:23.210+07:00,1.582,0,0,0
1783265543210356300,2026-07-05T22:32:23.210+07:00,1.582,0,0,0
1783265543210356300,2026-07-05T22:32:23.210+07:00,1.582,0,0,0
1783265543210356300,2026-07-05T22:32:23.210+07:00,1.582,0,0,0
1783265543210356300,2026-07-05T22:32:23.210+07:00,1.582,0,0,0
1783265543210356300,2026-07-05T22:32:23.210+07:00,1.582,0,0,0
1783265543210356300,2026-07-05T22:32:23.210+07:00,1.582,0,0,0
1783265543210356300,2026-07-05T22:32:23.210+07:00,1.582,0,0,0
1783265543210356300,2026-07-05T22:32:23.210+07:00,1.582,0,0,0
1783265543256117600,2026-07-05T22:32:23.256+07:00,1.628,0,0,0
1783265543256117600,2026-07-05T22:32:23.256+07:00,1.628,0,0,0
1783265543256117600,2026-07-05T22:32:23.256+07:00,1.628,0,0,0
1783265543256117600,2026-07-05T22:32:23.256+07:00,1.628,0,0,0
1783265543256117600,2026-07-05T22:32:23.256+07:00,1.628,0,0,0
1783265543256117600,2026-07-05T22:32:23.256+07:00,1.628,0,0,0
1783265543256117600,2026-07-05T22:32:23.256+07:00,1.628,0,0,0
1783265543256117600,2026-07-05T22:32:23.256+07:00,1.628,0,0,0
1783265543256117600,2026-07-05T22:32:23.256+07:00,1.628,0,0,0
1783265543256117600,2026-07-05T22:32:23.256+07:00,1.628,0,0,0
1783265543256117600,2026-07-05T22:32:23.256+07:00,1.628,0,0,0
1783265543258656800,2026-07-05T22:32:23.258+07:00,1.630,0,0,0
1783265543258656800,2026-07-05T22:32:23.258+07:00,1.630,0,0,0
1783265543258656800,2026-07-05T22:32:23.258+07:00,1.630,0,0,0
1783265543258656800,2026-07-05T22:32:23.258+07:00,1.630,0,0,0
1783265543258656800,2026-07-05T22:32:23.258+07:00,1.630,0,0,0
1783265543258656800,2026-07-05T22:32:23.258+07:00,1.630,0,0,0
1783265543295232400,2026-07-05T22:32:23.295+07:00,1.667,0,0,0
1783265543295232400,2026-07-05T22:32:23.295+07:00,1.667,0,0,0
1783265543295232400,2026-07-05T22:32:23.295+07:00,1.667,0,0,0
1783265543295232400,2026-07-05T22:32:23.295+07:00,1.667,0,0,0
1783265543295232400,2026-07-05T22:32:23.295+07:00,1.667,0,0,0
1783265543295232400,2026-07-05T22:32:23.295+07:00,1.667,0,0,0
1783265543295232400,2026-07-05T22:32:23.295+07:00,1.667,0,0,0
1783265543295232400,2026-07-05T22:32:23.295+07:00,1.667,0,0,0
1783265543295232400,2026-07-05T22:32:23.295+07:00,1.667,0,0,0
1783265543295232400,2026-07-05T22:32:23.295+07:00,1.667,0,0,0
1783265543295232400,2026-07-05T22:32:23.295+07:00,1.667,0,0,0
1783265543295232400,2026-07-05T22:32:23.295+07:00,1.667,330994,341487,0
1783265543295232400,2026-07-05T22:32:23.295+07:00,1.667,331154,341487,0
1783265543295232400,2026-07-05T22:32:23.295+07:00,1.667,1149987,1078382,0
1783265543295770200,2026-07-05T22:32:23.295+07:00,1.667,1149987,1149987,0
1783265543334627600,2026-07-05T22:32:23.334+07:00,1.706,1150274,1078113,0
1783265543334627600,2026-07-05T22:32:23.334+07:00,1.706,1149987,1150274,0
1783265543334627600,2026-07-05T22:32:23.334+07:00,1.706,1150274,1078382,0
1783265543334627600,2026-07-05T22:32:23.334+07:00,1.706,1149987,1150274,0
1783265543334627600,2026-07-05T22:32:23.334+07:00,1.706,1149987,1078382,0
1783265543334627600,2026-07-05T22:32:23.334+07:00,1.706,1149987,1149987,0
1783265543334627600,2026-07-05T22:32:23.334+07:00,1.706,1149700,1078382,0
1783265543334627600,2026-07-05T22:32:23.334+07:00,1.706,1149987,1150274,0
1783265543334627600,2026-07-05T22:32:23.334+07:00,1.706,1149987,1078382,0
1783265543334627600,2026-07-05T22:32:23.334+07:00,1.706,1149987,1150274,0
1783265543334627600,2026-07-05T22:32:23.334+07:00,1.706,1150274,1078382,0
1783265543334627600,2026-07-05T22:32:23.334+07:00,1.706,1149987,1150274,0
1783265543334627600,2026-07-05T22:32:23.334+07:00,1.706,1149987,1078382,0
1783265543334627600,2026-07-05T22:32:23.334+07:00,1.706,1150274,1150274,0
1783265543334627600,2026-07-05T22:32:23.334+07:00,1.706,1150274,1149987,0
1783265543334627600,2026-07-05T22:32:23.334+07:00,1.706,1149987,1149987,0
1783265543334627600,2026-07-05T22:32:23.334+07:00,1.706,1149987,1078382,0
1783265543378662800,2026-07-05T22:32:23.378+07:00,1.750,1149700,1149987,0
1783265543378662800,2026-07-05T22:32:23.378+07:00,1.750,1149987,1078113,0
1783265543378662800,2026-07-05T22:32:23.378+07:00,1.750,1149987,1150274,0
1783265543378662800,2026-07-05T22:32:23.378+07:00,1.750,1149700,1078113,0
1783265543378662800,2026-07-05T22:32:23.378+07:00,1.750,1149987,1150274,0
1783265543378662800,2026-07-05T22:32:23.378+07:00,1.750,1149987,1078382,0
1783265543378662800,2026-07-05T22:32:23.378+07:00,1.750,1150274,1149987,0
1783265543378662800,2026-07-05T22:32:23.378+07:00,1.750,1149987,1078113,0
1783265543378662800,2026-07-05T22:32:23.378+07:00,1.750,1149700,1149987,0
1783265543378662800,2026-07-05T22:32:23.378+07:00,1.750,1149987,1078113,0
1783265543378662800,2026-07-05T22:32:23.378+07:00,1.750,1149987,1150274,0
1783265543378662800,2026-07-05T22:32:23.378+07:00,1.750,1149987,1078382,0
1783265543378662800,2026-07-05T22:32:23.378+07:00,1.750,1149987,1150274,0
1783265543378662800,2026-07-05T22:32:23.378+07:00,1.750,1149987,1078382,0
1783265543378662800,2026-07-05T22:32:23.378+07:00,1.750,1150274,1149987,0
1783265543378662800,2026-07-05T22:32:23.378+07:00,1.750,1149987,1078113,0
1783265543378662800,2026-07-05T22:32:23.378+07:00,1.750,1149700,1149700,0
1783265543423436600,2026-07-05T22:32:23.423+07:00,1.795,1149987,1078382,0
1783265543423436600,2026-07-05T22:32:23.423+07:00,1.795,1149987,1150274,0
1783265543423436600,2026-07-05T22:32:23.423+07:00,1.795,0,0,0
1783265543423436600,2026-07-05T22:32:23.423+07:00,1.795,0,0,0
1783265543423436600,2026-07-05T22:32:23.423+07:00,1.795,0,0,0
1783265543423436600,2026-07-05T22:32:23.423+07:00,1.795,0,0,0
1783265543423436600,2026-07-05T22:32:23.423+07:00,1.795,0,0,0
1783265543423436600,2026-07-05T22:32:23.423+07:00,1.795,0,0,0
1783265543423436600,2026-07-05T22:32:23.423+07:00,1.795,0,0,0
1783265543423436600,2026-07-05T22:32:23.423+07:00,1.795,0,0,0
1783265543423436600,2026-07-05T22:32:23.423+07:00,1.795,0,0,0
1783265543423436600,2026-07-05T22:32:23.423+07:00,1.795,0,0,0
1783265543423436600,2026-07-05T22:32:23.423+07:00,1.795,0,0,0
1783265543423436600,2026-07-05T22:32:23.423+07:00,1.795,0,0,0
1783265543423436600,2026-07-05T22:32:23.423+07:00,1.795,0,0,0
1783265543423436600,2026-07-05T22:32:23.423+07:00,1.795,0,0,0
1783265543423436600,2026-07-05T22:32:23.423+07:00,1.795,0,0,0
1783265543462581500,2026-07-05T22:32:23.462+07:00,1.834,0,0,0
1783265543462581500,2026-07-05T22:32:23.462+07:00,1.834,0,0,0
1783265543462581500,2026-07-05T22:32:23.462+07:00,1.834,0,0,0
1783265543462581500,2026-07-05T22:32:23.462+07:00,1.834,0,0,0
1783265543462581500,2026-07-05T22:32:23.462+07:00,1.834,0,0,0
1783265543462581500,2026-07-05T22:32:23.462+07:00,1.834,0,0,0
1783265543462581500,2026-07-05T22:32:23.462+07:00,1.834,0,0,0
1783265543462581500,2026-07-05T22:32:23.462+07:00,1.834,0,0,0
1783265543462581500,2026-07-05T22:32:23.462+07:00,1.834,0,0,0
1783265543462581500,2026-07-05T22:32:23.462+07:00,1.834,0,0,0
1783265543462581500,2026-07-05T22:32:23.462+07:00,1.834,0,0,0
1783265543462581500,2026-07-05T22:32:23.462+07:00,1.834,0,0,0
1783265543462581500,2026-07-05T22:32:23.462+07:00,1.834,0,0,0
1783265543462581500,2026-07-05T22:32:23.462+07:00,1.834,0,0,0
1783265543462581500,2026-07-05T22:32:23.462+07:00,1.834,0,0,0
1783265543462581500,2026-07-05T22:32:23.462+07:00,1.834,0,0,0
1783265543462581500,2026-07-05T22:32:23.462+07:00,1.834,0,0,0
1783265543501951600,2026-07-05T22:32:23.501+07:00,1.873,0,0,0
1783265543501951600,2026-07-05T22:32:23.501+07:00,1.873,0,0,0
1783265543501951600,2026-07-05T22:32:23.501+07:00,1.873,0,0,0
1783265543501951600,2026-07-05T22:32:23.501+07:00,1.873,0,0,0
1783265543501951600,2026-07-05T22:32:23.501+07:00,1.873,0,0,0
1783265543501951600,2026-07-05T22:32:23.501+07:00,1.873,0,0,0
1783265543501951600,2026-07-05T22:32:23.501+07:00,1.873,0,0,0
1783265543501951600,2026-07-05T22:32:23.501+07:00,1.873,0,0,0
1783265543501951600,2026-07-05T22:32:23.501+07:00,1.873,330994,341317,0
1783265543501951600,2026-07-05T22:32:23.501+07:00,1.873,330994,341317,0
1783265543501951600,2026-07-05T22:32:23.501+07:00,1.873,1149987,1078113,0
1783265543501951600,2026-07-05T22:32:23.501+07:00,1.873,1149987,1149987,0
1783265543501951600,2026-07-05T22:32:23.501+07:00,1.873,1149987,1078113,0
1783265543501951600,2026-07-05T22:32:23.501+07:00,1.873,1149700,1149987,0
1783265543501951600,2026-07-05T22:32:23.501+07:00,1.873,1149987,1078113,0
1783265543501951600,2026-07-05T22:32:23.501+07:00,1.873,1149700,1149987,0
1783265543544143500,2026-07-05T22:32:23.544+07:00,1.916,1149700,1078113,0
1783265543544143500,2026-07-05T22:32:23.544+07:00,1.916,1149987,1149987,0
1783265543544143500,2026-07-05T22:32:23.544+07:00,1.916,1149987,1078113,0
1783265543544143500,2026-07-05T22:32:23.544+07:00,1.916,1149987,1149987,0
1783265543544143500,2026-07-05T22:32:23.544+07:00,1.916,1149700,1078113,0
1783265543544143500,2026-07-05T22:32:23.544+07:00,1.916,1149700,1149987,0
1783265543544143500,2026-07-05T22:32:23.544+07:00,1.916,1149700,1078113,0
1783265543544143500,2026-07-05T22:32:23.544+07:00,1.916,1149987,1149987,0
1783265543544143500,2026-07-05T22:32:23.544+07:00,1.916,1149987,1078113,0
1783265543544143500,2026-07-05T22:32:23.544+07:00,1.916,1149700,1149700,0
1783265543544143500,2026-07-05T22:32:23.544+07:00,1.916,1149700,1078113,0
1783265543544143500,2026-07-05T22:32:23.544+07:00,1.916,1149700,1149987,0
1783265543544143500,2026-07-05T22:32:23.544+07:00,1.916,1149987,1078382,0
1783265543544143500,2026-07-05T22:32:23.544+07:00,1.916,1149987,1149700,0
1783265543544143500,2026-07-05T22:32:23.544+07:00,1.916,1149987,1078113,0
1783265543544143500,2026-07-05T22:32:23.544+07:00,1.916,1149987,1149987,0
1783265543544143500,2026-07-05T22:32:23.544+07:00,1.916,1149700,1078113,0
1783265543584553100,2026-07-05T22:32:23.584+07:00,1.956,1149987,1149987,0
1783265543584553100,2026-07-05T22:32:23.584+07:00,1.956,1149987,1078113,0
1783265543584553100,2026-07-05T22:32:23.584+07:00,1.956,1149987,1149987,0
1783265543584553100,2026-07-05T22:32:23.584+07:00,1.956,1149987,1078113,0
1783265543584553100,2026-07-05T22:32:23.584+07:00,1.956,1149700,1149987,0
1783265543584553100,2026-07-05T22:32:23.584+07:00,1.956,1150274,1078382,0
1783265543584553100,2026-07-05T22:32:23.584+07:00,1.956,1149987,1149987,0
1783265543584553100,2026-07-05T22:32:23.584+07:00,1.956,1149987,1078382,0
1783265543584553100,2026-07-05T22:32:23.584+07:00,1.956,1150274,1149987,0
1783265543584553100,2026-07-05T22:32:23.584+07:00,1.956,1149987,1078382,0
1783265543584553100,2026-07-05T22:32:23.584+07:00,1.956,1149987,1150274,0
1783265543584553100,2026-07-05T22:32:23.584+07:00,1.956,1149987,1078113,0
1783265543584553100,2026-07-05T22:32:23.584+07:00,1.956,1149987,1149987,0
1783265543584553100,2026-07-05T22:32:23.584+07:00,1.956,1149700,1078113,0
1783265543584553100,2026-07-05T22:32:23.584+07:00,1.956,1149987,1149987,0
1783265543627901200,2026-07-05T22:32:23.627+07:00,1.999,0,0,0
1783265543628477400,2026-07-05T22:32:23.628+07:00,2.000,0,0,0
1783265543628477400,2026-07-05T22:32:23.628+07:00,2.000,0,0,0
1783265543628477400,2026-07-05T22:32:23.628+07:00,2.000,0,0,0
1783265543628477400,2026-07-05T22:32:23.628+07:00,2.000,0,0,0
1783265543628477400,2026-07-05T22:32:23.628+07:00,2.000,0,0,0
1783265543628477400,2026-07-05T22:32:23.628+07:00,2.000,0,0,0
1783265543628477400,2026-07-05T22:32:23.628+07:00,2.000,0,0,0
1783265543628477400,2026-07-05T22:32:23.628+07:00,2.000,0,0,0
1783265543628477400,2026-07-05T22:32:23.628+07:00,2.000,0,0,0
1783265543628477400,2026-07-05T22:32:23.628+07:00,2.000,0,0,0
1783265543628477400,2026-07-05T22:32:23.628+07:00,2.000,0,0,0
1783265543628477400,2026-07-05T22:32:23.628+07:00,2.000,0,0,0
1783265543628477400,2026-07-05T22:32:23.628+07:00,2.000,0,0,0
1783265543628477400,2026-07-05T22:32:23.628+07:00,2.000,0,0,0
1783265543628477400,2026-07-05T22:32:23.628+07:00,2.000,0,0,0
1783265543628477400,2026-07-05T22:32:23.628+07:00,2.000,0,0,0
1783265543629016900,2026-07-05T22:32:23.629+07:00,2.001,0,0,0
1783265543670401800,2026-07-05T22:32:23.670+07:00,2.042,0,0,0
1783265543670401800,2026-07-05T22:32:23.670+07:00,2.042,0,0,0
1783265543670401800,2026-07-05T22:32:23.670+07:00,2.042,0,0,0
1783265543670401800,2026-07-05T22:32:23.670+07:00,2.042,0,0,0
1783265543670401800,2026-07-05T22:32:23.670+07:00,2.042,0,0,0
1783265543670401800,2026-07-05T22:32:23.670+07:00,2.042,0,0,0
1783265543670401800,2026-07-05T22:32:23.670+07:00,2.042,0,0,0
1783265543670401800,2026-07-05T22:32:23.670+07:00,2.042,0,0,0
1783265543670401800,2026-07-05T22:32:23.670+07:00,2.042,0,0,0
1783265543670401800,2026-07-05T22:32:23.670+07:00,2.042,0,0,0
1783265543670401800,2026-07-05T22:32:23.670+07:00,2.042,0,0,0
1783265543670401800,2026-07-05T22:32:23.670+07:00,2.042,0,0,0
1783265543670401800,2026-07-05T22:32:23.670+07:00,2.042,0,0,0
1783265543670401800,2026-07-05T22:32:23.670+07:00,2.042,0,0,0
1783265543670401800,2026-07-05T22:32:23.670+07:00,2.042,0,0,0
1783265543670401800,2026-07-05T22:32:23.670+07:00,2.042,0,0,0
1783265543670401800,2026-07-05T22:32:23.670+07:00,2.042,0,0,0
1783265543708668000,2026-07-05T22:32:23.708+07:00,2.080,0,0,0
1783265543708668000,2026-07-05T22:32:23.708+07:00,2.080,0,0,0
1783265543708668000,2026-07-05T22:32:23.708+07:00,2.080,0,0,0
1783265543708668000,2026-07-05T22:32:23.708+07:00,2.080,0,0,0
1783265543708668000,2026-07-05T22:32:23.708+07:00,2.080,0,0,0
1783265543708668000,2026-07-05T22:32:23.708+07:00,2.080,330994,341402,0
1783265543708668000,2026-07-05T22:32:23.708+07:00,2.080,331074,341487,0
1783265543708668000,2026-07-05T22:32:23.708+07:00,2.080,1149987,1078113,0
1783265543708668000,2026-07-05T22:32:23.708+07:00,2.080,1149700,1149987,0
1783265543708668000,2026-07-05T22:32:23.708+07:00,2.080,1150274,1078651,0
1783265543708668000,2026-07-05T22:32:23.708+07:00,2.080,1149987,1150561,0
1783265543708668000,2026-07-05T22:32:23.708+07:00,2.080,1149987,1078382,0
1783265543708668000,2026-07-05T22:32:23.708+07:00,2.080,1149987,1150274,0
1783265543708668000,2026-07-05T22:32:23.708+07:00,2.080,1149987,1078382,0
1783265543708668000,2026-07-05T22:32:23.708+07:00,2.080,1149987,1150274,0
1783265543752545700,2026-07-05T22:32:23.752+07:00,2.124,1149987,1078382,0
1783265543752545700,2026-07-05T22:32:23.752+07:00,2.124,1150274,1150274,0
1783265543752545700,2026-07-05T22:32:23.752+07:00,2.124,1149987,1078382,0
1783265543752545700,2026-07-05T22:32:23.752+07:00,2.124,1149987,1150274,0
1783265543752545700,2026-07-05T22:32:23.752+07:00,2.124,1149987,1078382,0
1783265543752545700,2026-07-05T22:32:23.752+07:00,2.124,1149987,1150274,0
1783265543752545700,2026-07-05T22:32:23.752+07:00,2.124,1149987,1078382,0
1783265543752545700,2026-07-05T22:32:23.752+07:00,2.124,1150274,1150274,0
1783265543752545700,2026-07-05T22:32:23.752+07:00,2.124,1150274,1078651,0
1783265543752545700,2026-07-05T22:32:23.752+07:00,2.124,1150274,1150561,0
1783265543752545700,2026-07-05T22:32:23.752+07:00,2.124,1150274,1078651,0
1783265543752545700,2026-07-05T22:32:23.752+07:00,2.124,1149987,1150274,0
1783265543752545700,2026-07-05T22:32:23.752+07:00,2.124,1150274,1078382,0
1783265543752545700,2026-07-05T22:32:23.752+07:00,2.124,1149987,1150274,0
1783265543752545700,2026-07-05T22:32:23.752+07:00,2.124,1149987,1078382,0
1783265543752545700,2026-07-05T22:32:23.752+07:00,2.124,1150274,1150274,0
1783265543752545700,2026-07-05T22:32:23.752+07:00,2.124,1149987,1078113,0
1783265543795436400,2026-07-05T22:32:23.795+07:00,2.167,1149700,1150274,0
1783265543795972700,2026-07-05T22:32:23.795+07:00,2.167,1149987,1078382,0
1783265543795972700,2026-07-05T22:32:23.795+07:00,2.167,1150274,1150274,0
1783265543795972700,2026-07-05T22:32:23.795+07:00,2.167,1149987,1078113,0
1783265543795972700,2026-07-05T22:32:23.795+07:00,2.167,1150274,1150274,0
1783265543795972700,2026-07-05T22:32:23.795+07:00,2.167,1150274,1078651,0
1783265543795972700,2026-07-05T22:32:23.795+07:00,2.167,1149987,1149987,0
1783265543795972700,2026-07-05T22:32:23.795+07:00,2.167,1150274,1078382,0
1783265543795972700,2026-07-05T22:32:23.795+07:00,2.167,1149987,1149987,0
1783265543795972700,2026-07-05T22:32:23.795+07:00,2.167,1150274,1078382,0
1783265543795972700,2026-07-05T22:32:23.795+07:00,2.167,1150274,1150274,0
1783265543795972700,2026-07-05T22:32:23.795+07:00,2.167,1150274,1078382,0
1783265543795972700,2026-07-05T22:32:23.795+07:00,2.167,1149987,1149987,0
1783265543795972700,2026-07-05T22:32:23.795+07:00,2.167,0,0,0
1783265543795972700,2026-07-05T22:32:23.795+07:00,2.167,0,0,0
1783265543795972700,2026-07-05T22:32:23.795+07:00,2.167,0,0,0
1783265543795972700,2026-07-05T22:32:23.795+07:00,2.167,0,0,0
1783265543834133500,2026-07-05T22:32:23.834+07:00,2.206,0,0,0
1783265543834133500,2026-07-05T22:32:23.834+07:00,2.206,0,0,0
1783265543834133500,2026-07-05T22:32:23.834+07:00,2.206,0,0,0
1783265543834133500,2026-07-05T22:32:23.834+07:00,2.206,0,0,0
1783265543838531700,2026-07-05T22:32:23.838+07:00,2.210,0,0,0
1783265543838531700,2026-07-05T22:32:23.838+07:00,2.210,0,0,0
1783265543838531700,2026-07-05T22:32:23.838+07:00,2.210,0,0,0
1783265543838531700,2026-07-05T22:32:23.838+07:00,2.210,0,0,0
1783265543838531700,2026-07-05T22:32:23.838+07:00,2.210,0,0,0
1783265543838531700,2026-07-05T22:32:23.838+07:00,2.210,0,0,0
1783265543838531700,2026-07-05T22:32:23.838+07:00,2.210,0,0,0
1783265543838531700,2026-07-05T22:32:23.838+07:00,2.210,0,0,0
1783265543838531700,2026-07-05T22:32:23.838+07:00,2.210,0,0,0
1783265543838531700,2026-07-05T22:32:23.838+07:00,2.210,0,0,0
1783265543838531700,2026-07-05T22:32:23.838+07:00,2.210,0,0,0
1783265543838531700,2026-07-05T22:32:23.838+07:00,2.210,0,0,0
1783265543838531700,2026-07-05T22:32:23.838+07:00,2.210,0,0,0
1783265543878475700,2026-07-05T22:32:23.878+07:00,2.250,0,0,0
1783265543878475700,2026-07-05T22:32:23.878+07:00,2.250,0,0,0
1783265543878475700,2026-07-05T22:32:23.878+07:00,2.250,0,0,0
1783265543878475700,2026-07-05T22:32:23.878+07:00,2.250,0,0,0
1783265543878475700,2026-07-05T22:32:23.878+07:00,2.250,0,0,0
1783265543878475700,2026-07-05T22:32:23.878+07:00,2.250,0,0,0
1783265543878475700,2026-07-05T22:32:23.878+07:00,2.250,0,0,0
1783265543878475700,2026-07-05T22:32:23.878+07:00,2.250,0,0,0
1783265543878475700,2026-07-05T22:32:23.878+07:00,2.250,0,0,0
1783265543878475700,2026-07-05T22:32:23.878+07:00,2.250,0,0,0
1783265543878475700,2026-07-05T22:32:23.878+07:00,2.250,0,0,0
1783265543878475700,2026-07-05T22:32:23.878+07:00,2.250,0,0,0
1783265543878475700,2026-07-05T22:32:23.878+07:00,2.250,0,0,0
1783265543878475700,2026-07-05T22:32:23.878+07:00,2.250,0,0,0
1783265543878475700,2026-07-05T22:32:23.878+07:00,2.250,0,0,0
1783265543878475700,2026-07-05T22:32:23.878+07:00,2.250,0,0,0
1783265543878475700,2026-07-05T22:32:23.878+07:00,2.250,0,0,0
1783265543917031300,2026-07-05T22:32:23.917+07:00,2.289,0,0,0
1783265543917031300,2026-07-05T22:32:23.917+07:00,2.289,0,0,0
1783265543917031300,2026-07-05T22:32:23.917+07:00,2.289,330994,341402,0
1783265543917031300,2026-07-05T22:32:23.917+07:00,2.289,331074,341487,0
1783265543917031300,2026-07-05T22:32:23.917+07:00,2.289,1149987,1078113,0
1783265543917031300,2026-07-05T22:32:23.917+07:00,2.289,1149987,1149700,0
1783265543917031300,2026-07-05T22:32:23.917+07:00,2.289,1149987,1078113,0
1783265543917031300,2026-07-05T22:32:23.917+07:00,2.289,1149700,1149987,0
1783265543917031300,2026-07-05T22:32:23.917+07:00,2.289,1149987,1078382,0
1783265543917031300,2026-07-05T22:32:23.917+07:00,2.289,1149987,1149987,0
1783265543917031300,2026-07-05T22:32:23.917+07:00,2.289,1149987,1078113,0
1783265543917031300,2026-07-05T22:32:23.917+07:00,2.289,1149987,1150274,0
1783265543917031300,2026-07-05T22:32:23.917+07:00,2.289,1149987,1078382,0
1783265543917031300,2026-07-05T22:32:23.917+07:00,2.289,1150274,1150274,0
1783265543917031300,2026-07-05T22:32:23.917+07:00,2.289,1149987,1078651,0
1783265543917031300,2026-07-05T22:32:23.917+07:00,2.289,1149700,1149987,0
1783265543962802600,2026-07-05T22:32:23.962+07:00,2.334,1149700,1078113,0
1783265543962802600,2026-07-05T22:32:23.962+07:00,2.334,1149987,1149987,0
1783265543962802600,2026-07-05T22:32:23.962+07:00,2.334,1149700,1078113,0
1783265543962802600,2026-07-05T22:32:23.962+07:00,2.334,1149700,1149987,0
1783265543962802600,2026-07-05T22:32:23.962+07:00,2.334,1149987,1078113,0
1783265543962802600,2026-07-05T22:32:23.962+07:00,2.334,1149987,1149987,0
1783265543962802600,2026-07-05T22:32:23.962+07:00,2.334,1149987,1078113,0
1783265543962802600,2026-07-05T22:32:23.962+07:00,2.334,1149987,1149987,0
1783265543962802600,2026-07-05T22:32:23.962+07:00,2.334,1149987,1078113,0
1783265543962802600,2026-07-05T22:32:23.962+07:00,2.334,1149700,1149987,0
1783265543962802600,2026-07-05T22:32:23.962+07:00,2.334,1149700,1078113,0
1783265543962802600,2026-07-05T22:32:23.962+07:00,2.334,1149700,1149987,0
1783265543962802600,2026-07-05T22:32:23.962+07:00,2.334,1149700,1078113,0
1783265543962802600,2026-07-05T22:32:23.962+07:00,2.334,1149987,1149987,0
1783265543962802600,2026-07-05T22:32:23.962+07:00,2.334,1149700,1078382,0
1783265543962802600,2026-07-05T22:32:23.962+07:00,2.334,1150274,1150561,0
1783265543962802600,2026-07-05T22:32:23.962+07:00,2.334,1149987,1078382,0
1783265544004558900,2026-07-05T22:32:24.004+07:00,2.376,1149700,1149987,0
1783265544004558900,2026-07-05T22:32:24.004+07:00,2.376,1149987,1077844,0
1783265544004558900,2026-07-05T22:32:24.004+07:00,2.376,1149987,1149987,0
1783265544004558900,2026-07-05T22:32:24.004+07:00,2.376,1149700,1077844,0
1783265544004558900,2026-07-05T22:32:24.004+07:00,2.376,1149987,1149987,0
1783265544004558900,2026-07-05T22:32:24.004+07:00,2.376,1149700,1078113,0
1783265544004558900,2026-07-05T22:32:24.004+07:00,2.376,1149987,1150274,0
1783265544004558900,2026-07-05T22:32:24.004+07:00,2.376,1149700,1077844,0
1783265544004558900,2026-07-05T22:32:24.004+07:00,2.376,1149700,1149987,0
1783265544004558900,2026-07-05T22:32:24.004+07:00,2.376,0,0,0
1783265544004558900,2026-07-05T22:32:24.004+07:00,2.376,0,0,0
1783265544004558900,2026-07-05T22:32:24.004+07:00,2.376,0,0,0
1783265544004558900,2026-07-05T22:32:24.004+07:00,2.376,0,0,0
1783265544004558900,2026-07-05T22:32:24.004+07:00,2.376,0,0,0
1783265544004558900,2026-07-05T22:32:24.004+07:00,2.376,0,0,0
1783265544004558900,2026-07-05T22:32:24.004+07:00,2.376,0,0,0
1783265544004558900,2026-07-05T22:32:24.004+07:00,2.376,0,0,0
1783265544043366600,2026-07-05T22:32:24.043+07:00,2.415,0,0,0
1783265544048417000,2026-07-05T22:32:24.048+07:00,2.420,0,0,0
1783265544048417000,2026-07-05T22:32:24.048+07:00,2.420,0,0,0
1783265544048417000,2026-07-05T22:32:24.048+07:00,2.420,0,0,0
1783265544048417000,2026-07-05T22:32:24.048+07:00,2.420,0,0,0
1783265544048417000,2026-07-05T22:32:24.048+07:00,2.420,0,0,0
1783265544048417000,2026-07-05T22:32:24.048+07:00,2.420,0,0,0
1783265544048417000,2026-07-05T22:32:24.048+07:00,2.420,0,0,0
1783265544048417000,2026-07-05T22:32:24.048+07:00,2.420,0,0,0
1783265544048417000,2026-07-05T22:32:24.048+07:00,2.420,0,0,0
1783265544048417000,2026-07-05T22:32:24.048+07:00,2.420,0,0,0
1783265544048417000,2026-07-05T22:32:24.048+07:00,2.420,0,0,0
1783265544048417000,2026-07-05T22:32:24.048+07:00,2.420,0,0,0
1783265544048417000,2026-07-05T22:32:24.048+07:00,2.420,0,0,0
1783265544048417000,2026-07-05T22:32:24.048+07:00,2.420,0,0,0
1783265544048417000,2026-07-05T22:32:24.048+07:00,2.420,0,0,0
1783265544048417000,2026-07-05T22:32:24.048+07:00,2.420,0,0,0
1783265544083463000,2026-07-05T22:32:24.083+07:00,2.455,0,0,0
1783265544083463000,2026-07-05T22:32:24.083+07:00,2.455,0,0,0
1783265544083463000,2026-07-05T22:32:24.083+07:00,2.455,0,0,0
1783265544083463000,2026-07-05T22:32:24.083+07:00,2.455,0,0,0
1783265544083463000,2026-07-05T22:32:24.083+07:00,2.455,0,0,0
1783265544083463000,2026-07-05T22:32:24.083+07:00,2.455,0,0,0
1783265544083463000,2026-07-05T22:32:24.083+07:00,2.455,0,0,0
1783265544083463000,2026-07-05T22:32:24.083+07:00,2.455,0,0,0
1783265544083463000,2026-07-05T22:32:24.083+07:00,2.455,0,0,0
1783265544083463000,2026-07-05T22:32:24.083+07:00,2.455,0,0,0
1783265544083463000,2026-07-05T22:32:24.083+07:00,2.455,0,0,0
1783265544083463000,2026-07-05T22:32:24.083+07:00,2.455,0,0,0
1783265544083463000,2026-07-05T22:32:24.083+07:00,2.455,0,0,0
1783265544083463000,2026-07-05T22:32:24.083+07:00,2.455,0,0,0
1783265544083463000,2026-07-05T22:32:24.083+07:00,2.455,0,0,0
1783265544121172900,2026-07-05T22:32:24.121+07:00,2.493,331074,341402,0
1783265544121172900,2026-07-05T22:32:24.121+07:00,2.493,331154,341402,0
1783265544121172900,2026-07-05T22:32:24.121+07:00,2.493,1149987,1078113,0
1783265544121172900,2026-07-05T22:32:24.121+07:00,2.493,1149987,1150274,0
1783265544121172900,2026-07-05T22:32:24.121+07:00,2.493,1149987,1149987,0
1783265544121172900,2026-07-05T22:32:24.121+07:00,2.493,1149987,1150274,0
1783265544121172900,2026-07-05T22:32:24.121+07:00,2.493,1149987,1149987,0
1783265544121172900,2026-07-05T22:32:24.121+07:00,2.493,1150274,1150274,0
1783265544121172900,2026-07-05T22:32:24.121+07:00,2.493,1149987,1149987,0
1783265544121172900,2026-07-05T22:32:24.121+07:00,2.493,1149987,1149987,0
1783265544121172900,2026-07-05T22:32:24.121+07:00,2.493,1150274,1149987,0
1783265544128218800,2026-07-05T22:32:24.128+07:00,2.500,1149987,1150274,0
1783265544128218800,2026-07-05T22:32:24.128+07:00,2.500,1149987,1078113,0
1783265544128218800,2026-07-05T22:32:24.128+07:00,2.500,1149987,1149987,0
1783265544128218800,2026-07-05T22:32:24.128+07:00,2.500,1149987,1078382,0
1783265544128218800,2026-07-05T22:32:24.128+07:00,2.500,1149987,1150274,0
1783265544128218800,2026-07-05T22:32:24.128+07:00,2.500,1149700,1078113,0
1783265544168798600,2026-07-05T22:32:24.168+07:00,2.540,1150274,1149987,0
1783265544168798600,2026-07-05T22:32:24.168+07:00,2.540,1150274,1078651,0
1783265544168798600,2026-07-05T22:32:24.168+07:00,2.540,1150274,1150274,0
1783265544168798600,2026-07-05T22:32:24.168+07:00,2.540,1149987,1078113,0
1783265544168798600,2026-07-05T22:32:24.168+07:00,2.540,1150274,1149987,0
1783265544168798600,2026-07-05T22:32:24.168+07:00,2.540,1149987,1078113,0
1783265544168798600,2026-07-05T22:32:24.168+07:00,2.540,1149987,1149987,0
1783265544168798600,2026-07-05T22:32:24.168+07:00,2.540,1149700,1078113,0
1783265544168798600,2026-07-05T22:32:24.168+07:00,2.540,1150274,1149700,0
1783265544168798600,2026-07-05T22:32:24.168+07:00,2.540,1149987,1078113,0
1783265544168798600,2026-07-05T22:32:24.168+07:00,2.540,1149987,1149987,0
1783265544168798600,2026-07-05T22:32:24.168+07:00,2.540,1150274,1078382,0
1783265544168798600,2026-07-05T22:32:24.168+07:00,2.540,1150274,1150274,0
1783265544168798600,2026-07-05T22:32:24.168+07:00,2.540,1150274,1078382,0
1783265544168798600,2026-07-05T22:32:24.168+07:00,2.540,1150274,1149987,0
1783265544168798600,2026-07-05T22:32:24.168+07:00,2.540,1150274,1078382,0
1783265544168798600,2026-07-05T22:32:24.168+07:00,2.540,1149987,1150274,0
1783265544211671400,2026-07-05T22:32:24.211+07:00,2.583,1149987,1077844,0
1783265544211671400,2026-07-05T22:32:24.211+07:00,2.583,1150274,1150274,0
1783265544211671400,2026-07-05T22:32:24.211+07:00,2.583,1149987,1078382,0
1783265544211671400,2026-07-05T22:32:24.211+07:00,2.583,1150274,1150274,0
1783265544211671400,2026-07-05T22:32:24.211+07:00,2.583,1149987,1078382,0
1783265544211671400,2026-07-05T22:32:24.211+07:00,2.583,1149987,1149987,0
1783265544211671400,2026-07-05T22:32:24.211+07:00,2.583,0,0,0
1783265544211671400,2026-07-05T22:32:24.211+07:00,2.583,0,0,0
1783265544211671400,2026-07-05T22:32:24.211+07:00,2.583,0,0,0
1783265544211671400,2026-07-05T22:32:24.211+07:00,2.583,0,0,0
1783265544211671400,2026-07-05T22:32:24.211+07:00,2.583,0,0,0
1783265544211671400,2026-07-05T22:32:24.211+07:00,2.583,0,0,0
1783265544211671400,2026-07-05T22:32:24.211+07:00,2.583,0,0,0
1783265544211671400,2026-07-05T22:32:24.211+07:00,2.583,0,0,0
1783265544211671400,2026-07-05T22:32:24.211+07:00,2.583,0,0,0
1783265544211671400,2026-07-05T22:32:24.211+07:00,2.583,0,0,0
1783265544211671400,2026-07-05T22:32:24.211+07:00,2.583,0,0,0
1783265544253577900,2026-07-05T22:32:24.253+07:00,2.625,0,0,0
1783265544253577900,2026-07-05T22:32:24.253+07:00,2.625,0,0,0
1783265544253577900,2026-07-05T22:32:24.253+07:00,2.625,0,0,0
1783265544253577900,2026-07-05T22:32:24.253+07:00,2.625,0,0,0
1783265544253577900,2026-07-05T22:32:24.253+07:00,2.625,0,0,0
1783265544253577900,2026-07-05T22:32:24.253+07:00,2.625,0,0,0
1783265544253577900,2026-07-05T22:32:24.253+07:00,2.625,0,0,0
1783265544253577900,2026-07-05T22:32:24.253+07:00,2.625,0,0,0
1783265544253577900,2026-07-05T22:32:24.253+07:00,2.625,0,0,0
1783265544253577900,2026-07-05T22:32:24.253+07:00,2.625,0,0,0
1783265544253577900,2026-07-05T22:32:24.253+07:00,2.625,0,0,0
1783265544253577900,2026-07-05T22:32:24.253+07:00,2.625,0,0,0
1783265544253577900,2026-07-05T22:32:24.253+07:00,2.625,0,0,0
1783265544253577900,2026-07-05T22:32:24.253+07:00,2.625,0,0,0
1783265544253577900,2026-07-05T22:32:24.253+07:00,2.625,0,0,0
1783265544253577900,2026-07-05T22:32:24.253+07:00,2.625,0,0,0
1783265544253577900,2026-07-05T22:32:24.253+07:00,2.625,0,0,0
1783265544294546000,2026-07-05T22:32:24.294+07:00,2.666,0,0,0
1783265544294546000,2026-07-05T22:32:24.294+07:00,2.666,0,0,0
1783265544294546000,2026-07-05T22:32:24.294+07:00,2.666,0,0,0
1783265544294546000,2026-07-05T22:32:24.294+07:00,2.666,0,0,0
1783265544294546000,2026-07-05T22:32:24.294+07:00,2.666,0,0,0
1783265544294546000,2026-07-05T22:32:24.294+07:00,2.666,0,0,0
1783265544294546000,2026-07-05T22:32:24.294+07:00,2.666,0,0,0
1783265544294546000,2026-07-05T22:32:24.294+07:00,2.666,0,0,0
1783265544294546000,2026-07-05T22:32:24.294+07:00,2.666,0,0,0
1783265544294546000,2026-07-05T22:32:24.294+07:00,2.666,0,0,0
1783265544294546000,2026-07-05T22:32:24.294+07:00,2.666,0,0,0
1783265544294546000,2026-07-05T22:32:24.294+07:00,2.666,0,0,0
1783265544294546000,2026-07-05T22:32:24.294+07:00,2.666,331074,341317,0
1783265544294546000,2026-07-05T22:32:24.294+07:00,2.666,331074,341402,0
1783265544294546000,2026-07-05T22:32:24.294+07:00,2.666,1149987,1078113,0
1783265544294546000,2026-07-05T22:32:24.294+07:00,2.666,1149987,1149987,0
1783265544332571900,2026-07-05T22:32:24.332+07:00,2.704,1149987,1078113,0
1783265544332571900,2026-07-05T22:32:24.332+07:00,2.704,1149987,1149987,0
1783265544332571900,2026-07-05T22:32:24.332+07:00,2.704,1149700,1078382,0
1783265544332571900,2026-07-05T22:32:24.332+07:00,2.704,1149987,1149987,0
1783265544332571900,2026-07-05T22:32:24.332+07:00,2.704,1149987,1078382,0
1783265544332571900,2026-07-05T22:32:24.332+07:00,2.704,1150274,1149987,0
1783265544332571900,2026-07-05T22:32:24.332+07:00,2.704,1149987,1078382,0
1783265544332571900,2026-07-05T22:32:24.332+07:00,2.704,1149700,1149987,0
1783265544332571900,2026-07-05T22:32:24.332+07:00,2.704,1149987,1078382,0
1783265544332571900,2026-07-05T22:32:24.332+07:00,2.704,1150274,1149987,0
1783265544332571900,2026-07-05T22:32:24.332+07:00,2.704,1149700,1078113,0
1783265544332571900,2026-07-05T22:32:24.332+07:00,2.704,1149987,1149987,0
1783265544332571900,2026-07-05T22:32:24.332+07:00,2.704,1149987,1077844,0
1783265544332571900,2026-07-05T22:32:24.332+07:00,2.704,1150274,1149987,0
1783265544332571900,2026-07-05T22:32:24.332+07:00,2.704,1149700,1078113,0
1783265544332571900,2026-07-05T22:32:24.332+07:00,2.704,1150274,1149987,0
1783265544332571900,2026-07-05T22:32:24.332+07:00,2.704,1149987,1078382,0
1783265544378736100,2026-07-05T22:32:24.378+07:00,2.750,1149700,1149987,0
1783265544378736100,2026-07-05T22:32:24.378+07:00,2.750,1149987,1078382,0
1783265544378736100,2026-07-05T22:32:24.378+07:00,2.750,1149700,1150274,0
1783265544378736100,2026-07-05T22:32:24.378+07:00,2.750,1149987,1078113,0
1783265544378736100,2026-07-05T22:32:24.378+07:00,2.750,1149987,1149987,0
1783265544378736100,2026-07-05T22:32:24.378+07:00,2.750,1149700,1078113,0
1783265544378736100,2026-07-05T22:32:24.378+07:00,2.750,1149987,1150274,0
1783265544378736100,2026-07-05T22:32:24.378+07:00,2.750,1149987,1078113,0
1783265544378736100,2026-07-05T22:32:24.378+07:00,2.750,1149987,1149987,0
1783265544378736100,2026-07-05T22:32:24.378+07:00,2.750,1149987,1078113,0
1783265544378736100,2026-07-05T22:32:24.378+07:00,2.750,1149987,1150561,0
1783265544378736100,2026-07-05T22:32:24.378+07:00,2.750,1149987,1078382,0
1783265544378736100,2026-07-05T22:32:24.378+07:00,2.750,1149987,1150274,0
1783265544378736100,2026-07-05T22:32:24.378+07:00,2.750,1149987,1078382,0
1783265544378736100,2026-07-05T22:32:24.378+07:00,2.750,1149987,1150274,0
1783265544378736100,2026-07-05T22:32:24.378+07:00,2.750,1149987,1078113,0
1783265544378736100,2026-07-05T22:32:24.378+07:00,2.750,1149700,1149987,0
1783265544421030400,2026-07-05T22:32:24.421+07:00,2.793,1149700,1078113,0
1783265544421030400,2026-07-05T22:32:24.421+07:00,2.793,1150274,1149987,0
1783265544421030400,2026-07-05T22:32:24.421+07:00,2.793,0,0,0
1783265544421030400,2026-07-05T22:32:24.421+07:00,2.793,0,0,0
1783265544421030400,2026-07-05T22:32:24.421+07:00,2.793,0,0,0
1783265544421030400,2026-07-05T22:32:24.421+07:00,2.793,0,0,0
1783265544421030400,2026-07-05T22:32:24.421+07:00,2.793,0,0,0
1783265544421030400,2026-07-05T22:32:24.421+07:00,2.793,0,0,0
1783265544421030400,2026-07-05T22:32:24.421+07:00,2.793,0,0,0
1783265544421030400,2026-07-05T22:32:24.421+07:00,2.793,0,0,0
1783265544421030400,2026-07-05T22:32:24.421+07:00,2.793,0,0,0
1783265544421030400,2026-07-05T22:32:24.421+07:00,2.793,0,0,0
1783265544421030400,2026-07-05T22:32:24.421+07:00,2.793,0,0,0
1783265544421030400,2026-07-05T22:32:24.421+07:00,2.793,0,0,0
1783265544423770400,2026-07-05T22:32:24.423+07:00,2.795,0,0,0
1783265544423770400,2026-07-05T22:32:24.423+07:00,2.795,0,0,0
1783265544423770400,2026-07-05T22:32:24.423+07:00,2.795,0,0,0
1783265544458563400,2026-07-05T22:32:24.458+07:00,2.830,0,0,0
1783265544458563400,2026-07-05T22:32:24.458+07:00,2.830,0,0,0
1783265544458563400,2026-07-05T22:32:24.458+07:00,2.830,0,0,0
1783265544458563400,2026-07-05T22:32:24.458+07:00,2.830,0,0,0
1783265544458563400,2026-07-05T22:32:24.458+07:00,2.830,0,0,0
1783265544458563400,2026-07-05T22:32:24.458+07:00,2.830,0,0,0
1783265544458563400,2026-07-05T22:32:24.458+07:00,2.830,0,0,0
1783265544458563400,2026-07-05T22:32:24.458+07:00,2.830,0,0,0
1783265544458563400,2026-07-05T22:32:24.458+07:00,2.830,0,0,0
1783265544458563400,2026-07-05T22:32:24.458+07:00,2.830,0,0,0
1783265544458563400,2026-07-05T22:32:24.458+07:00,2.830,0,0,0
1783265544458563400,2026-07-05T22:32:24.458+07:00,2.830,0,0,0
1783265544458563400,2026-07-05T22:32:24.458+07:00,2.830,0,0,0
1783265544458563400,2026-07-05T22:32:24.458+07:00,2.830,0,0,0
1783265544458563400,2026-07-05T22:32:24.458+07:00,2.830,0,0,0
1783265544458563400,2026-07-05T22:32:24.458+07:00,2.830,0,0,0
1783265544458563400,2026-07-05T22:32:24.458+07:00,2.830,0,0,0
1783265544499883800,2026-07-05T22:32:24.499+07:00,2.871,0,0,0
1783265544499883800,2026-07-05T22:32:24.499+07:00,2.871,0,0,0
1783265544499883800,2026-07-05T22:32:24.499+07:00,2.871,0,0,0
1783265544499883800,2026-07-05T22:32:24.499+07:00,2.871,0,0,0
1783265544499883800,2026-07-05T22:32:24.499+07:00,2.871,0,0,0
1783265544499883800,2026-07-05T22:32:24.499+07:00,2.871,0,0,0
1783265544499883800,2026-07-05T22:32:24.499+07:00,2.871,0,0,0
1783265544499883800,2026-07-05T22:32:24.499+07:00,2.871,0,0,0
1783265544499883800,2026-07-05T22:32:24.499+07:00,2.871,331074,341402,0
1783265544499883800,2026-07-05T22:32:24.499+07:00,2.871,331074,341487,0
1783265544499883800,2026-07-05T22:32:24.499+07:00,2.871,1149700,1078113,0
1783265544499883800,2026-07-05T22:32:24.499+07:00,2.871,1149987,1149987,0
1783265544499883800,2026-07-05T22:32:24.499+07:00,2.871,1149700,1078113,0
1783265544499883800,2026-07-05T22:32:24.499+07:00,2.871,1149987,1149987,0
1783265544499883800,2026-07-05T22:32:24.499+07:00,2.871,1149700,1078113,0
1783265544545216100,2026-07-05T22:32:24.545+07:00,2.917,1149700,1149987,0
1783265544545216100,2026-07-05T22:32:24.545+07:00,2.917,1149700,1078382,0
1783265544545216100,2026-07-05T22:32:24.545+07:00,2.917,1150274,1149987,0
1783265544545216100,2026-07-05T22:32:24.545+07:00,2.917,1149987,1078382,0
1783265544545216100,2026-07-05T22:32:24.545+07:00,2.917,1149987,1150274,0
1783265544545216100,2026-07-05T22:32:24.545+07:00,2.917,1149987,1078382,0
1783265544545216100,2026-07-05T22:32:24.545+07:00,2.917,1149987,1149987,0
1783265544545216100,2026-07-05T22:32:24.545+07:00,2.917,1149700,1078113,0
1783265544545216100,2026-07-05T22:32:24.545+07:00,2.917,1149987,1149700,0
1783265544545216100,2026-07-05T22:32:24.545+07:00,2.917,1149987,1078113,0
1783265544545216100,2026-07-05T22:32:24.545+07:00,2.917,1149987,1150274,0
1783265544545216100,2026-07-05T22:32:24.545+07:00,2.917,1149700,1078113,0
1783265544545216100,2026-07-05T22:32:24.545+07:00,2.917,1149987,1149987,0
1783265544545216100,2026-07-05T22:32:24.545+07:00,2.917,1149987,1078113,0
1783265544545216100,2026-07-05T22:32:24.545+07:00,2.917,1150274,1150274,0
1783265544545216100,2026-07-05T22:32:24.545+07:00,2.917,1149987,1078113,0
1783265544545216100,2026-07-05T22:32:24.545+07:00,2.917,1149700,1150274,0
1783265544578803200,2026-07-05T22:32:24.578+07:00,2.950,1149700,1078382,0
1783265544578803200,2026-07-05T22:32:24.578+07:00,2.950,1150274,1149987,0
1783265544578803200,2026-07-05T22:32:24.578+07:00,2.950,1149987,1078113,0
1783265544578803200,2026-07-05T22:32:24.578+07:00,2.950,1149700,1149987,0
1783265544578803200,2026-07-05T22:32:24.578+07:00,2.950,1149700,1078113,0
1783265544578803200,2026-07-05T22:32:24.578+07:00,2.950,1149700,1149987,0
1783265544578803200,2026-07-05T22:32:24.578+07:00,2.950,1149987,1078382,0
1783265544578803200,2026-07-05T22:32:24.578+07:00,2.950,1149987,1149987,0
1783265544578803200,2026-07-05T22:32:24.578+07:00,2.950,1149987,1078382,0
1783265544578803200,2026-07-05T22:32:24.578+07:00,2.950,1149987,1149987,0
1783265544578803200,2026-07-05T22:32:24.578+07:00,2.950,1149987,1078113,0
1783265544578803200,2026-07-05T22:32:24.578+07:00,2.950,1150274,1149987,0
1783265544578803200,2026-07-05T22:32:24.578+07:00,2.950,1149987,1078113,0
1783265544578803200,2026-07-05T22:32:24.578+07:00,2.950,1149987,1149987,0
1783265544578803200,2026-07-05T22:32:24.578+07:00,2.950,1149987,1078113,0
1783265544578803200,2026-07-05T22:32:24.578+07:00,2.950,1149987,1150274,0
1783265544624436600,2026-07-05T22:32:24.624+07:00,2.996,0,0,0
1783265544624436600,2026-07-05T22:32:24.624+07:00,2.996,0,0,0
1783265544624436600,2026-07-05T22:32:24.624+07:00,2.996,0,0,0
1783265544624436600,2026-07-05T22:32:24.624+07:00,2.996,0,0,0
1783265544624436600,2026-07-05T22:32:24.624+07:00,2.996,0,0,0
1783265544624436600,2026-07-05T22:32:24.624+07:00,2.996,0,0,0
1783265544624436600,2026-07-05T22:32:24.624+07:00,2.996,0,0,0
1783265544624436600,2026-07-05T22:32:24.624+07:00,2.996,0,0,0
1783265544624436600,2026-07-05T22:32:24.624+07:00,2.996,0,0,0
1783265544624436600,2026-07-05T22:32:24.624+07:00,2.996,0,0,0
1783265544624436600,2026-07-05T22:32:24.624+07:00,2.996,0,0,0
1783265544624436600,2026-07-05T22:32:24.624+07:00,2.996,0,0,0
1783265544624436600,2026-07-05T22:32:24.624+07:00,2.996,0,0,0
1783265544624436600,2026-07-05T22:32:24.624+07:00,2.996,0,0,0
1783265544624436600,2026-07-05T22:32:24.624+07:00,2.996,0,0,0
1783265544628803600,2026-07-05T22:32:24.628+07:00,3.000,0,0,0
1783265544628803600,2026-07-05T22:32:24.628+07:00,3.000,0,0,0
1783265544668712300,2026-07-05T22:32:24.668+07:00,3.040,0,0,0
1783265544668712300,2026-07-05T22:32:24.668+07:00,3.040,0,0,0
1783265544668712300,2026-07-05T22:32:24.668+07:00,3.040,0,0,0
1783265544668712300,2026-07-05T22:32:24.668+07:00,3.040,0,0,0
1783265544668712300,2026-07-05T22:32:24.668+07:00,3.040,0,0,0
1783265544668712300,2026-07-05T22:32:24.668+07:00,3.040,0,0,0
1783265544668712300,2026-07-05T22:32:24.668+07:00,3.040,0,0,0
1783265544668712300,2026-07-05T22:32:24.668+07:00,3.040,0,0,0
1783265544668712300,2026-07-05T22:32:24.668+07:00,3.040,0,0,0
1783265544668712300,2026-07-05T22:32:24.668+07:00,3.040,0,0,0
1783265544668712300,2026-07-05T22:32:24.668+07:00,3.040,0,0,0
1783265544668712300,2026-07-05T22:32:24.668+07:00,3.040,0,0,0
1783265544668712300,2026-07-05T22:32:24.668+07:00,3.040,0,0,0
1783265544668712300,2026-07-05T22:32:24.668+07:00,3.040,0,0,0
1783265544668712300,2026-07-05T22:32:24.668+07:00,3.040,0,0,0
1783265544668712300,2026-07-05T22:32:24.668+07:00,3.040,0,0,0
1783265544668712300,2026-07-05T22:32:24.668+07:00,3.040,0,0,0
1783265544703932300,2026-07-05T22:32:24.703+07:00,3.075,0,0,0
1783265544703932300,2026-07-05T22:32:24.703+07:00,3.075,0,0,0
1783265544703932300,2026-07-05T22:32:24.703+07:00,3.075,0,0,0
1783265544703932300,2026-07-05T22:32:24.703+07:00,3.075,0,0,0
1783265544703932300,2026-07-05T22:32:24.703+07:00,3.075,0,0,0
1783265544703932300,2026-07-05T22:32:24.703+07:00,3.075,0,0,0
1783265544703932300,2026-07-05T22:32:24.703+07:00,3.075,331074,341402,0
1783265544703932300,2026-07-05T22:32:24.703+07:00,3.075,330994,341487,0
1783265544703932300,2026-07-05T22:32:24.703+07:00,3.075,1149987,1078382,0
1783265544703932300,2026-07-05T22:32:24.703+07:00,3.075,1149987,1149987,0
1783265544703932300,2026-07-05T22:32:24.703+07:00,3.075,1149987,1078382,0
1783265544703932300,2026-07-05T22:32:24.703+07:00,3.075,1149987,1149987,0
1783265544703932300,2026-07-05T22:32:24.703+07:00,3.075,1149987,1078113,0
1783265544703932300,2026-07-05T22:32:24.703+07:00,3.075,1149987,1149987,0
1783265544703932300,2026-07-05T22:32:24.703+07:00,3.075,1149987,1078113,0
1783265544748674900,2026-07-05T22:32:24.748+07:00,3.120,1149987,1149987,0
1783265544748674900,2026-07-05T22:32:24.748+07:00,3.120,1149700,1078382,0
1783265544748674900,2026-07-05T22:32:24.748+07:00,3.120,1149987,1149987,0
1783265544748674900,2026-07-05T22:32:24.748+07:00,3.120,1149987,1078382,0
1783265544748674900,2026-07-05T22:32:24.748+07:00,3.120,1149987,1149987,0
1783265544748674900,2026-07-05T22:32:24.748+07:00,3.120,1149987,1078113,0
1783265544748674900,2026-07-05T22:32:24.748+07:00,3.120,1149700,1149987,0
1783265544748674900,2026-07-05T22:32:24.748+07:00,3.120,1149987,1078113,0
1783265544748674900,2026-07-05T22:32:24.748+07:00,3.120,1149987,1149987,0
1783265544748674900,2026-07-05T22:32:24.748+07:00,3.120,1149987,1078113,0
1783265544748674900,2026-07-05T22:32:24.748+07:00,3.120,1149987,1150274,0
1783265544748674900,2026-07-05T22:32:24.748+07:00,3.120,1149700,1078113,0
1783265544748674900,2026-07-05T22:32:24.748+07:00,3.120,1149700,1149987,0
1783265544748674900,2026-07-05T22:32:24.748+07:00,3.120,1149987,1078113,0
1783265544748674900,2026-07-05T22:32:24.748+07:00,3.120,1149987,1149987,0
1783265544748674900,2026-07-05T22:32:24.748+07:00,3.120,1149987,1078382,0
1783265544748674900,2026-07-05T22:32:24.748+07:00,3.120,1149987,1149987,0
1783265544750722800,2026-07-05T22:32:24.750+07:00,3.122,1149700,1077844,0
1783265544794501800,2026-07-05T22:32:24.794+07:00,3.166,1150274,1149987,0
1783265544794501800,2026-07-05T22:32:24.794+07:00,3.166,1149700,1078113,0
1783265544794501800,2026-07-05T22:32:24.794+07:00,3.166,1149987,1149987,0
1783265544794501800,2026-07-05T22:32:24.794+07:00,3.166,1149987,1078113,0
1783265544794501800,2026-07-05T22:32:24.794+07:00,3.166,1149987,1149700,0
1783265544794501800,2026-07-05T22:32:24.794+07:00,3.166,1149700,1077844,0
1783265544794501800,2026-07-05T22:32:24.794+07:00,3.166,1149700,1149987,0
1783265544794501800,2026-07-05T22:32:24.794+07:00,3.166,1149987,1078113,0
1783265544794501800,2026-07-05T22:32:24.794+07:00,3.166,1149987,1149987,0
1783265544794501800,2026-07-05T22:32:24.794+07:00,3.166,1149700,1078113,0
1783265544794501800,2026-07-05T22:32:24.794+07:00,3.166,1149987,1150274,0
1783265544794501800,2026-07-05T22:32:24.794+07:00,3.166,1149987,1078113,0
1783265544794501800,2026-07-05T22:32:24.794+07:00,3.166,1149987,1150274,0
1783265544794501800,2026-07-05T22:32:24.794+07:00,3.166,0,0,0
1783265544794501800,2026-07-05T22:32:24.794+07:00,3.166,0,0,0
1783265544794501800,2026-07-05T22:32:24.794+07:00,3.166,0,0,0
1783265544794501800,2026-07-05T22:32:24.794+07:00,3.166,0,0,0
1783265544834137600,2026-07-05T22:32:24.834+07:00,3.206,0,0,0
1783265544834137600,2026-07-05T22:32:24.834+07:00,3.206,0,0,0
1783265544834137600,2026-07-05T22:32:24.834+07:00,3.206,0,0,0
1783265544834137600,2026-07-05T22:32:24.834+07:00,3.206,0,0,0
1783265544834137600,2026-07-05T22:32:24.834+07:00,3.206,0,0,0
1783265544834137600,2026-07-05T22:32:24.834+07:00,3.206,0,0,0
1783265544834137600,2026-07-05T22:32:24.834+07:00,3.206,0,0,0
1783265544834137600,2026-07-05T22:32:24.834+07:00,3.206,0,0,0
1783265544838617700,2026-07-05T22:32:24.838+07:00,3.210,0,0,0
1783265544838617700,2026-07-05T22:32:24.838+07:00,3.210,0,0,0
1783265544838617700,2026-07-05T22:32:24.838+07:00,3.210,0,0,0
1783265544838617700,2026-07-05T22:32:24.838+07:00,3.210,0,0,0
1783265544838617700,2026-07-05T22:32:24.838+07:00,3.210,0,0,0
1783265544838617700,2026-07-05T22:32:24.838+07:00,3.210,0,0,0
1783265544838617700,2026-07-05T22:32:24.838+07:00,3.210,0,0,0
1783265544838617700,2026-07-05T22:32:24.838+07:00,3.210,0,0,0
1783265544838617700,2026-07-05T22:32:24.838+07:00,3.210,0,0,0
1783265544878943700,2026-07-05T22:32:24.878+07:00,3.250,0,0,0
1783265544878943700,2026-07-05T22:32:24.878+07:00,3.250,0,0,0
1783265544878943700,2026-07-05T22:32:24.878+07:00,3.250,0,0,0
1783265544878943700,2026-07-05T22:32:24.878+07:00,3.250,0,0,0
1783265544878943700,2026-07-05T22:32:24.878+07:00,3.250,0,0,0
1783265544878943700,2026-07-05T22:32:24.878+07:00,3.250,0,0,0
1783265544878943700,2026-07-05T22:32:24.878+07:00,3.250,0,0,0
1783265544878943700,2026-07-05T22:32:24.878+07:00,3.250,0,0,0
1783265544878943700,2026-07-05T22:32:24.878+07:00,3.250,0,0,0
1783265544878943700,2026-07-05T22:32:24.878+07:00,3.250,0,0,0
1783265544878943700,2026-07-05T22:32:24.878+07:00,3.250,0,0,0
1783265544878943700,2026-07-05T22:32:24.878+07:00,3.250,0,0,0
1783265544878943700,2026-07-05T22:32:24.878+07:00,3.250,0,0,0
1783265544878943700,2026-07-05T22:32:24.878+07:00,3.250,0,0,0
1783265544878943700,2026-07-05T22:32:24.878+07:00,3.250,0,0,0
1783265544878943700,2026-07-05T22:32:24.878+07:00,3.250,0,0,0
1783265544878943700,2026-07-05T22:32:24.878+07:00,3.250,0,0,0
1783265544913706900,2026-07-05T22:32:24.913+07:00,3.285,0,0,0
1783265544913706900,2026-07-05T22:32:24.913+07:00,3.285,0,0,0
1783265544913706900,2026-07-05T22:32:24.913+07:00,3.285,331074,340044,0
1783265544913706900,2026-07-05T22:32:24.913+07:00,3.285,330994,339706,0
1783265544913706900,2026-07-05T22:32:24.913+07:00,3.285,1149987,1120077,0
1783265544913706900,2026-07-05T22:32:24.913+07:00,3.285,1149987,1111969,0
1783265544913706900,2026-07-05T22:32:24.913+07:00,3.285,1149700,1106628,0
1783265544913706900,2026-07-05T22:32:24.913+07:00,3.285,1149987,1102128,0
1783265544913706900,2026-07-05T22:32:24.913+07:00,3.285,1150274,1098712,0
1783265544913706900,2026-07-05T22:32:24.913+07:00,3.285,1150274,1098188,0
1783265544913706900,2026-07-05T22:32:24.913+07:00,3.285,1149987,1098450,0
1783265544913706900,2026-07-05T22:32:24.913+07:00,3.285,1149987,1099236,0
1783265544913706900,2026-07-05T22:32:24.913+07:00,3.285,1149987,1099761,0
1783265544913706900,2026-07-05T22:32:24.913+07:00,3.285,1149987,1100812,0
1783265544913706900,2026-07-05T22:32:24.913+07:00,3.285,1149987,1104771,0
1783265544959586000,2026-07-05T22:32:24.959+07:00,3.331,1149987,1105301,0
1783265544959586000,2026-07-05T22:32:24.959+07:00,3.331,1149987,1107692,0
1783265544959586000,2026-07-05T22:32:24.959+07:00,3.331,1149987,1111164,0
1783265544959586000,2026-07-05T22:32:24.959+07:00,3.331,1149987,1114928,0
1783265544960587100,2026-07-05T22:32:24.960+07:00,3.332,1150274,1118989,0
1783265544960587100,2026-07-05T22:32:24.960+07:00,3.332,1149987,1123080,0
1783265544960587100,2026-07-05T22:32:24.960+07:00,3.332,1149987,1127201,0
1783265544960587100,2026-07-05T22:32:24.960+07:00,3.332,1150274,1131075,0
1783265544960587100,2026-07-05T22:32:24.960+07:00,3.332,1150274,1133579,0
1783265544960587100,2026-07-05T22:32:24.960+07:00,3.332,1149987,1136655,0
1783265544960587100,2026-07-05T22:32:24.960+07:00,3.332,1149987,1139184,0
1783265544960587100,2026-07-05T22:32:24.960+07:00,3.332,1149987,1141158,0
1783265544960587100,2026-07-05T22:32:24.960+07:00,3.332,1149700,1143140,0
1783265544960587100,2026-07-05T22:32:24.960+07:00,3.332,1149987,1145413,0
1783265544960587100,2026-07-05T22:32:24.960+07:00,3.332,1149700,1147124,0
1783265544960587100,2026-07-05T22:32:24.960+07:00,3.332,1149987,1148268,0
1783265544960587100,2026-07-05T22:32:24.960+07:00,3.332,1149987,1148268,0
1783265545000345800,2026-07-05T22:32:25.000+07:00,3.372,1149987,1148840,0
1783265545000345800,2026-07-05T22:32:25.000+07:00,3.372,1149987,1148554,0
1783265545000345800,2026-07-05T22:32:25.000+07:00,3.372,1149987,1148840,0
1783265545000345800,2026-07-05T22:32:25.000+07:00,3.372,1149987,1149127,0
1783265545000345800,2026-07-05T22:32:25.000+07:00,3.372,1149700,1148840,0
1783265545000345800,2026-07-05T22:32:25.000+07:00,3.372,1149987,1149700,0
1783265545000345800,2026-07-05T22:32:25.000+07:00,3.372,1149987,1077575,0
1783265545000345800,2026-07-05T22:32:25.000+07:00,3.372,1149987,1149987,0
1783265545000345800,2026-07-05T22:32:25.000+07:00,3.372,1149700,1149700,0
1783265545000345800,2026-07-05T22:32:25.000+07:00,3.372,1149700,1149700,0
1783265545000345800,2026-07-05T22:32:25.000+07:00,3.372,0,0,0
1783265545000345800,2026-07-05T22:32:25.000+07:00,3.372,0,0,0
1783265545000345800,2026-07-05T22:32:25.000+07:00,3.372,0,0,0
1783265545000345800,2026-07-05T22:32:25.000+07:00,3.372,0,0,0
1783265545000345800,2026-07-05T22:32:25.000+07:00,3.372,0,0,0
1783265545000345800,2026-07-05T22:32:25.000+07:00,3.372,0,0,0
1783265545000345800,2026-07-05T22:32:25.000+07:00,3.372,0,0,0
1783265545045911800,2026-07-05T22:32:25.045+07:00,3.417,0,0,0
1783265545045911800,2026-07-05T22:32:25.045+07:00,3.417,0,0,0
1783265545045911800,2026-07-05T22:32:25.045+07:00,3.417,0,0,0
1783265545045911800,2026-07-05T22:32:25.045+07:00,3.417,0,0,0
1783265545045911800,2026-07-05T22:32:25.045+07:00,3.417,0,0,0
1783265545045911800,2026-07-05T22:32:25.045+07:00,3.417,0,0,0
1783265545045911800,2026-07-05T22:32:25.045+07:00,3.417,0,0,0
1783265545045911800,2026-07-05T22:32:25.045+07:00,3.417,0,0,0
1783265545045911800,2026-07-05T22:32:25.045+07:00,3.417,0,0,0
1783265545045911800,2026-07-05T22:32:25.045+07:00,3.417,0,0,0
1783265545045911800,2026-07-05T22:32:25.045+07:00,3.417,0,0,0
1783265545045911800,2026-07-05T22:32:25.045+07:00,3.417,0,0,0
1783265545045911800,2026-07-05T22:32:25.045+07:00,3.417,0,0,0
1783265545045911800,2026-07-05T22:32:25.045+07:00,3.417,0,0,0
1783265545045911800,2026-07-05T22:32:25.045+07:00,3.417,0,0,0
1783265545045911800,2026-07-05T22:32:25.045+07:00,3.417,0,0,0
1783265545045911800,2026-07-05T22:32:25.045+07:00,3.417,0,0,0
1783265545078457900,2026-07-05T22:32:25.078+07:00,3.450,0,0,0
1783265545078457900,2026-07-05T22:32:25.078+07:00,3.450,0,0,0
1783265545078457900,2026-07-05T22:32:25.078+07:00,3.450,0,0,0
1783265545078457900,2026-07-05T22:32:25.078+07:00,3.450,0,0,0
1783265545078457900,2026-07-05T22:32:25.078+07:00,3.450,0,0,0
1783265545078457900,2026-07-05T22:32:25.078+07:00,3.450,0,0,0
1783265545078457900,2026-07-05T22:32:25.078+07:00,3.450,0,0,0
1783265545078457900,2026-07-05T22:32:25.078+07:00,3.450,0,0,0
1783265545078457900,2026-07-05T22:32:25.078+07:00,3.450,0,0,0
1783265545078457900,2026-07-05T22:32:25.078+07:00,3.450,0,0,0
1783265545078457900,2026-07-05T22:32:25.078+07:00,3.450,0,0,0
1783265545078457900,2026-07-05T22:32:25.078+07:00,3.450,0,0,0
1783265545078457900,2026-07-05T22:32:25.078+07:00,3.450,0,0,0
1783265545078457900,2026-07-05T22:32:25.078+07:00,3.450,0,0,0
1783265545078457900,2026-07-05T22:32:25.078+07:00,3.450,0,0,0
1783265545078457900,2026-07-05T22:32:25.078+07:00,3.450,0,0,0
1783265545122787300,2026-07-05T22:32:25.122+07:00,3.494,331074,340977,0
1783265545122787300,2026-07-05T22:32:25.122+07:00,3.494,331074,341658,0
1783265545122787300,2026-07-05T22:32:25.122+07:00,3.494,1149987,603071,0
1783265545122787300,2026-07-05T22:32:25.122+07:00,3.494,1149987,593542,0
1783265545122787300,2026-07-05T22:32:25.122+07:00,3.494,1149987,583652,0
1783265545122787300,2026-07-05T22:32:25.122+07:00,3.494,1149700,575137,0
1783265545122787300,2026-07-05T22:32:25.122+07:00,3.494,1149987,566510,0
1783265545122787300,2026-07-05T22:32:25.122+07:00,3.494,1149987,559223,0
1783265545122787300,2026-07-05T22:32:25.122+07:00,3.494,1149700,554379,0
1783265545122787300,2026-07-05T22:32:25.122+07:00,3.494,1149987,558410,0
1783265545122787300,2026-07-05T22:32:25.122+07:00,3.494,1149987,560993,0
1783265545122787300,2026-07-05T22:32:25.122+07:00,3.494,1149987,563738,0
1783265545122787300,2026-07-05T22:32:25.122+07:00,3.494,1149987,567068,0
1783265545122787300,2026-07-05T22:32:25.122+07:00,3.494,1150274,570579,0
1783265545122787300,2026-07-05T22:32:25.122+07:00,3.494,1149987,575280,0
1783265545122787300,2026-07-05T22:32:25.122+07:00,3.494,1150274,578184,0
1783265545122787300,2026-07-05T22:32:25.122+07:00,3.494,1149700,579476,0
1783265545168664600,2026-07-05T22:32:25.168+07:00,3.540,1150274,579736,0
1783265545170438600,2026-07-05T22:32:25.170+07:00,3.542,1149987,579476,0
1783265545170438600,2026-07-05T22:32:25.170+07:00,3.542,1149700,578959,0
1783265545170438600,2026-07-05T22:32:25.170+07:00,3.542,1149987,579347,0
1783265545170438600,2026-07-05T22:32:25.170+07:00,3.542,1149987,579606,0
1783265545170438600,2026-07-05T22:32:25.170+07:00,3.542,1149987,579865,0
1783265545170438600,2026-07-05T22:32:25.170+07:00,3.542,1149700,580125,0
1783265545170438600,2026-07-05T22:32:25.170+07:00,3.542,1149987,580255,0
1783265545170438600,2026-07-05T22:32:25.170+07:00,3.542,1149987,580515,0
1783265545170438600,2026-07-05T22:32:25.170+07:00,3.542,1149987,581165,0
1783265545170438600,2026-07-05T22:32:25.170+07:00,3.542,1149987,582079,0
1783265545170438600,2026-07-05T22:32:25.170+07:00,3.542,1149700,582733,0
1783265545170438600,2026-07-05T22:32:25.170+07:00,3.542,1149700,583127,0
1783265545170438600,2026-07-05T22:32:25.170+07:00,3.542,1149987,583258,0
1783265545170438600,2026-07-05T22:32:25.170+07:00,3.542,1149987,583127,0
1783265545170438600,2026-07-05T22:32:25.170+07:00,3.542,1149987,582995,0
1783265545170438600,2026-07-05T22:32:25.170+07:00,3.542,1150274,583127,0
1783265545212742300,2026-07-05T22:32:25.212+07:00,3.584,1149700,582995,0
1783265545212742300,2026-07-05T22:32:25.212+07:00,3.584,1149987,582995,0
1783265545212742300,2026-07-05T22:32:25.212+07:00,3.584,1149987,583127,0
1783265545212742300,2026-07-05T22:32:25.212+07:00,3.584,1149987,583389,0
1783265545212742300,2026-07-05T22:32:25.212+07:00,3.584,1149987,584046,0
1783265545212742300,2026-07-05T22:32:25.212+07:00,3.584,1149987,584178,0
1783265545212742300,2026-07-05T22:32:25.212+07:00,3.584,0,0,0
1783265545212742300,2026-07-05T22:32:25.212+07:00,3.584,0,0,0
1783265545212742300,2026-07-05T22:32:25.212+07:00,3.584,0,0,0
1783265545212742300,2026-07-05T22:32:25.212+07:00,3.584,0,0,0
1783265545212742300,2026-07-05T22:32:25.212+07:00,3.584,0,0,0
1783265545212742300,2026-07-05T22:32:25.212+07:00,3.584,0,0,0
1783265545212742300,2026-07-05T22:32:25.212+07:00,3.584,0,0,0
1783265545212742300,2026-07-05T22:32:25.212+07:00,3.584,0,0,0
1783265545212742300,2026-07-05T22:32:25.212+07:00,3.584,0,0,0
1783265545212742300,2026-07-05T22:32:25.212+07:00,3.584,0,0,0
1783265545212742300,2026-07-05T22:32:25.212+07:00,3.584,0,0,0
1783265545250967700,2026-07-05T22:32:25.250+07:00,3.622,0,0,0
1783265545250967700,2026-07-05T22:32:25.250+07:00,3.622,0,0,0
1783265545250967700,2026-07-05T22:32:25.250+07:00,3.622,0,0,0
1783265545250967700,2026-07-05T22:32:25.250+07:00,3.622,0,0,0
1783265545250967700,2026-07-05T22:32:25.250+07:00,3.622,0,0,0
1783265545250967700,2026-07-05T22:32:25.250+07:00,3.622,0,0,0
1783265545250967700,2026-07-05T22:32:25.250+07:00,3.622,0,0,0
1783265545250967700,2026-07-05T22:32:25.250+07:00,3.622,0,0,0
1783265545250967700,2026-07-05T22:32:25.250+07:00,3.622,0,0,0
1783265545250967700,2026-07-05T22:32:25.250+07:00,3.622,0,0,0
1783265545250967700,2026-07-05T22:32:25.250+07:00,3.622,0,0,0
1783265545250967700,2026-07-05T22:32:25.250+07:00,3.622,0,0,0
1783265545250967700,2026-07-05T22:32:25.250+07:00,3.622,0,0,0
1783265545250967700,2026-07-05T22:32:25.250+07:00,3.622,0,0,0
1783265545250967700,2026-07-05T22:32:25.250+07:00,3.622,0,0,0
1783265545250967700,2026-07-05T22:32:25.250+07:00,3.622,0,0,0
1783265545250967700,2026-07-05T22:32:25.250+07:00,3.622,0,0,0
1783265545288784700,2026-07-05T22:32:25.288+07:00,3.660,0,0,0
1783265545288784700,2026-07-05T22:32:25.288+07:00,3.660,0,0,0
1783265545288784700,2026-07-05T22:32:25.288+07:00,3.660,0,0,0
1783265545288784700,2026-07-05T22:32:25.288+07:00,3.660,0,0,0
1783265545288784700,2026-07-05T22:32:25.288+07:00,3.660,0,0,0
1783265545288784700,2026-07-05T22:32:25.288+07:00,3.660,0,0,0
1783265545288784700,2026-07-05T22:32:25.288+07:00,3.660,0,0,0
1783265545288784700,2026-07-05T22:32:25.288+07:00,3.660,0,0,0
1783265545288784700,2026-07-05T22:32:25.288+07:00,3.660,0,0,0
1783265545288784700,2026-07-05T22:32:25.288+07:00,3.660,0,0,0
1783265545288784700,2026-07-05T22:32:25.288+07:00,3.660,0,0,0
1783265545288784700,2026-07-05T22:32:25.288+07:00,3.660,0,0,0
1783265545288784700,2026-07-05T22:32:25.288+07:00,3.660,331074,339033,0
1783265545288784700,2026-07-05T22:32:25.288+07:00,3.660,331074,339201,0
1783265545288784700,2026-07-05T22:32:25.288+07:00,3.660,1149700,775330,0
1783265545334346800,2026-07-05T22:32:25.334+07:00,3.706,1150274,797968,0
1783265545334346800,2026-07-05T22:32:25.334+07:00,3.706,1149700,818957,0
1783265545334346800,2026-07-05T22:32:25.334+07:00,3.706,1149987,839650,0
1783265545334346800,2026-07-05T22:32:25.334+07:00,3.706,1149987,863136,0
1783265545334346800,2026-07-05T22:32:25.334+07:00,3.706,1149987,885525,0
1783265545334346800,2026-07-05T22:32:25.334+07:00,3.706,1149987,908517,0
1783265545334346800,2026-07-05T22:32:25.334+07:00,3.706,1149987,932038,0
1783265545334346800,2026-07-05T22:32:25.334+07:00,3.706,1149700,962061,0
1783265545334346800,2026-07-05T22:32:25.334+07:00,3.706,1149700,986784,0
1783265545334346800,2026-07-05T22:32:25.334+07:00,3.706,1149700,1012420,0
1783265545334346800,2026-07-05T22:32:25.334+07:00,3.706,1149700,1032998,0
1783265545334346800,2026-07-05T22:32:25.334+07:00,3.706,1149700,1050072,0
1783265545334346800,2026-07-05T22:32:25.334+07:00,3.706,1149700,1060122,0
1783265545334346800,2026-07-05T22:32:25.334+07:00,3.706,1149987,1069306,0
1783265545334346800,2026-07-05T22:32:25.334+07:00,3.706,1149700,1074092,0
1783265545334346800,2026-07-05T22:32:25.334+07:00,3.706,1149987,1077844,0
1783265545334346800,2026-07-05T22:32:25.334+07:00,3.706,1149700,1082706,0
1783265545368363800,2026-07-05T22:32:25.368+07:00,3.740,1149987,1086536,0
1783265545368363800,2026-07-05T22:32:25.368+07:00,3.740,1149987,1086792,0
1783265545368363800,2026-07-05T22:32:25.368+07:00,3.740,1149987,1089877,0
1783265545368363800,2026-07-05T22:32:25.368+07:00,3.740,1149987,1089619,0
1783265545368363800,2026-07-05T22:32:25.368+07:00,3.740,1149987,1092460,0
1783265545368363800,2026-07-05T22:32:25.368+07:00,3.740,1150274,1092460,0
1783265545368363800,2026-07-05T22:32:25.368+07:00,3.740,1149987,1093497,0
1783265545368363800,2026-07-05T22:32:25.368+07:00,3.740,1150274,1095317,0
1783265545368363800,2026-07-05T22:32:25.368+07:00,3.740,1149700,1099236,0
1783265545368363800,2026-07-05T22:32:25.368+07:00,3.740,1149987,1098450,0
1783265545368363800,2026-07-05T22:32:25.368+07:00,3.740,1150274,1098188,0
1783265545368363800,2026-07-05T22:32:25.368+07:00,3.740,1150274,1097927,0
1783265545368363800,2026-07-05T22:32:25.368+07:00,3.740,1149987,1096620,0
1783265545368363800,2026-07-05T22:32:25.368+07:00,3.740,1149700,1091684,0
1783265545368363800,2026-07-05T22:32:25.368+07:00,3.740,1150274,1088332,0
1783265545368363800,2026-07-05T22:32:25.368+07:00,3.740,1149987,1085256,0
1783265545368363800,2026-07-05T22:32:25.368+07:00,3.740,1149700,1083725,0
1783265545418447900,2026-07-05T22:32:25.418+07:00,3.790,1149987,1078921,0
1783265545418447900,2026-07-05T22:32:25.418+07:00,3.790,1150274,1077038,0
1783265545418447900,2026-07-05T22:32:25.418+07:00,3.790,1149987,1071960,0
1783265545418447900,2026-07-05T22:32:25.418+07:00,3.790,0,0,0
1783265545418447900,2026-07-05T22:32:25.418+07:00,3.790,0,0,0
1783265545418447900,2026-07-05T22:32:25.418+07:00,3.790,0,0,0
1783265545418447900,2026-07-05T22:32:25.418+07:00,3.790,0,0,0
1783265545418447900,2026-07-05T22:32:25.418+07:00,3.790,0,0,0
1783265545418447900,2026-07-05T22:32:25.418+07:00,3.790,0,0,0
1783265545418447900,2026-07-05T22:32:25.418+07:00,3.790,0,0,0
1783265545418447900,2026-07-05T22:32:25.418+07:00,3.790,0,0,0
1783265545418447900,2026-07-05T22:32:25.418+07:00,3.790,0,0,0
1783265545418447900,2026-07-05T22:32:25.418+07:00,3.790,0,0,0
1783265545418447900,2026-07-05T22:32:25.418+07:00,3.790,0,0,0
1783265545418447900,2026-07-05T22:32:25.418+07:00,3.790,0,0,0
1783265545418447900,2026-07-05T22:32:25.418+07:00,3.790,0,0,0
1783265545418447900,2026-07-05T22:32:25.418+07:00,3.790,0,0,0
1783265545463212400,2026-07-05T22:32:25.463+07:00,3.835,0,0,0
1783265545463212400,2026-07-05T22:32:25.463+07:00,3.835,0,0,0
1783265545463212400,2026-07-05T22:32:25.463+07:00,3.835,0,0,0
1783265545463212400,2026-07-05T22:32:25.463+07:00,3.835,0,0,0
1783265545463212400,2026-07-05T22:32:25.463+07:00,3.835,0,0,0
1783265545463212400,2026-07-05T22:32:25.463+07:00,3.835,0,0,0
1783265545463212400,2026-07-05T22:32:25.463+07:00,3.835,0,0,0
1783265545463212400,2026-07-05T22:32:25.463+07:00,3.835,0,0,0
1783265545463212400,2026-07-05T22:32:25.463+07:00,3.835,0,0,0
1783265545463212400,2026-07-05T22:32:25.463+07:00,3.835,0,0,0
1783265545463212400,2026-07-05T22:32:25.463+07:00,3.835,0,0,0
1783265545463212400,2026-07-05T22:32:25.463+07:00,3.835,0,0,0
1783265545463212400,2026-07-05T22:32:25.463+07:00,3.835,0,0,0
1783265545463212400,2026-07-05T22:32:25.463+07:00,3.835,0,0,0
1783265545463212400,2026-07-05T22:32:25.463+07:00,3.835,0,0,0
1783265545463212400,2026-07-05T22:32:25.463+07:00,3.835,0,0,0
1783265545463212400,2026-07-05T22:32:25.463+07:00,3.835,0,0,0
1783265545501628000,2026-07-05T22:32:25.501+07:00,3.873,0,0,0
1783265545501628000,2026-07-05T22:32:25.501+07:00,3.873,0,0,0
1783265545501628000,2026-07-05T22:32:25.501+07:00,3.873,0,0,0
1783265545501628000,2026-07-05T22:32:25.501+07:00,3.873,0,0,0
1783265545501628000,2026-07-05T22:32:25.501+07:00,3.873,0,0,0
1783265545501628000,2026-07-05T22:32:25.501+07:00,3.873,0,0,0
1783265545501628000,2026-07-05T22:32:25.501+07:00,3.873,0,0,0
1783265545501628000,2026-07-05T22:32:25.501+07:00,3.873,0,0,0
1783265545501628000,2026-07-05T22:32:25.501+07:00,3.873,0,0,0
1783265545501628000,2026-07-05T22:32:25.501+07:00,3.873,331074,341487,0
1783265545501628000,2026-07-05T22:32:25.501+07:00,3.873,331074,341402,0
1783265545501628000,2026-07-05T22:32:25.501+07:00,3.873,1149987,1150274,0
1783265545501628000,2026-07-05T22:32:25.501+07:00,3.873,1149987,1149987,0
1783265545501628000,2026-07-05T22:32:25.501+07:00,3.873,1150274,1149987,0
1783265545501628000,2026-07-05T22:32:25.501+07:00,3.873,1149987,1150274,0
1783265545501628000,2026-07-05T22:32:25.501+07:00,3.873,1149987,1149987,0
1783265545543526200,2026-07-05T22:32:25.543+07:00,3.915,1149700,1149987,0
1783265545543526200,2026-07-05T22:32:25.543+07:00,3.915,1149700,1149987,0
1783265545543526200,2026-07-05T22:32:25.543+07:00,3.915,1149987,1149987,0
1783265545543526200,2026-07-05T22:32:25.543+07:00,3.915,1149700,1150274,0
1783265545543526200,2026-07-05T22:32:25.543+07:00,3.915,1149987,1149987,0
1783265545543526200,2026-07-05T22:32:25.543+07:00,3.915,1149987,1149987,0
1783265545543526200,2026-07-05T22:32:25.543+07:00,3.915,1149700,1150274,0
1783265545543526200,2026-07-05T22:32:25.543+07:00,3.915,1149987,1150274,0
1783265545543526200,2026-07-05T22:32:25.543+07:00,3.915,1149987,1150274,0
1783265545543526200,2026-07-05T22:32:25.543+07:00,3.915,1150274,1149987,0
1783265545543526200,2026-07-05T22:32:25.543+07:00,3.915,1149987,1150274,0
1783265545543526200,2026-07-05T22:32:25.543+07:00,3.915,1150274,1149987,0
1783265545543526200,2026-07-05T22:32:25.543+07:00,3.915,1149700,1149987,0
1783265545543526200,2026-07-05T22:32:25.543+07:00,3.915,1149987,1149987,0
1783265545543526200,2026-07-05T22:32:25.543+07:00,3.915,1149987,1150274,0
1783265545543526200,2026-07-05T22:32:25.543+07:00,3.915,1149987,1149700,0
1783265545543526200,2026-07-05T22:32:25.543+07:00,3.915,1149987,1150274,0
1783265545580509200,2026-07-05T22:32:25.580+07:00,3.952,1149700,1149987,0
1783265545580509200,2026-07-05T22:32:25.580+07:00,3.952,1149700,1149987,0
1783265545580509200,2026-07-05T22:32:25.580+07:00,3.952,1149987,1149987,0
1783265545580509200,2026-07-05T22:32:25.580+07:00,3.952,1149987,1149987,0
1783265545580509200,2026-07-05T22:32:25.580+07:00,3.952,1149987,1149987,0
1783265545580509200,2026-07-05T22:32:25.580+07:00,3.952,1149987,658586,0
1783265545580509200,2026-07-05T22:32:25.580+07:00,3.952,417089,185487,0
1783265545580509200,2026-07-05T22:32:25.580+07:00,3.952,199584,102200,0
1783265545580509200,2026-07-05T22:32:25.580+07:00,3.952,162650,79635,0
1783265545580509200,2026-07-05T22:32:25.580+07:00,3.952,145724,67399,0
1783265545580509200,2026-07-05T22:32:25.580+07:00,3.952,133953,58524,0
1783265545580509200,2026-07-05T22:32:25.580+07:00,3.952,125217,51585,0
1783265545580509200,2026-07-05T22:32:25.580+07:00,3.952,118105,46198,0
1783265545580509200,2026-07-05T22:32:25.580+07:00,3.952,111046,42105,0
1783265545580509200,2026-07-05T22:32:25.580+07:00,3.952,105940,38961,0
1783265545580509200,2026-07-05T22:32:25.580+07:00,3.952,102091,36566,0
1783265545627855000,2026-07-05T22:32:25.627+07:00,3.999,0,0,0
1783265545628361500,2026-07-05T22:32:25.628+07:00,4.000,0,0,0
1783265545628361500,2026-07-05T22:32:25.628+07:00,4.000,0,0,0
1783265545628361500,2026-07-05T22:32:25.628+07:00,4.000,0,0,0
1783265545628361500,2026-07-05T22:32:25.628+07:00,4.000,0,0,0
1783265545628361500,2026-07-05T22:32:25.628+07:00,4.000,0,0,0
1783265545628361500,2026-07-05T22:32:25.628+07:00,4.000,0,0,0
1783265545628361500,2026-07-05T22:32:25.628+07:00,4.000,0,0,0
1783265545628361500,2026-07-05T22:32:25.628+07:00,4.000,0,0,0
1783265545628361500,2026-07-05T22:32:25.628+07:00,4.000,0,0,0
1783265545628361500,2026-07-05T22:32:25.628+07:00,4.000,0,0,0
1783265545628361500,2026-07-05T22:32:25.628+07:00,4.000,0,0,0
1783265545628361500,2026-07-05T22:32:25.628+07:00,4.000,0,0,0
1783265545628361500,2026-07-05T22:32:25.628+07:00,4.000,0,0,0
1783265545628361500,2026-07-05T22:32:25.628+07:00,4.000,0,0,0
1783265545628361500,2026-07-05T22:32:25.628+07:00,4.000,0,0,0
1783265545628361500,2026-07-05T22:32:25.628+07:00,4.000,0,0,0
1783265545670740400,2026-07-05T22:32:25.670+07:00,4.042,0,0,0
1783265545670740400,2026-07-05T22:32:25.670+07:00,4.042,0,0,0
1783265545670740400,2026-07-05T22:32:25.670+07:00,4.042,0,0,0
1783265545670740400,2026-07-05T22:32:25.670+07:00,4.042,0,0,0
1783265545670740400,2026-07-05T22:32:25.670+07:00,4.042,0,0,0
1783265545670740400,2026-07-05T22:32:25.670+07:00,4.042,0,0,0
1783265545670740400,2026-07-05T22:32:25.670+07:00,4.042,0,0,0
1783265545670740400,2026-07-05T22:32:25.670+07:00,4.042,0,0,0
1783265545670740400,2026-07-05T22:32:25.670+07:00,4.042,0,0,0
1783265545670740400,2026-07-05T22:32:25.670+07:00,4.042,0,0,0
1783265545670740400,2026-07-05T22:32:25.670+07:00,4.042,0,0,0
1783265545670740400,2026-07-05T22:32:25.670+07:00,4.042,0,0,0
1783265545670740400,2026-07-05T22:32:25.670+07:00,4.042,0,0,0
1783265545670740400,2026-07-05T22:32:25.670+07:00,4.042,0,0,0
1783265545670740400,2026-07-05T22:32:25.670+07:00,4.042,0,0,0
1783265545670740400,2026-07-05T22:32:25.670+07:00,4.042,0,0,0
1783265545670740400,2026-07-05T22:32:25.670+07:00,4.042,0,0,0
1783265545706698700,2026-07-05T22:32:25.706+07:00,4.078,0,0,0
1783265545706698700,2026-07-05T22:32:25.706+07:00,4.078,0,0,0
1783265545706698700,2026-07-05T22:32:25.706+07:00,4.078,0,0,0
1783265545706698700,2026-07-05T22:32:25.706+07:00,4.078,0,0,0
1783265545706698700,2026-07-05T22:32:25.706+07:00,4.078,0,0,0
1783265545706698700,2026-07-05T22:32:25.706+07:00,4.078,0,0,0
1783265545706698700,2026-07-05T22:32:25.706+07:00,4.078,99356,34959,0
1783265545706698700,2026-07-05T22:32:25.706+07:00,4.078,100106,35883,0
1783265545706698700,2026-07-05T22:32:25.706+07:00,4.078,100805,36455,0
1783265545706698700,2026-07-05T22:32:25.706+07:00,4.078,101123,36579,0
1783265545706698700,2026-07-05T22:32:25.706+07:00,4.078,101319,36753,0
1783265545706698700,2026-07-05T22:32:25.706+07:00,4.078,101533,36891,0
1783265545706698700,2026-07-05T22:32:25.706+07:00,4.078,101766,36998,0
1783265545706698700,2026-07-05T22:32:25.706+07:00,4.078,102001,37100,0
1783265545706698700,2026-07-05T22:32:25.706+07:00,4.078,102200,37273,0
1783265545748580500,2026-07-05T22:32:25.748+07:00,4.120,102454,37454,0
1783265545748580500,2026-07-05T22:32:25.748+07:00,4.120,102765,37624,0
1783265545748580500,2026-07-05T22:32:25.748+07:00,4.120,103041,37729,0
1783265545748580500,2026-07-05T22:32:25.748+07:00,4.120,103170,37821,0
1783265545748580500,2026-07-05T22:32:25.748+07:00,4.120,103374,38008,0
1783265545748580500,2026-07-05T22:32:25.748+07:00,4.120,103578,38142,0
1783265545748580500,2026-07-05T22:32:25.748+07:00,4.120,103783,38243,0
1783265545748580500,2026-07-05T22:32:25.748+07:00,4.120,103989,38406,0
1783265545748580500,2026-07-05T22:32:25.748+07:00,4.120,104215,38571,0
1783265545748580500,2026-07-05T22:32:25.748+07:00,4.120,104480,38744,0
1783265545748580500,2026-07-05T22:32:25.748+07:00,4.120,104727,38862,0
1783265545748580500,2026-07-05T22:32:25.748+07:00,4.120,104860,38961,0
1783265545748580500,2026-07-05T22:32:25.748+07:00,4.120,104975,39059,0
1783265545748580500,2026-07-05T22:32:25.748+07:00,4.120,105147,39158,0
1783265545748580500,2026-07-05T22:32:25.748+07:00,4.120,105282,39215,0
1783265545748580500,2026-07-05T22:32:25.748+07:00,4.120,105436,39344,0
1783265545748580500,2026-07-05T22:32:25.748+07:00,4.120,105688,39488,0
1783265545789120200,2026-07-05T22:32:25.789+07:00,4.161,105843,39618,0
1783265545789120200,2026-07-05T22:32:25.789+07:00,4.161,105999,39713,0
1783265545789120200,2026-07-05T22:32:25.789+07:00,4.161,106018,39735,0
1783265545789120200,2026-07-05T22:32:25.789+07:00,4.161,106116,39815,0
1783265545789120200,2026-07-05T22:32:25.789+07:00,4.161,106214,39867,0
1783265545789120200,2026-07-05T22:32:25.789+07:00,4.161,106371,39926,0
1783265545789120200,2026-07-05T22:32:25.789+07:00,4.161,106469,40000,0
1783265545789120200,2026-07-05T22:32:25.789+07:00,4.161,106627,40133,0
1783265545789120200,2026-07-05T22:32:25.789+07:00,4.161,106745,40285,0
1783265545789120200,2026-07-05T22:32:25.789+07:00,4.161,106904,40274,0
1783265545789120200,2026-07-05T22:32:25.789+07:00,4.161,106824,40285,0
1783265545789120200,2026-07-05T22:32:25.789+07:00,4.161,106824,40257,0
1783265545789120200,2026-07-05T22:32:25.789+07:00,4.161,106864,40268,0
1783265545789120200,2026-07-05T22:32:25.789+07:00,4.161,106824,40217,0
1783265545789120200,2026-07-05T22:32:25.789+07:00,4.161,106844,40251,0
1783265545789120200,2026-07-05T22:32:25.789+07:00,4.161,106824,40262,0
1783265545789120200,2026-07-05T22:32:25.789+07:00,4.161,106884,40268,0
1783265545834650800,2026-07-05T22:32:25.834+07:00,4.206,106884,40240,0
1783265545834650800,2026-07-05T22:32:25.834+07:00,4.206,106745,40189,0
1783265545834650800,2026-07-05T22:32:25.834+07:00,4.206,106646,40150,0
1783265545834650800,2026-07-05T22:32:25.834+07:00,4.206,106587,40083,0
1783265545834650800,2026-07-05T22:32:25.834+07:00,4.206,106528,40016,0
1783265545834650800,2026-07-05T22:32:25.834+07:00,4.206,106449,40022,0
1783265545834650800,2026-07-05T22:32:25.834+07:00,4.206,106410,40033,0
1783265545834650800,2026-07-05T22:32:25.834+07:00,4.206,106390,40033,0
1783265545834650800,2026-07-05T22:32:25.834+07:00,4.206,106371,39988,0
1783265545834650800,2026-07-05T22:32:25.834+07:00,4.206,106194,39933,0
1783265545834650800,2026-07-05T22:32:25.834+07:00,4.206,106077,39815,0
1783265545834650800,2026-07-05T22:32:25.834+07:00,4.206,105999,39815,0
1783265545834650800,2026-07-05T22:32:25.834+07:00,4.206,105882,39757,0
1783265545834650800,2026-07-05T22:32:25.834+07:00,4.206,105823,39786,0
1783265545834650800,2026-07-05T22:32:25.834+07:00,4.206,105765,39786,0
1783265545834650800,2026-07-05T22:32:25.834+07:00,4.206,105726,39808,0
1783265545834650800,2026-07-05T22:32:25.834+07:00,4.206,105668,39793,0
1783265545873456800,2026-07-05T22:32:25.873+07:00,4.245,105552,39727,0
1783265545873456800,2026-07-05T22:32:25.873+07:00,4.245,105397,39727,0
1783265545873456800,2026-07-05T22:32:25.873+07:00,4.245,105282,39676,0
1783265545873456800,2026-07-05T22:32:25.873+07:00,4.245,105167,39611,0
1783265545873456800,2026-07-05T22:32:25.873+07:00,4.245,105071,39640,0
1783265545873456800,2026-07-05T22:32:25.873+07:00,4.245,104975,39647,0
1783265545873456800,2026-07-05T22:32:25.873+07:00,4.245,104975,39662,0
1783265545873456800,2026-07-05T22:32:25.873+07:00,4.245,104918,39676,0
1783265545873456800,2026-07-05T22:32:25.873+07:00,4.245,104689,39596,0
1783265545873456800,2026-07-05T22:32:25.873+07:00,4.245,104480,39567,0
1783265545873456800,2026-07-05T22:32:25.873+07:00,4.245,104366,39517,0
1783265545873456800,2026-07-05T22:32:25.873+07:00,4.245,104140,39394,0
1783265545873456800,2026-07-05T22:32:25.873+07:00,4.245,103896,39408,0
1783265545873456800,2026-07-05T22:32:25.873+07:00,4.245,103783,39365,0
1783265545873456800,2026-07-05T22:32:25.873+07:00,4.245,103578,39337,0
1783265545873456800,2026-07-05T22:32:25.873+07:00,4.245,103355,39329,0
1783265545873456800,2026-07-05T22:32:25.873+07:00,4.245,103114,39109,0
1783265545914056200,2026-07-05T22:32:25.914+07:00,4.286,102820,39109,0
1783265545914056200,2026-07-05T22:32:25.914+07:00,4.286,102692,39066,0
1783265545914056200,2026-07-05T22:32:25.914+07:00,4.286,102527,39003,0
1783265545914056200,2026-07-05T22:32:25.914+07:00,4.286,102436,39017,0
1783265545914056200,2026-07-05T22:32:25.914+07:00,4.286,102363,39066,0
1783265545914056200,2026-07-05T22:32:25.914+07:00,4.286,102327,39080,0
1783265545914056200,2026-07-05T22:32:25.914+07:00,4.286,102182,39080,0
1783265545914056200,2026-07-05T22:32:25.914+07:00,4.286,101983,38961,0
1783265545914056200,2026-07-05T22:32:25.914+07:00,4.286,101712,38890,0
1783265545914056200,2026-07-05T22:32:25.914+07:00,4.286,101497,38807,0
1783265545914056200,2026-07-05T22:32:25.914+07:00,4.286,101248,38654,0
1783265545914056200,2026-07-05T22:32:25.914+07:00,4.286,100964,38612,0
1783265545914056200,2026-07-05T22:32:25.914+07:00,4.286,100769,38592,0
1783265545914056200,2026-07-05T22:32:25.914+07:00,4.286,100646,38516,0
1783265545914056200,2026-07-05T22:32:25.914+07:00,4.286,100383,38468,0
1783265545914056200,2026-07-05T22:32:25.914+07:00,4.286,100104,38331,0
1783265545958767200,2026-07-05T22:32:25.958+07:00,4.330,99861,38196,0
1783265545958767200,2026-07-05T22:32:25.958+07:00,4.330,99550,38075,0
1783265545958767200,2026-07-05T22:32:25.958+07:00,4.330,99259,37834,0
1783265545958767200,2026-07-05T22:32:25.958+07:00,4.330,98952,37828,0
1783265545958767200,2026-07-05T22:32:25.958+07:00,4.330,98714,37729,0
1783265545958767200,2026-07-05T22:32:25.958+07:00,4.330,98528,37650,0
1783265545958767200,2026-07-05T22:32:25.958+07:00,4.330,98276,37591,0
1783265545958767200,2026-07-05T22:32:25.958+07:00,4.330,97942,37428,0
1783265545958767200,2026-07-05T22:32:25.958+07:00,4.330,97660,37305,0
1783265545958767200,2026-07-05T22:32:25.958+07:00,4.330,97346,37177,0
1783265545958767200,2026-07-05T22:32:25.958+07:00,4.330,97002,37011,0
1783265545958767200,2026-07-05T22:32:25.958+07:00,4.330,96692,36885,0
1783265545958767200,2026-07-05T22:32:25.958+07:00,4.330,96385,36803,0
1783265545958767200,2026-07-05T22:32:25.958+07:00,4.330,96080,36678,0
1783265545958767200,2026-07-05T22:32:25.958+07:00,4.330,95712,36566,0
1783265545958767200,2026-07-05T22:32:25.958+07:00,4.330,95222,36339,0
1783265545958767200,2026-07-05T22:32:25.958+07:00,4.330,94736,36138,0
1783265546001680800,2026-07-05T22:32:26.001+07:00,4.373,94225,35928,0
1783265546001680800,2026-07-05T22:32:26.001+07:00,4.373,93689,35696,0
1783265546001680800,2026-07-05T22:32:26.001+07:00,4.373,93053,35529,0
1783265546001680800,2026-07-05T22:32:26.001+07:00,4.373,92411,35320,0
1783265546001680800,2026-07-05T22:32:26.001+07:00,4.373,91632,35070,0
1783265546001680800,2026-07-05T22:32:26.001+07:00,4.373,91009,34959,0
1783265546001680800,2026-07-05T22:32:26.001+07:00,4.373,90665,34757,0
1783265546001680800,2026-07-05T22:32:26.001+07:00,4.373,90423,34698,0
1783265546001680800,2026-07-05T22:32:26.001+07:00,4.373,90211,34648,0
1783265546001680800,2026-07-05T22:32:26.001+07:00,4.373,90000,34590,0
1783265546001680800,2026-07-05T22:32:26.001+07:00,4.373,89747,34557,0
1783265546001680800,2026-07-05T22:32:26.001+07:00,4.373,89538,34565,0
1783265546001680800,2026-07-05T22:32:26.001+07:00,4.373,89371,34524,0
1783265546001680800,2026-07-05T22:32:26.001+07:00,4.373,89095,34482,0
1783265546001680800,2026-07-05T22:32:26.001+07:00,4.373,88834,34359,0
1783265546001680800,2026-07-05T22:32:26.001+07:00,4.373,88588,34334,0
1783265546001680800,2026-07-05T22:32:26.001+07:00,4.373,88397,34285,0
1783265546041550700,2026-07-05T22:32:26.041+07:00,4.413,88262,34236,0
1783265546041550700,2026-07-05T22:32:26.041+07:00,4.413,88167,34318,0
1783265546041550700,2026-07-05T22:32:26.041+07:00,4.413,88140,34383,0
1783265546041550700,2026-07-05T22:32:26.041+07:00,4.413,88181,34441,0
1783265546041550700,2026-07-05T22:32:26.041+07:00,4.413,88167,34540,0
1783265546041550700,2026-07-05T22:32:26.041+07:00,4.413,88154,34515,0
1783265546041550700,2026-07-05T22:32:26.041+07:00,4.413,88154,34582,0
1783265546041550700,2026-07-05T22:32:26.041+07:00,4.413,88154,34623,0
1783265546041550700,2026-07-05T22:32:26.041+07:00,4.413,88154,34615,0
1783265546041550700,2026-07-05T22:32:26.041+07:00,4.413,88167,34715,0
1783265546041550700,2026-07-05T22:32:26.041+07:00,4.413,88248,34824,0
1783265546041550700,2026-07-05T22:32:26.041+07:00,4.413,88330,34909,0
1783265546041550700,2026-07-05T22:32:26.041+07:00,4.413,88370,34985,0
1783265546041550700,2026-07-05T22:32:26.041+07:00,4.413,88411,34993,0
