host_timestamp_ns,host_timestamp_iso,elapsed_s,red,infrared,background
1783775913713086131,2026-07-11T20:18:33.713+07:00,0.049,65858,34034,0
1783775913713086132,2026-07-11T20:18:33.713+07:00,0.049,65858,34034,0
1783775913713086133,2026-07-11T20:18:33.713+07:00,0.049,65964,34107,0
1783775913713086134,2026-07-11T20:18:33.713+07:00,0.049,65979,34171,0
1783775913713086135,2026-07-11T20:18:33.713+07:00,0.049,66009,34220,0
1783775913713086136,2026-07-11T20:18:33.713+07:00,0.049,66100,34269,0
1783775913713086137,2026-07-11T20:18:33.713+07:00,0.049,66130,34293,0
1783775913713086138,2026-07-11T20:18:33.713+07:00,0.049,66176,34375,0
1783775913713086139,2026-07-11T20:18:33.713+07:00,0.049,66222,34408,0
1783775913713086140,2026-07-11T20:18:33.713+07:00,0.049,66283,34458,0
1783775913713086141,2026-07-11T20:18:33.713+07:00,0.049,66328,34491,0
1783775913713086142,2026-07-11T20:18:33.713+07:00,0.049,66374,34557,0
1783775913713086143,2026-07-11T20:18:33.713+07:00,0.049,66420,34590,0
1783775913713086144,2026-07-11T20:18:33.713+07:00,0.049,66466,34682,0
1783775913713086145,2026-07-11T20:18:33.713+07:00,0.049,66512,34723,0
1783775913713086146,2026-07-11T20:18:33.713+07:00,0.049,66574,34765,0
1783775913755456095,2026-07-11T20:18:33.755+07:00,0.091,66620,34807,0
1783775913755456096,2026-07-11T20:18:33.755+07:00,0.091,66651,34883,0
1783775913755456097,2026-07-11T20:18:33.755+07:00,0.091,66728,34917,0
1783775913755456098,2026-07-11T20:18:33.755+07:00,0.091,66743,34993,0
1783775913755456099,2026-07-11T20:18:33.755+07:00,0.091,66821,35036,0
1783775913755456100,2026-07-11T20:18:33.755+07:00,0.091,66852,35070,0
1783775913755456101,2026-07-11T20:18:33.755+07:00,0.091,66914,35121,0
1783775913755456102,2026-07-11T20:18:33.755+07:00,0.091,66976,35182,0
1783775913755456103,2026-07-11T20:18:33.755+07:00,0.091,66976,35233,0
1783775913755456104,2026-07-11T20:18:33.755+07:00,0.091,67070,35294,0
1783775913755456105,2026-07-11T20:18:33.755+07:00,0.091,67101,35363,0
1783775913755456106,2026-07-11T20:18:33.755+07:00,0.091,67164,35406,0
1783775913755456107,2026-07-11T20:18:33.755+07:00,0.091,67211,35441,0
1783775913755456108,2026-07-11T20:18:33.755+07:00,0.091,67242,35476,0
1783775913755456109,2026-07-11T20:18:33.755+07:00,0.091,67289,35529,0
1783775913755456110,2026-07-11T20:18:33.755+07:00,0.091,67352,35573,0
1783775913755456111,2026-07-11T20:18:33.755+07:00,0.091,67368,35590,0
1783775913795506368,2026-07-11T20:18:33.795+07:00,0.131,67415,35652,0
1783775913795506369,2026-07-11T20:18:33.795+07:00,0.131,67463,35678,0
1783775913795506370,2026-07-11T20:18:33.795+07:00,0.131,67526,35705,0
1783775913795506371,2026-07-11T20:18:33.795+07:00,0.131,67526,35732,0
1783775913795506372,2026-07-11T20:18:33.795+07:00,0.131,67573,35758,0
1783775913795506373,2026-07-11T20:18:33.795+07:00,0.131,67589,35776,0
1783775913795506374,2026-07-11T20:18:33.795+07:00,0.131,67573,35794,0
1783775913795506375,2026-07-11T20:18:33.795+07:00,0.131,67589,35803,0
1783775913795506376,2026-07-11T20:18:33.795+07:00,0.131,67637,35803,0
1783775913795506377,2026-07-11T20:18:33.795+07:00,0.131,67637,35811,0
1783775913795506378,2026-07-11T20:18:33.795+07:00,0.131,67637,35829,0
1783775913795506379,2026-07-11T20:18:33.795+07:00,0.131,67621,35829,0
1783775913795506380,2026-07-11T20:18:33.795+07:00,0.131,67637,35838,0
1783775913795506381,2026-07-11T20:18:33.795+07:00,0.131,67621,35838,0
1783775913795506382,2026-07-11T20:18:33.795+07:00,0.131,67621,35794,0
1783775913795506383,2026-07-11T20:18:33.795+07:00,0.131,67605,35803,0
1783775913837870256,2026-07-11T20:18:33.837+07:00,0.174,67573,35767,0
1783775913837870257,2026-07-11T20:18:33.837+07:00,0.174,67558,35740,0
1783775913837870258,2026-07-11T20:18:33.837+07:00,0.174,67526,35714,0
1783775913837870259,2026-07-11T20:18:33.837+07:00,0.174,67478,35696,0
1783775913837870260,2026-07-11T20:18:33.837+07:00,0.174,67463,35687,0
1783775913837870261,2026-07-11T20:18:33.837+07:00,0.174,67447,35678,0
1783775913837870262,2026-07-11T20:18:33.837+07:00,0.174,67384,35634,0
1783775913837870263,2026-07-11T20:18:33.837+07:00,0.174,67384,35599,0
1783775913837870264,2026-07-11T20:18:33.837+07:00,0.174,67352,35538,0
1783775913837870265,2026-07-11T20:18:33.837+07:00,0.174,67289,35520,0
1783775913837870266,2026-07-11T20:18:33.837+07:00,0.174,67258,35494,0
1783775913837870267,2026-07-11T20:18:33.837+07:00,0.174,67258,35467,0
1783775913837870268,2026-07-11T20:18:33.837+07:00,0.174,67148,35406,0
1783775913837870269,2026-07-11T20:18:33.837+07:00,0.174,67164,35398,0
1783775913837870270,2026-07-11T20:18:33.837+07:00,0.174,67132,35406,0
1783775913837870271,2026-07-11T20:18:33.837+07:00,0.174,67085,35354,0
1783775913837870272,2026-07-11T20:18:33.837+07:00,0.174,67101,35311,0
1783775913875461952,2026-07-11T20:18:33.875+07:00,0.211,67039,35328,0
1783775913875461953,2026-07-11T20:18:33.875+07:00,0.211,67007,35268,0
1783775913875461954,2026-07-11T20:18:33.875+07:00,0.211,67007,35242,0
1783775913875461955,2026-07-11T20:18:33.875+07:00,0.211,66992,35250,0
1783775913875461956,2026-07-11T20:18:33.875+07:00,0.211,66961,35233,0
1783775913875461957,2026-07-11T20:18:33.875+07:00,0.211,66961,35190,0
1783775913875461958,2026-07-11T20:18:33.875+07:00,0.211,66961,35190,0
1783775913875461959,2026-07-11T20:18:33.875+07:00,0.211,66961,35190,0
1783775913875461960,2026-07-11T20:18:33.875+07:00,0.211,66961,35164,0
1783775913875461961,2026-07-11T20:18:33.875+07:00,0.211,66945,35156,0
1783775913875461962,2026-07-11T20:18:33.875+07:00,0.211,66945,35173,0
1783775913875461963,2026-07-11T20:18:33.875+07:00,0.211,66961,35182,0
1783775913875461964,2026-07-11T20:18:33.875+07:00,0.211,66945,35147,0
1783775913875461965,2026-07-11T20:18:33.875+07:00,0.211,66930,35147,0
1783775913875461966,2026-07-11T20:18:33.875+07:00,0.211,66945,35156,0
1783775913917723107,2026-07-11T20:18:33.917+07:00,0.254,66930,35164,0
1783775913917723108,2026-07-11T20:18:33.917+07:00,0.254,66945,35130,0
1783775913917723109,2026-07-11T20:18:33.917+07:00,0.254,66976,35173,0
1783775913917723110,2026-07-11T20:18:33.917+07:00,0.254,66992,35207,0
1783775913917723111,2026-07-11T20:18:33.917+07:00,0.254,66992,35216,0
1783775913917723112,2026-07-11T20:18:33.917+07:00,0.254,67007,35216,0
1783775913917723113,2026-07-11T20:18:33.917+07:00,0.254,67054,35259,0
1783775913917723114,2026-07-11T20:18:33.917+07:00,0.254,67054,35250,0
1783775913917723115,2026-07-11T20:18:33.917+07:00,0.254,67054,35285,0
1783775913917723116,2026-07-11T20:18:33.917+07:00,0.254,67070,35285,0
1783775913917723117,2026-07-11T20:18:33.917+07:00,0.254,67085,35311,0
1783775913917723118,2026-07-11T20:18:33.917+07:00,0.254,67101,35311,0
1783775913917723119,2026-07-11T20:18:33.917+07:00,0.254,67132,35363,0
1783775913917723120,2026-07-11T20:18:33.917+07:00,0.254,67164,35380,0
1783775913917723121,2026-07-11T20:18:33.917+07:00,0.254,67195,35406,0
1783775913917723122,2026-07-11T20:18:33.917+07:00,0.254,67195,35441,0
1783775913917723123,2026-07-11T20:18:33.917+07:00,0.254,67226,35433,0
1783775913917723124,2026-07-11T20:18:33.917+07:00,0.254,67211,35476,0
1783775913960989104,2026-07-11T20:18:33.960+07:00,0.297,67274,35511,0
1783775913960989105,2026-07-11T20:18:33.960+07:00,0.297,67305,35538,0
1783775913960989106,2026-07-11T20:18:33.960+07:00,0.297,67305,35590,0
1783775913960989107,2026-07-11T20:18:33.960+07:00,0.297,67352,35599,0
1783775913960989108,2026-07-11T20:18:33.960+07:00,0.297,67368,35625,0
1783775913960989109,2026-07-11T20:18:33.960+07:00,0.297,67399,35652,0
1783775913960989110,2026-07-11T20:18:33.960+07:00,0.297,67431,35661,0
1783775913960989111,2026-07-11T20:18:33.960+07:00,0.297,67494,35732,0
1783775913960989112,2026-07-11T20:18:33.960+07:00,0.297,67478,35785,0
1783775913960989113,2026-07-11T20:18:33.960+07:00,0.297,67510,35785,0
1783775913960989114,2026-07-11T20:18:33.960+07:00,0.297,67573,35847,0
1783775913960989115,2026-07-11T20:18:33.960+07:00,0.297,67605,35874,0
1783775913960989116,2026-07-11T20:18:33.960+07:00,0.297,67621,35892,0
1783775913960989117,2026-07-11T20:18:33.960+07:00,0.297,67685,35928,0
1783775913960989118,2026-07-11T20:18:33.960+07:00,0.297,67716,35964,0
1783775913960989119,2026-07-11T20:18:33.960+07:00,0.297,67732,35991,0
1783775913960989120,2026-07-11T20:18:33.960+07:00,0.297,67796,36048,0
1783775913995358135,2026-07-11T20:18:33.995+07:00,0.331,67796,36060,0
1783775913995358136,2026-07-11T20:18:33.995+07:00,0.331,67844,36090,0
1783775913995358137,2026-07-11T20:18:33.995+07:00,0.331,67892,36132,0
1783775913995358138,2026-07-11T20:18:33.995+07:00,0.331,67892,36150,0
1783775913995358139,2026-07-11T20:18:33.995+07:00,0.331,67972,36186,0
1783775913995358140,2026-07-11T20:18:33.995+07:00,0.331,67972,36211,0
1783775913995358141,2026-07-11T20:18:33.995+07:00,0.331,68004,36247,0
1783775913995358142,2026-07-11T20:18:33.995+07:00,0.331,68020,36259,0
1783775913995358143,2026-07-11T20:18:33.995+07:00,0.331,68036,36278,0
1783775913995358144,2026-07-11T20:18:33.995+07:00,0.331,68101,36320,0
1783775913995358145,2026-07-11T20:18:33.995+07:00,0.331,68117,36339,0
1783775913995358146,2026-07-11T20:18:33.995+07:00,0.331,68133,36388,0
1783775913995358147,2026-07-11T20:18:33.995+07:00,0.331,68165,36406,0
1783775914038251847,2026-07-11T20:18:34.038+07:00,0.374,68197,36443,0
1783775914038251848,2026-07-11T20:18:34.038+07:00,0.374,68197,36455,0
1783775914038251849,2026-07-11T20:18:34.038+07:00,0.374,68246,36474,0
1783775914038251850,2026-07-11T20:18:34.038+07:00,0.374,68278,36498,0
1783775914038251851,2026-07-11T20:18:34.038+07:00,0.374,68311,36542,0
1783775914038251852,2026-07-11T20:18:34.038+07:00,0.374,68327,36560,0
1783775914038251853,2026-07-11T20:18:34.038+07:00,0.374,68327,36603,0
1783775914038251854,2026-07-11T20:18:34.038+07:00,0.374,68359,36628,0
1783775914038251855,2026-07-11T20:18:34.038+07:00,0.374,68392,36616,0
1783775914038251856,2026-07-11T20:18:34.038+07:00,0.374,68408,36641,0
1783775914038251857,2026-07-11T20:18:34.038+07:00,0.374,68441,36672,0
1783775914038251858,2026-07-11T20:18:34.038+07:00,0.374,68489,36722,0
1783775914038251859,2026-07-11T20:18:34.038+07:00,0.374,68489,36753,0
1783775914038251860,2026-07-11T20:18:34.038+07:00,0.374,68522,36765,0
1783775914038251861,2026-07-11T20:18:34.038+07:00,0.374,68538,36778,0
1783775914038251862,2026-07-11T20:18:34.038+07:00,0.374,68571,36803,0
1783775914038251863,2026-07-11T20:18:34.038+07:00,0.374,68571,36841,0
1783775914080188348,2026-07-11T20:18:34.080+07:00,0.416,68604,36860,0
1783775914080188349,2026-07-11T20:18:34.080+07:00,0.416,68636,36885,0
1783775914080188350,2026-07-11T20:18:34.080+07:00,0.416,68669,36923,0
1783775914080188351,2026-07-11T20:18:34.080+07:00,0.416,68718,36935,0
1783775914080188352,2026-07-11T20:18:34.080+07:00,0.416,68718,36973,0
1783775914080188353,2026-07-11T20:18:34.080+07:00,0.416,68735,36973,0
1783775914080188354,2026-07-11T20:18:34.080+07:00,0.416,68751,37005,0
1783775914080188355,2026-07-11T20:18:34.080+07:00,0.416,68784,37024,0
1783775914080188356,2026-07-11T20:18:34.080+07:00,0.416,68767,37075,0
1783775914080188357,2026-07-11T20:18:34.080+07:00,0.416,68833,37094,0
1783775914080188358,2026-07-11T20:18:34.080+07:00,0.416,68866,37126,0
1783775914080188359,2026-07-11T20:18:34.080+07:00,0.416,68899,37151,0
1783775914080188360,2026-07-11T20:18:34.080+07:00,0.416,68916,37170,0
1783775914080188361,2026-07-11T20:18:34.080+07:00,0.416,68932,37196,0
1783775914080188362,2026-07-11T20:18:34.080+07:00,0.416,68965,37215,0
1783775914080188363,2026-07-11T20:18:34.080+07:00,0.416,68949,37241,0
1783775914080188364,2026-07-11T20:18:34.080+07:00,0.416,68982,37241,0
1783775914122625845,2026-07-11T20:18:34.122+07:00,0.459,69015,37267,0
1783775914122625846,2026-07-11T20:18:34.122+07:00,0.459,69015,37260,0
1783775914122625847,2026-07-11T20:18:34.122+07:00,0.459,69064,37312,0
1783775914122625848,2026-07-11T20:18:34.122+07:00,0.459,69015,37312,0
1783775914122625849,2026-07-11T20:18:34.122+07:00,0.459,69015,37299,0
1783775914122625850,2026-07-11T20:18:34.122+07:00,0.459,68998,37292,0
1783775914122625851,2026-07-11T20:18:34.122+07:00,0.459,68982,37247,0
1783775914122625852,2026-07-11T20:18:34.122+07:00,0.459,68965,37234,0
1783775914122625853,2026-07-11T20:18:34.122+07:00,0.459,68949,37215,0
1783775914122625854,2026-07-11T20:18:34.122+07:00,0.459,68899,37126,0
1783775914122625855,2026-07-11T20:18:34.122+07:00,0.459,68833,37081,0
1783775914122625856,2026-07-11T20:18:34.122+07:00,0.459,68735,36992,0
1783775914122625857,2026-07-11T20:18:34.122+07:00,0.459,68620,36866,0
1783775914122625858,2026-07-11T20:18:34.122+07:00,0.459,68489,36734,0
1783775914122625859,2026-07-11T20:18:34.122+07:00,0.459,68311,36560,0
1783775914122625860,2026-07-11T20:18:34.122+07:00,0.459,68149,36388,0
1783775914122625861,2026-07-11T20:18:34.122+07:00,0.459,67972,36180,0
1783775914162830963,2026-07-11T20:18:34.162+07:00,0.499,67780,35955,0
1783775914162830964,2026-07-11T20:18:34.162+07:00,0.499,67558,35794,0
1783775914162830965,2026-07-11T20:18:34.162+07:00,0.499,67368,35581,0
1783775914162830966,2026-07-11T20:18:34.162+07:00,0.499,67148,35398,0
1783775914162830967,2026-07-11T20:18:34.162+07:00,0.499,66945,35164,0
1783775914162830968,2026-07-11T20:18:34.162+07:00,0.499,66790,34985,0
1783775914162830969,2026-07-11T20:18:34.162+07:00,0.499,66574,34824,0
1783775914162830970,2026-07-11T20:18:34.162+07:00,0.499,66420,34648,0
1783775914162830971,2026-07-11T20:18:34.162+07:00,0.499,66298,34491,0
1783775914162830972,2026-07-11T20:18:34.162+07:00,0.499,66130,34326,0
1783775914162830973,2026-07-11T20:18:34.162+07:00,0.499,65994,34204,0
1783775914162830974,2026-07-11T20:18:34.162+07:00,0.499,65828,34066,0
1783775914162830975,2026-07-11T20:18:34.162+07:00,0.499,65723,33930,0
1783775914162830976,2026-07-11T20:18:34.162+07:00,0.499,65588,33818,0
1783775914162830977,2026-07-11T20:18:34.162+07:00,0.499,65469,33692,0
1783775914162830978,2026-07-11T20:18:34.162+07:00,0.499,65350,33605,0
1783775914205033279,2026-07-11T20:18:34.205+07:00,0.541,65276,33496,0
1783775914205033280,2026-07-11T20:18:34.205+07:00,0.541,65187,33402,0
1783775914205033281,2026-07-11T20:18:34.205+07:00,0.541,65099,33333,0
1783775914205033282,2026-07-11T20:18:34.205+07:00,0.541,65070,33279,0
1783775914205033283,2026-07-11T20:18:34.205+07:00,0.541,64967,33202,0
1783775914205033284,2026-07-11T20:18:34.205+07:00,0.541,64923,33126,0
1783775914205033285,2026-07-11T20:18:34.205+07:00,0.541,64835,33088,0
1783775914205033286,2026-07-11T20:18:34.205+07:00,0.541,64791,33035,0
1783775914205033287,2026-07-11T20:18:34.205+07:00,0.541,64777,32982,0
1783775914205033288,2026-07-11T20:18:34.205+07:00,0.541,64733,32944,0
1783775914205033289,2026-07-11T20:18:34.205+07:00,0.541,64675,32929,0
1783775914205033290,2026-07-11T20:18:34.205+07:00,0.541,64675,32891,0
1783775914205033291,2026-07-11T20:18:34.205+07:00,0.541,64690,32861,0
1783775914205033292,2026-07-11T20:18:34.205+07:00,0.541,64646,32839,0
1783775914205033293,2026-07-11T20:18:34.205+07:00,0.541,64646,32831,0
1783775914205033294,2026-07-11T20:18:34.205+07:00,0.541,64588,32816,0
1783775914205033295,2026-07-11T20:18:34.205+07:00,0.541,64602,32801,0
1783775914247626786,2026-07-11T20:18:34.247+07:00,0.584,64617,32794,0
1783775914247626787,2026-07-11T20:18:34.247+07:00,0.584,64588,32824,0
1783775914247626788,2026-07-11T20:18:34.247+07:00,0.584,64631,32801,0
1783775914247626789,2026-07-11T20:18:34.247+07:00,0.584,64602,32839,0
1783775914247626790,2026-07-11T20:18:34.247+07:00,0.584,64646,32839,0
1783775914247626791,2026-07-11T20:18:34.247+07:00,0.584,64617,32861,0
1783775914247626792,2026-07-11T20:18:34.247+07:00,0.584,64660,32846,0
1783775914247626793,2026-07-11T20:18:34.247+07:00,0.584,64660,32876,0
1783775914247626794,2026-07-11T20:18:34.247+07:00,0.584,64733,32891,0
1783775914247626795,2026-07-11T20:18:34.247+07:00,0.584,64690,32906,0
1783775914247626796,2026-07-11T20:18:34.247+07:00,0.584,64719,32921,0
1783775914247626797,2026-07-11T20:18:34.247+07:00,0.584,64733,32944,0
1783775914247626798,2026-07-11T20:18:34.247+07:00,0.584,64806,32959,0
1783775914247626799,2026-07-11T20:18:34.247+07:00,0.584,64821,33004,0
1783775914247626800,2026-07-11T20:18:34.247+07:00,0.584,64821,33035,0
1783775914247626801,2026-07-11T20:18:34.247+07:00,0.584,64879,33050,0
1783775914247626802,2026-07-11T20:18:34.247+07:00,0.584,64894,33111,0
1783775914289912740,2026-07-11T20:18:34.289+07:00,0.626,64937,33126,0
1783775914289912741,2026-07-11T20:18:34.289+07:00,0.626,64952,33149,0
1783775914289912742,2026-07-11T20:18:34.289+07:00,0.626,65011,33179,0
1783775914289912743,2026-07-11T20:18:34.289+07:00,0.626,65011,33217,0
1783775914289912744,2026-07-11T20:18:34.289+07:00,0.626,65070,33256,0
1783775914289912745,2026-07-11T20:18:34.289+07:00,0.626,65128,33287,0
1783775914289912746,2026-07-11T20:18:34.289+07:00,0.626,65114,33325,0
1783775914289912747,2026-07-11T20:18:34.289+07:00,0.626,65158,33379,0
1783775914289912748,2026-07-11T20:18:34.289+07:00,0.626,65158,33418,0
1783775914289912749,2026-07-11T20:18:34.289+07:00,0.626,65232,33433,0
1783775914289912750,2026-07-11T20:18:34.289+07:00,0.626,65261,33457,0
1783775914289912751,2026-07-11T20:18:34.289+07:00,0.626,65276,33503,0
1783775914289912752,2026-07-11T20:18:34.289+07:00,0.626,65365,33542,0
1783775914289912753,2026-07-11T20:18:34.289+07:00,0.626,65395,33566,0
1783775914289912754,2026-07-11T20:18:34.289+07:00,0.626,65395,33597,0
1783775914289912755,2026-07-11T20:18:34.289+07:00,0.626,65469,33652,0
1783775914289912756,2026-07-11T20:18:34.289+07:00,0.626,65469,33660,0
1783775914332412993,2026-07-11T20:18:34.332+07:00,0.668,65529,33684,0
1783775914332412994,2026-07-11T20:18:34.332+07:00,0.668,65529,33739,0
1783775914332412995,2026-07-11T20:18:34.332+07:00,0.668,65573,33763,0
1783775914332412996,2026-07-11T20:18:34.332+07:00,0.668,65618,33794,0
1783775914332412997,2026-07-11T20:18:34.332+07:00,0.668,65648,33826,0
1783775914332412998,2026-07-11T20:18:34.332+07:00,0.668,65678,33866,0
1783775914332412999,2026-07-11T20:18:34.332+07:00,0.668,65738,33922,0
1783775914332413000,2026-07-11T20:18:34.332+07:00,0.668,65753,33938,0
1783775914332413001,2026-07-11T20:18:34.332+07:00,0.668,65783,33994,0
1783775914332413002,2026-07-11T20:18:34.332+07:00,0.668,65828,34026,0
1783775914332413003,2026-07-11T20:18:34.332+07:00,0.668,65873,34058,0
1783775914332413004,2026-07-11T20:18:34.332+07:00,0.668,65934,34082,0
1783775914332413005,2026-07-11T20:18:34.332+07:00,0.668,65949,34139,0
1783775914332413006,2026-07-11T20:18:34.332+07:00,0.668,65994,34188,0
1783775914332413007,2026-07-11T20:18:34.332+07:00,0.668,66009,34212,0
1783775914332413008,2026-07-11T20:18:34.332+07:00,0.668,66055,34236,0
1783775914332413009,2026-07-11T20:18:34.332+07:00,0.668,66085,34302,0
1783775914369990109,2026-07-11T20:18:34.369+07:00,0.706,66085,34302,0
1783775914369990110,2026-07-11T20:18:34.369+07:00,0.706,66130,34334,0
1783775914369990111,2026-07-11T20:18:34.369+07:00,0.706,66176,34383,0
1783775914369990112,2026-07-11T20:18:34.369+07:00,0.706,66206,34392,0
1783775914369990113,2026-07-11T20:18:34.369+07:00,0.706,66206,34400,0
1783775914369990114,2026-07-11T20:18:34.369+07:00,0.706,66222,34449,0
1783775914369990115,2026-07-11T20:18:34.369+07:00,0.706,66267,34441,0
1783775914369990116,2026-07-11T20:18:34.369+07:00,0.706,66283,34458,0
1783775914369990117,2026-07-11T20:18:34.369+07:00,0.706,66313,34499,0
1783775914369990118,2026-07-11T20:18:34.369+07:00,0.706,66313,34524,0
1783775914369990119,2026-07-11T20:18:34.369+07:00,0.706,66313,34524,0
1783775914369990120,2026-07-11T20:18:34.369+07:00,0.706,66359,34557,0
1783775914369990121,2026-07-11T20:18:34.369+07:00,0.706,66344,34565,0
1783775914369990122,2026-07-11T20:18:34.369+07:00,0.706,66359,34598,0
1783775914369990123,2026-07-11T20:18:34.369+07:00,0.706,66344,34573,0
1783775914412345520,2026-07-11T20:18:34.412+07:00,0.748,66359,34548,0
1783775914412345521,2026-07-11T20:18:34.412+07:00,0.748,66344,34573,0
1783775914412345522,2026-07-11T20:18:34.412+07:00,0.748,66344,34573,0
1783775914412345523,2026-07-11T20:18:34.412+07:00,0.748,66328,34573,0
1783775914412345524,2026-07-11T20:18:34.412+07:00,0.748,66359,34573,0
1783775914412345525,2026-07-11T20:18:34.412+07:00,0.748,66344,34548,0
1783775914412345526,2026-07-11T20:18:34.412+07:00,0.748,66328,34540,0
1783775914412345527,2026-07-11T20:18:34.412+07:00,0.748,66313,34524,0
1783775914412345528,2026-07-11T20:18:34.412+07:00,0.748,66267,34515,0
1783775914412345529,2026-07-11T20:18:34.412+07:00,0.748,66313,34491,0
1783775914412345530,2026-07-11T20:18:34.412+07:00,0.748,66267,34474,0
1783775914412345531,2026-07-11T20:18:34.412+07:00,0.748,66252,34474,0
1783775914412345532,2026-07-11T20:18:34.412+07:00,0.748,66237,34441,0
1783775914412345533,2026-07-11T20:18:34.412+07:00,0.748,66237,34416,0
1783775914412345534,2026-07-11T20:18:34.412+07:00,0.748,66206,34416,0
1783775914412345535,2026-07-11T20:18:34.412+07:00,0.748,66191,34400,0
1783775914412345536,2026-07-11T20:18:34.412+07:00,0.748,66206,34375,0
1783775914454834758,2026-07-11T20:18:34.454+07:00,0.791,66161,34375,0
1783775914454834759,2026-07-11T20:18:34.454+07:00,0.791,66130,34318,0
1783775914454834760,2026-07-11T20:18:34.454+07:00,0.791,66115,34318,0
1783775914454834761,2026-07-11T20:18:34.454+07:00,0.791,66055,34326,0
1783775914454834762,2026-07-11T20:18:34.454+07:00,0.791,66085,34293,0
1783775914454834763,2026-07-11T20:18:34.454+07:00,0.791,66055,34261,0
1783775914454834764,2026-07-11T20:18:34.454+07:00,0.791,66024,34244,0
1783775914454834765,2026-07-11T20:18:34.454+07:00,0.791,66039,34212,0
1783775914454834766,2026-07-11T20:18:34.454+07:00,0.791,66039,34220,0
1783775914454834767,2026-07-11T20:18:34.454+07:00,0.791,65994,34204,0
1783775914454834768,2026-07-11T20:18:34.454+07:00,0.791,65994,34196,0
1783775914454834769,2026-07-11T20:18:34.454+07:00,0.791,65964,34179,0
1783775914454834770,2026-07-11T20:18:34.454+07:00,0.791,65979,34188,0
1783775914454834771,2026-07-11T20:18:34.454+07:00,0.791,65979,34155,0
1783775914454834772,2026-07-11T20:18:34.454+07:00,0.791,65949,34179,0
1783775914454834773,2026-07-11T20:18:34.454+07:00,0.791,65994,34163,0
1783775914454834774,2026-07-11T20:18:34.454+07:00,0.791,65949,34179,0
1783775914497112093,2026-07-11T20:18:34.497+07:00,0.833,65964,34171,0
1783775914497112094,2026-07-11T20:18:34.497+07:00,0.833,65979,34163,0
1783775914497112095,2026-07-11T20:18:34.497+07:00,0.833,65964,34171,0
1783775914497112096,2026-07-11T20:18:34.497+07:00,0.833,65994,34171,0
1783775914497112097,2026-07-11T20:18:34.497+07:00,0.833,65979,34171,0
1783775914497112098,2026-07-11T20:18:34.497+07:00,0.833,65994,34188,0
1783775914497112099,2026-07-11T20:18:34.497+07:00,0.833,65994,34196,0
1783775914497112100,2026-07-11T20:18:34.497+07:00,0.833,65994,34196,0
1783775914497112101,2026-07-11T20:18:34.497+07:00,0.833,66009,34220,0
1783775914497112102,2026-07-11T20:18:34.497+07:00,0.833,66024,34244,0
1783775914497112103,2026-07-11T20:18:34.497+07:00,0.833,66024,34253,0
1783775914497112104,2026-07-11T20:18:34.497+07:00,0.833,66055,34277,0
1783775914497112105,2026-07-11T20:18:34.497+07:00,0.833,66055,34302,0
1783775914497112106,2026-07-11T20:18:34.497+07:00,0.833,66055,34326,0
1783775914497112107,2026-07-11T20:18:34.497+07:00,0.833,66130,34359,0
1783775914497112108,2026-07-11T20:18:34.497+07:00,0.833,66100,34367,0
1783775914497112109,2026-07-11T20:18:34.497+07:00,0.833,66146,34408,0
1783775914497112110,2026-07-11T20:18:34.497+07:00,0.833,66161,34392,0
1783775914542123550,2026-07-11T20:18:34.542+07:00,0.878,66222,34425,0
1783775914542123551,2026-07-11T20:18:34.542+07:00,0.878,66267,34474,0
1783775914542123552,2026-07-11T20:18:34.542+07:00,0.878,66313,34515,0
1783775914542123553,2026-07-11T20:18:34.542+07:00,0.878,66328,34540,0
1783775914542123554,2026-07-11T20:18:34.542+07:00,0.878,66390,34590,0
1783775914542123555,2026-07-11T20:18:34.542+07:00,0.878,66405,34598,0
1783775914542123556,2026-07-11T20:18:34.542+07:00,0.878,66435,34648,0
1783775914542123557,2026-07-11T20:18:34.542+07:00,0.878,66451,34682,0
1783775914542123558,2026-07-11T20:18:34.542+07:00,0.878,66512,34698,0
1783775914542123559,2026-07-11T20:18:34.542+07:00,0.878,66558,34732,0
1783775914542123560,2026-07-11T20:18:34.542+07:00,0.878,66574,34774,0
1783775914542123561,2026-07-11T20:18:34.542+07:00,0.878,66604,34807,0
1783775914542123562,2026-07-11T20:18:34.542+07:00,0.878,66666,34866,0
1783775914542123563,2026-07-11T20:18:34.542+07:00,0.878,66697,34883,0
1783775914542123564,2026-07-11T20:18:34.542+07:00,0.878,66712,34892,0
1783775914542123565,2026-07-11T20:18:34.542+07:00,0.878,66728,34959,0
1783775914542123566,2026-07-11T20:18:34.542+07:00,0.878,66805,34985,0
1783775914579733458,2026-07-11T20:18:34.579+07:00,0.916,66852,35019,0
1783775914579733459,2026-07-11T20:18:34.579+07:00,0.916,66867,35087,0
1783775914579733460,2026-07-11T20:18:34.579+07:00,0.916,66898,35130,0
1783775914579733461,2026-07-11T20:18:34.579+07:00,0.916,66945,35147,0
1783775914579733462,2026-07-11T20:18:34.579+07:00,0.916,66961,35199,0
1783775914579733463,2026-07-11T20:18:34.579+07:00,0.916,67007,35259,0
1783775914579733464,2026-07-11T20:18:34.579+07:00,0.916,67039,35294,0
1783775914579733465,2026-07-11T20:18:34.579+07:00,0.916,67023,35276,0
1783775914579733466,2026-07-11T20:18:34.579+07:00,0.916,67054,35337,0
1783775914579733467,2026-07-11T20:18:34.579+07:00,0.916,67117,35380,0
1783775914579733468,2026-07-11T20:18:34.579+07:00,0.916,67179,35424,0
1783775914579733469,2026-07-11T20:18:34.579+07:00,0.916,67195,35459,0
1783775914579733470,2026-07-11T20:18:34.579+07:00,0.916,67211,35520,0
1783775914579733471,2026-07-11T20:18:34.579+07:00,0.916,67242,35529,0
1783775914579733472,2026-07-11T20:18:34.579+07:00,0.916,67305,35573,0
1783775914624047819,2026-07-11T20:18:34.624+07:00,0.960,67336,35634,0
1783775914624047820,2026-07-11T20:18:34.624+07:00,0.960,67384,35661,0
1783775914624047821,2026-07-11T20:18:34.624+07:00,0.960,67384,35732,0
1783775914624047822,2026-07-11T20:18:34.624+07:00,0.960,67463,35776,0
1783775914624047823,2026-07-11T20:18:34.624+07:00,0.960,67510,35803,0
1783775914624047824,2026-07-11T20:18:34.624+07:00,0.960,67526,35856,0
1783775914624047825,2026-07-11T20:18:34.624+07:00,0.960,67589,35901,0
1783775914624047826,2026-07-11T20:18:34.624+07:00,0.960,67605,35937,0
1783775914624047827,2026-07-11T20:18:34.624+07:00,0.960,67653,35973,0
1783775914624047828,2026-07-11T20:18:34.624+07:00,0.960,67669,36018,0
1783775914624047829,2026-07-11T20:18:34.624+07:00,0.960,67732,36048,0
1783775914624047830,2026-07-11T20:18:34.624+07:00,0.960,67764,36090,0
1783775914624047831,2026-07-11T20:18:34.624+07:00,0.960,67796,36102,0
1783775914624047832,2026-07-11T20:18:34.624+07:00,0.960,67828,36162,0
1783775914624047833,2026-07-11T20:18:34.624+07:00,0.960,67876,36162,0
1783775914624047834,2026-07-11T20:18:34.624+07:00,0.960,67924,36229,0
1783775914624047835,2026-07-11T20:18:34.624+07:00,0.960,67908,36259,0
1783775914664533340,2026-07-11T20:18:34.664+07:00,1.000,68004,36302,0
1783775914664533341,2026-07-11T20:18:34.664+07:00,1.000,68036,36351,0
1783775914664533342,2026-07-11T20:18:34.664+07:00,1.000,68085,36382,0
1783775914664533343,2026-07-11T20:18:34.664+07:00,1.000,68133,36424,0
1783775914664533344,2026-07-11T20:18:34.664+07:00,1.000,68181,36492,0
1783775914664533345,2026-07-11T20:18:34.664+07:00,1.000,68214,36492,0
1783775914664533346,2026-07-11T20:18:34.664+07:00,1.000,68246,36535,0
1783775914664533347,2026-07-11T20:18:34.664+07:00,1.000,68262,36560,0
1783775914664533348,2026-07-11T20:18:34.664+07:00,1.000,68294,36591,0
1783775914664533349,2026-07-11T20:18:34.664+07:00,1.000,68311,36641,0
1783775914664533350,2026-07-11T20:18:34.664+07:00,1.000,68343,36666,0
1783775914664533351,2026-07-11T20:18:34.664+07:00,1.000,68376,36709,0
1783775914664533352,2026-07-11T20:18:34.664+07:00,1.000,68408,36722,0
1783775914664533353,2026-07-11T20:18:34.664+07:00,1.000,68441,36753,0
1783775914664533354,2026-07-11T20:18:34.664+07:00,1.000,68457,36778,0
1783775914664533355,2026-07-11T20:18:34.664+07:00,1.000,68506,36816,0
1783775914664533356,2026-07-11T20:18:34.664+07:00,1.000,68506,36828,0
1783775914706972590,2026-07-11T20:18:34.706+07:00,1.043,68587,36847,0
1783775914706972591,2026-07-11T20:18:34.706+07:00,1.043,68538,36891,0
1783775914706972592,2026-07-11T20:18:34.706+07:00,1.043,68571,36923,0
1783775914706972593,2026-07-11T20:18:34.706+07:00,1.043,68636,36935,0
1783775914706972594,2026-07-11T20:18:34.706+07:00,1.043,68653,36979,0
1783775914706972595,2026-07-11T20:18:34.706+07:00,1.043,68669,36992,0
1783775914706972596,2026-07-11T20:18:34.706+07:00,1.043,68702,36998,0
1783775914706972597,2026-07-11T20:18:34.706+07:00,1.043,68702,37062,0
1783775914706972598,2026-07-11T20:18:34.706+07:00,1.043,68735,37068,0
1783775914706972599,2026-07-11T20:18:34.706+07:00,1.043,68767,37087,0
1783775914706972600,2026-07-11T20:18:34.706+07:00,1.043,68784,37113,0
1783775914706972601,2026-07-11T20:18:34.706+07:00,1.043,68800,37132,0
1783775914706972602,2026-07-11T20:18:34.706+07:00,1.043,68850,37158,0
1783775914706972603,2026-07-11T20:18:34.706+07:00,1.043,68833,37170,0
1783775914706972604,2026-07-11T20:18:34.706+07:00,1.043,68850,37202,0
1783775914706972605,2026-07-11T20:18:34.706+07:00,1.043,68850,37209,0
1783775914706972606,2026-07-11T20:18:34.706+07:00,1.043,68883,37177,0
1783775914749446502,2026-07-11T20:18:34.749+07:00,1.085,68833,37190,0
1783775914749446503,2026-07-11T20:18:34.749+07:00,1.085,68800,37151,0
1783775914749446504,2026-07-11T20:18:34.749+07:00,1.085,68767,37100,0
1783775914749446505,2026-07-11T20:18:34.749+07:00,1.085,68735,37062,0
1783775914749446506,2026-07-11T20:18:34.749+07:00,1.085,68653,36973,0
1783775914749446507,2026-07-11T20:18:34.749+07:00,1.085,68538,36860,0
1783775914749446508,2026-07-11T20:18:34.749+07:00,1.085,68392,36753,0
1783775914749446509,2026-07-11T20:18:34.749+07:00,1.085,68262,36603,0
1783775914749446510,2026-07-11T20:18:34.749+07:00,1.085,68101,36431,0
1783775914749446511,2026-07-11T20:18:34.749+07:00,1.085,67956,36241,0
1783775914749446512,2026-07-11T20:18:34.749+07:00,1.085,67732,36066,0
1783775914749446513,2026-07-11T20:18:34.749+07:00,1.085,67526,35829,0
1783775914749446514,2026-07-11T20:18:34.749+07:00,1.085,67274,35599,0
1783775914749446515,2026-07-11T20:18:34.749+07:00,1.085,67070,35415,0
1783775914749446516,2026-07-11T20:18:34.749+07:00,1.085,66836,35216,0
1783775914749446517,2026-07-11T20:18:34.749+07:00,1.085,66635,35002,0
1783775914749446518,2026-07-11T20:18:34.749+07:00,1.085,66451,34816,0
1783775914786946282,2026-07-11T20:18:34.786+07:00,1.123,66267,34623,0
1783775914786946283,2026-07-11T20:18:34.786+07:00,1.123,66130,34474,0
1783775914786946284,2026-07-11T20:18:34.786+07:00,1.123,65994,34310,0
1783775914786946285,2026-07-11T20:18:34.786+07:00,1.123,65828,34171,0
1783775914786946286,2026-07-11T20:18:34.786+07:00,1.123,65708,34034,0
1783775914786946287,2026-07-11T20:18:34.786+07:00,1.123,65543,33874,0
1783775914786946288,2026-07-11T20:18:34.786+07:00,1.123,65424,33763,0
1783775914786946289,2026-07-11T20:18:34.786+07:00,1.123,65365,33652,0
1783775914786946290,2026-07-11T20:18:34.786+07:00,1.123,65187,33550,0
1783775914786946291,2026-07-11T20:18:34.786+07:00,1.123,65143,33465,0
1783775914786946292,2026-07-11T20:18:34.786+07:00,1.123,65084,33410,0
1783775914786946293,2026-07-11T20:18:34.786+07:00,1.123,64967,33287,0
1783775914786946294,2026-07-11T20:18:34.786+07:00,1.123,64908,33248,0
1783775914786946295,2026-07-11T20:18:34.786+07:00,1.123,64864,33164,0
1783775914786946296,2026-07-11T20:18:34.786+07:00,1.123,64821,33126,0
1783775914786946297,2026-07-11T20:18:34.786+07:00,1.123,64762,33057,0
1783775914831715942,2026-07-11T20:18:34.831+07:00,1.168,64719,33042,0
1783775914831715943,2026-07-11T20:18:34.831+07:00,1.168,64675,33012,0
1783775914831715944,2026-07-11T20:18:34.831+07:00,1.168,64617,32982,0
1783775914831715945,2026-07-11T20:18:34.831+07:00,1.168,64646,32951,0
1783775914831715946,2026-07-11T20:18:34.831+07:00,1.168,64602,32899,0
1783775914831715947,2026-07-11T20:18:34.831+07:00,1.168,64588,32884,0
1783775914831715948,2026-07-11T20:18:34.831+07:00,1.168,64573,32876,0
1783775914831715949,2026-07-11T20:18:34.831+07:00,1.168,64530,32884,0
1783775914831715950,2026-07-11T20:18:34.831+07:00,1.168,64573,32869,0
1783775914831715951,2026-07-11T20:18:34.831+07:00,1.168,64559,32854,0
1783775914831715952,2026-07-11T20:18:34.831+07:00,1.168,64530,32861,0
1783775914831715953,2026-07-11T20:18:34.831+07:00,1.168,64588,32846,0
1783775914831715954,2026-07-11T20:18:34.831+07:00,1.168,64545,32861,0
1783775914831715955,2026-07-11T20:18:34.831+07:00,1.168,64573,32884,0
1783775914831715956,2026-07-11T20:18:34.831+07:00,1.168,64602,32861,0
1783775914831715957,2026-07-11T20:18:34.831+07:00,1.168,64617,32914,0
1783775914831715958,2026-07-11T20:18:34.831+07:00,1.168,64646,32921,0
1783775914869357045,2026-07-11T20:18:34.869+07:00,1.205,64646,32944,0
1783775914869357046,2026-07-11T20:18:34.869+07:00,1.205,64690,32974,0
1783775914869357047,2026-07-11T20:18:34.869+07:00,1.205,64690,32989,0
1783775914869357048,2026-07-11T20:18:34.869+07:00,1.205,64733,33019,0
1783775914869357049,2026-07-11T20:18:34.869+07:00,1.205,64762,33057,0
1783775914869357050,2026-07-11T20:18:34.869+07:00,1.205,64791,33095,0
1783775914869357051,2026-07-11T20:18:34.869+07:00,1.205,64850,33118,0
1783775914869357052,2026-07-11T20:18:34.869+07:00,1.205,64894,33172,0
1783775914869357053,2026-07-11T20:18:34.869+07:00,1.205,64937,33195,0
1783775914869357054,2026-07-11T20:18:34.869+07:00,1.205,64981,33225,0
1783775914869357055,2026-07-11T20:18:34.869+07:00,1.205,64967,33248,0
1783775914869357056,2026-07-11T20:18:34.869+07:00,1.205,65025,33302,0
1783775914869357057,2026-07-11T20:18:34.869+07:00,1.205,65084,33325,0
1783775914869357058,2026-07-11T20:18:34.869+07:00,1.205,65099,33364,0
1783775914869357059,2026-07-11T20:18:34.869+07:00,1.205,65143,33402,0
1783775914911641275,2026-07-11T20:18:34.911+07:00,1.248,65173,33402,0
1783775914911641276,2026-07-11T20:18:34.911+07:00,1.248,65232,33457,0
1783775914911641277,2026-07-11T20:18:34.911+07:00,1.248,65261,33519,0
1783775914911641278,2026-07-11T20:18:34.911+07:00,1.248,65306,33527,0
1783775914911641279,2026-07-11T20:18:34.911+07:00,1.248,65335,33550,0
1783775914911641280,2026-07-11T20:18:34.911+07:00,1.248,65350,33582,0
1783775914911641281,2026-07-11T20:18:34.911+07:00,1.248,65380,33605,0
1783775914911641282,2026-07-11T20:18:34.911+07:00,1.248,65380,33613,0
1783775914911641283,2026-07-11T20:18:34.911+07:00,1.248,65424,33660,0
1783775914911641284,2026-07-11T20:18:34.911+07:00,1.248,65439,33699,0
1783775914911641285,2026-07-11T20:18:34.911+07:00,1.248,65558,33731,0
1783775914911641286,2026-07-11T20:18:34.911+07:00,1.248,65588,33771,0
1783775914911641287,2026-07-11T20:18:34.911+07:00,1.248,65663,33834,0
1783775914911641288,2026-07-11T20:18:34.911+07:00,1.248,65798,33922,0
1783775914911641289,2026-07-11T20:18:34.911+07:00,1.248,65888,33986,0
1783775914911641290,2026-07-11T20:18:34.911+07:00,1.248,65949,34050,0
1783775914911641291,2026-07-11T20:18:34.911+07:00,1.248,66070,34123,0
1783775914954542128,2026-07-11T20:18:34.954+07:00,1.290,66085,34147,0
1783775914954542129,2026-07-11T20:18:34.954+07:00,1.290,66055,34188,0
1783775914954542130,2026-07-11T20:18:34.954+07:00,1.290,66055,34188,0
1783775914954542131,2026-07-11T20:18:34.954+07:00,1.290,66115,34220,0
1783775914954542132,2026-07-11T20:18:34.954+07:00,1.290,66146,34261,0
1783775914954542133,2026-07-11T20:18:34.954+07:00,1.290,66191,34302,0
1783775914954542134,2026-07-11T20:18:34.954+07:00,1.290,66206,34326,0
1783775914954542135,2026-07-11T20:18:34.954+07:00,1.290,66252,34383,0
1783775914954542136,2026-07-11T20:18:34.954+07:00,1.290,66298,34400,0
1783775914954542137,2026-07-11T20:18:34.954+07:00,1.290,66313,34441,0
1783775914954542138,2026-07-11T20:18:34.954+07:00,1.290,66390,34441,0
1783775914954542139,2026-07-11T20:18:34.954+07:00,1.290,66466,34524,0
1783775914954542140,2026-07-11T20:18:34.954+07:00,1.290,66528,34565,0
1783775914954542141,2026-07-11T20:18:34.954+07:00,1.290,66604,34598,0
1783775914954542142,2026-07-11T20:18:34.954+07:00,1.290,66682,34632,0
1783775914954542143,2026-07-11T20:18:34.954+07:00,1.290,66682,34707,0
1783775914954542144,2026-07-11T20:18:34.954+07:00,1.290,66743,34740,0
1783775914994104049,2026-07-11T20:18:34.994+07:00,1.330,66774,34782,0
1783775914994104050,2026-07-11T20:18:34.994+07:00,1.330,66836,34782,0
1783775914994104051,2026-07-11T20:18:34.994+07:00,1.330,66836,34816,0
1783775914994104052,2026-07-11T20:18:34.994+07:00,1.330,66852,34841,0
1783775914994104053,2026-07-11T20:18:34.994+07:00,1.330,66852,34883,0
1783775914994104054,2026-07-11T20:18:34.994+07:00,1.330,66836,34892,0
1783775914994104055,2026-07-11T20:18:34.994+07:00,1.330,66836,34934,0
1783775914994104056,2026-07-11T20:18:34.994+07:00,1.330,66836,34942,0
1783775914994104057,2026-07-11T20:18:34.994+07:00,1.330,66945,35002,0
1783775914994104058,2026-07-11T20:18:34.994+07:00,1.330,66898,35002,0
1783775914994104059,2026-07-11T20:18:34.994+07:00,1.330,66945,35036,0
1783775914994104060,2026-07-11T20:18:34.994+07:00,1.330,66945,35036,0
1783775914994104061,2026-07-11T20:18:34.994+07:00,1.330,66930,35027,0
1783775914994104062,2026-07-11T20:18:34.994+07:00,1.330,66961,35027,0
1783775914994104063,2026-07-11T20:18:34.994+07:00,1.330,66945,35070,0
1783775914994104064,2026-07-11T20:18:34.994+07:00,1.330,66961,35062,0
1783775915036764546,2026-07-11T20:18:35.036+07:00,1.373,66992,35079,0
1783775915036764547,2026-07-11T20:18:35.036+07:00,1.373,66961,35079,0
1783775915036764548,2026-07-11T20:18:35.036+07:00,1.373,66961,35062,0
1783775915036764549,2026-07-11T20:18:35.036+07:00,1.373,66961,35079,0
1783775915036764550,2026-07-11T20:18:35.036+07:00,1.373,66976,35087,0
1783775915036764551,2026-07-11T20:18:35.036+07:00,1.373,67007,35096,0
1783775915036764552,2026-07-11T20:18:35.036+07:00,1.373,67054,35139,0
1783775915036764553,2026-07-11T20:18:35.036+07:00,1.373,67117,35216,0
1783775915036764554,2026-07-11T20:18:35.036+07:00,1.373,67195,35259,0
1783775915036764555,2026-07-11T20:18:35.036+07:00,1.373,67242,35285,0
1783775915036764556,2026-07-11T20:18:35.036+07:00,1.373,67305,35337,0
1783775915036764557,2026-07-11T20:18:35.036+07:00,1.373,67384,35372,0
1783775915036764558,2026-07-11T20:18:35.036+07:00,1.373,67431,35389,0
1783775915036764559,2026-07-11T20:18:35.036+07:00,1.373,67478,35450,0
1783775915036764560,2026-07-11T20:18:35.036+07:00,1.373,67478,35433,0
1783775915036764561,2026-07-11T20:18:35.036+07:00,1.373,67526,35476,0
1783775915036764562,2026-07-11T20:18:35.036+07:00,1.373,67621,35502,0
1783775915079570566,2026-07-11T20:18:35.079+07:00,1.415,67605,35529,0
1783775915079570567,2026-07-11T20:18:35.079+07:00,1.415,67605,35581,0
1783775915079570568,2026-07-11T20:18:35.079+07:00,1.415,67637,35599,0
1783775915079570569,2026-07-11T20:18:35.079+07:00,1.415,67700,35608,0
1783775915079570570,2026-07-11T20:18:35.079+07:00,1.415,67748,35634,0
1783775915079570571,2026-07-11T20:18:35.079+07:00,1.415,67748,35687,0
1783775915079570572,2026-07-11T20:18:35.079+07:00,1.415,67780,35732,0
1783775915079570573,2026-07-11T20:18:35.079+07:00,1.415,67796,35740,0
1783775915079570574,2026-07-11T20:18:35.079+07:00,1.415,67892,35740,0
1783775915079570575,2026-07-11T20:18:35.079+07:00,1.415,67924,35811,0
1783775915079570576,2026-07-11T20:18:35.079+07:00,1.415,67956,35847,0
1783775915079570577,2026-07-11T20:18:35.079+07:00,1.415,68020,35892,0
1783775915079570578,2026-07-11T20:18:35.079+07:00,1.415,68069,35919,0
1783775915079570579,2026-07-11T20:18:35.079+07:00,1.415,68052,35928,0
1783775915079570580,2026-07-11T20:18:35.079+07:00,1.415,68101,35991,0
1783775915079570581,2026-07-11T20:18:35.079+07:00,1.415,68181,36048,0
1783775915079570582,2026-07-11T20:18:35.079+07:00,1.415,68197,36066,0
1783775915121288434,2026-07-11T20:18:35.121+07:00,1.457,68214,36072,0
1783775915121288435,2026-07-11T20:18:35.121+07:00,1.457,68262,36126,0
1783775915121288436,2026-07-11T20:18:35.121+07:00,1.457,68294,36150,0
1783775915121288437,2026-07-11T20:18:35.121+07:00,1.457,68392,36193,0
1783775915121288438,2026-07-11T20:18:35.121+07:00,1.457,68359,36205,0
1783775915121288439,2026-07-11T20:18:35.121+07:00,1.457,68441,36272,0
1783775915121288440,2026-07-11T20:18:35.121+07:00,1.457,68489,36333,0
1783775915121288441,2026-07-11T20:18:35.121+07:00,1.457,68522,36357,0
1783775915121288442,2026-07-11T20:18:35.121+07:00,1.457,68604,36400,0
1783775915121288443,2026-07-11T20:18:35.121+07:00,1.457,68636,36455,0
1783775915121288444,2026-07-11T20:18:35.121+07:00,1.457,68685,36498,0
1783775915121288445,2026-07-11T20:18:35.121+07:00,1.457,68718,36548,0
1783775915121288446,2026-07-11T20:18:35.121+07:00,1.457,68751,36585,0
1783775915121288447,2026-07-11T20:18:35.121+07:00,1.457,68833,36647,0
1783775915121288448,2026-07-11T20:18:35.121+07:00,1.457,68899,36722,0
1783775915121288449,2026-07-11T20:18:35.121+07:00,1.457,68916,36759,0
1783775915121288450,2026-07-11T20:18:35.121+07:00,1.457,68998,36809,0
1783775915161916423,2026-07-11T20:18:35.161+07:00,1.498,69097,36885,0
1783775915161916424,2026-07-11T20:18:35.161+07:00,1.498,69147,36954,0
1783775915161916425,2026-07-11T20:18:35.161+07:00,1.498,69247,37017,0
1783775915161916426,2026-07-11T20:18:35.161+07:00,1.498,69314,37087,0
1783775915161916427,2026-07-11T20:18:35.161+07:00,1.498,69347,37164,0
1783775915161916428,2026-07-11T20:18:35.161+07:00,1.498,69447,37215,0
1783775915161916429,2026-07-11T20:18:35.161+07:00,1.498,69514,37286,0
1783775915161916430,2026-07-11T20:18:35.161+07:00,1.498,69598,37376,0
1783775915161916431,2026-07-11T20:18:35.161+07:00,1.498,69666,37422,0
1783775915161916432,2026-07-11T20:18:35.161+07:00,1.498,69699,37506,0
1783775915161916433,2026-07-11T20:18:35.161+07:00,1.498,69801,37571,0
1783775915161916434,2026-07-11T20:18:35.161+07:00,1.498,69885,37637,0
1783775915161916435,2026-07-11T20:18:35.161+07:00,1.498,69919,37696,0
1783775915161916436,2026-07-11T20:18:35.161+07:00,1.498,70004,37788,0
1783775915161916437,2026-07-11T20:18:35.161+07:00,1.498,70072,37841,0
1783775915161916438,2026-07-11T20:18:35.161+07:00,1.498,70124,37888,0
1783775915201428628,2026-07-11T20:18:35.201+07:00,1.537,70175,37961,0
1783775915201428629,2026-07-11T20:18:35.201+07:00,1.537,70261,38014,0
1783775915201428630,2026-07-11T20:18:35.201+07:00,1.537,70278,38054,0
1783775915201428631,2026-07-11T20:18:35.201+07:00,1.537,70346,38115,0
1783775915201428632,2026-07-11T20:18:35.201+07:00,1.537,70346,38162,0
1783775915201428633,2026-07-11T20:18:35.201+07:00,1.537,70381,38203,0
1783775915201428634,2026-07-11T20:18:35.201+07:00,1.537,70432,38250,0
1783775915201428635,2026-07-11T20:18:35.201+07:00,1.537,70484,38291,0
1783775915201428636,2026-07-11T20:18:35.201+07:00,1.537,70501,38345,0
1783775915201428637,2026-07-11T20:18:35.201+07:00,1.537,70553,38406,0
1783775915201428638,2026-07-11T20:18:35.201+07:00,1.537,70622,38447,0
1783775915201428639,2026-07-11T20:18:35.201+07:00,1.537,70640,38495,0
1783775915201428640,2026-07-11T20:18:35.201+07:00,1.537,70692,38537,0
1783775915201428641,2026-07-11T20:18:35.201+07:00,1.537,70744,38571,0
1783775915201428642,2026-07-11T20:18:35.201+07:00,1.537,70761,38605,0
1783775915201428643,2026-07-11T20:18:35.201+07:00,1.537,70779,38626,0
1783775915244041122,2026-07-11T20:18:35.244+07:00,1.580,70831,38681,0
1783775915244041123,2026-07-11T20:18:35.244+07:00,1.580,70866,38737,0
1783775915244041124,2026-07-11T20:18:35.244+07:00,1.580,70918,38793,0
1783775915244041125,2026-07-11T20:18:35.244+07:00,1.580,70953,38807,0
1783775915244041126,2026-07-11T20:18:35.244+07:00,1.580,70988,38820,0
1783775915244041127,2026-07-11T20:18:35.244+07:00,1.580,70970,38883,0
1783775915244041128,2026-07-11T20:18:35.244+07:00,1.580,71058,38918,0
1783775915244041129,2026-07-11T20:18:35.244+07:00,1.580,71093,38961,0
1783775915244041130,2026-07-11T20:18:35.244+07:00,1.580,71093,38989,0
1783775915244041131,2026-07-11T20:18:35.244+07:00,1.580,71146,39024,0
1783775915244041132,2026-07-11T20:18:35.244+07:00,1.580,71181,39087,0
1783775915244041133,2026-07-11T20:18:35.244+07:00,1.580,71234,39102,0
1783775915244041134,2026-07-11T20:18:35.244+07:00,1.580,71251,39158,0
1783775915244041135,2026-07-11T20:18:35.244+07:00,1.580,71304,39194,0
1783775915244041136,2026-07-11T20:18:35.244+07:00,1.580,71322,39215,0
1783775915244041137,2026-07-11T20:18:35.244+07:00,1.580,71357,39265,0
1783775915244041138,2026-07-11T20:18:35.244+07:00,1.580,71446,39315,0
1783775915287600116,2026-07-11T20:18:35.287+07:00,1.623,71446,39344,0
1783775915287600117,2026-07-11T20:18:35.287+07:00,1.623,71464,39387,0
1783775915287600118,2026-07-11T20:18:35.287+07:00,1.623,71552,39423,0
1783775915287600119,2026-07-11T20:18:35.287+07:00,1.623,71570,39437,0
1783775915287600120,2026-07-11T20:18:35.287+07:00,1.623,71588,39502,0
1783775915287600121,2026-07-11T20:18:35.287+07:00,1.623,71606,39531,0
1783775915287600122,2026-07-11T20:18:35.287+07:00,1.623,71677,39560,0
1783775915287600123,2026-07-11T20:18:35.287+07:00,1.623,71713,39574,0
1783775915287600124,2026-07-11T20:18:35.287+07:00,1.623,71748,39625,0
1783775915287600125,2026-07-11T20:18:35.287+07:00,1.623,71748,39625,0
1783775915287600126,2026-07-11T20:18:35.287+07:00,1.623,71802,39698,0
1783775915287600127,2026-07-11T20:18:35.287+07:00,1.623,71820,39713,0
1783775915287600128,2026-07-11T20:18:35.287+07:00,1.623,71874,39757,0
1783775915287600129,2026-07-11T20:18:35.287+07:00,1.623,71856,39771,0
1783775915287600130,2026-07-11T20:18:35.287+07:00,1.623,71928,39808,0
1783775915287600131,2026-07-11T20:18:35.287+07:00,1.623,71928,39830,0
1783775915287600132,2026-07-11T20:18:35.287+07:00,1.623,71946,39867,0
1783775915328787023,2026-07-11T20:18:35.328+07:00,1.665,71946,39911,0
1783775915328787024,2026-07-11T20:18:35.328+07:00,1.665,72060,39940,0
1783775915328787025,2026-07-11T20:18:35.328+07:00,1.665,72084,39977,0
1783775915328787026,2026-07-11T20:18:35.328+07:00,1.665,72120,39970,0
1783775915328787027,2026-07-11T20:18:35.328+07:00,1.665,72120,40022,0
1783775915328787028,2026-07-11T20:18:35.328+07:00,1.665,72168,40029,0
1783775915328787029,2026-07-11T20:18:35.328+07:00,1.665,72180,40061,0
1783775915328787030,2026-07-11T20:18:35.328+07:00,1.665,72216,40061,0
1783775915328787031,2026-07-11T20:18:35.328+07:00,1.665,72240,40061,0
1783775915328787032,2026-07-11T20:18:35.328+07:00,1.665,72252,40072,0
1783775915328787033,2026-07-11T20:18:35.328+07:00,1.665,72277,40089,0
1783775915328787034,2026-07-11T20:18:35.328+07:00,1.665,72325,40128,0
1783775915328787035,2026-07-11T20:18:35.328+07:00,1.665,72313,40122,0
1783775915328787036,2026-07-11T20:18:35.328+07:00,1.665,72325,40128,0
1783775915328787037,2026-07-11T20:18:35.328+07:00,1.665,72349,40161,0
1783775915328787038,2026-07-11T20:18:35.328+07:00,1.665,72349,40172,0
1783775915328787039,2026-07-11T20:18:35.328+07:00,1.665,72373,40201,0
1783775915328787040,2026-07-11T20:18:35.328+07:00,1.665,72410,40201,0
1783775915368823124,2026-07-11T20:18:35.368+07:00,1.705,72422,40229,0
1783775915368823125,2026-07-11T20:18:35.368+07:00,1.705,72458,40245,0
1783775915368823126,2026-07-11T20:18:35.368+07:00,1.705,72483,40257,0
1783775915368823127,2026-07-11T20:18:35.368+07:00,1.705,72495,40302,0
1783775915368823128,2026-07-11T20:18:35.368+07:00,1.705,72507,40302,0
1783775915368823129,2026-07-11T20:18:35.368+07:00,1.705,72507,40302,0
1783775915368823130,2026-07-11T20:18:35.368+07:00,1.705,72531,40313,0
1783775915368823131,2026-07-11T20:18:35.368+07:00,1.705,72544,40341,0
1783775915368823132,2026-07-11T20:18:35.368+07:00,1.705,72519,40336,0
1783775915368823133,2026-07-11T20:18:35.368+07:00,1.705,72568,40341,0
1783775915368823134,2026-07-11T20:18:35.368+07:00,1.705,72568,40353,0
1783775915368823135,2026-07-11T20:18:35.368+07:00,1.705,72568,40313,0
1783775915368823136,2026-07-11T20:18:35.368+07:00,1.705,72568,40341,0
1783775915368823137,2026-07-11T20:18:35.368+07:00,1.705,72544,40324,0
1783775915368823138,2026-07-11T20:18:35.368+07:00,1.705,72507,40302,0
1783775915411079832,2026-07-11T20:18:35.411+07:00,1.747,72495,40251,0
1783775915411079833,2026-07-11T20:18:35.411+07:00,1.747,72446,40195,0
1783775915411079834,2026-07-11T20:18:35.411+07:00,1.747,72398,40172,0
1783775915411079835,2026-07-11T20:18:35.411+07:00,1.747,72325,40094,0
1783775915411079836,2026-07-11T20:18:35.411+07:00,1.747,72240,39988,0
1783775915411079837,2026-07-11T20:18:35.411+07:00,1.747,72132,39872,0
1783775915411079838,2026-07-11T20:18:35.411+07:00,1.747,71982,39720,0
1783775915411079839,2026-07-11T20:18:35.411+07:00,1.747,71820,39582,0
1783775915411079840,2026-07-11T20:18:35.411+07:00,1.747,71641,39408,0
1783775915411079841,2026-07-11T20:18:35.411+07:00,1.747,71393,39208,0
1783775915411079842,2026-07-11T20:18:35.411+07:00,1.747,71234,38989,0
1783775915411079843,2026-07-11T20:18:35.411+07:00,1.747,70935,38709,0
1783775915411079844,2026-07-11T20:18:35.411+07:00,1.747,70726,38454,0
1783775915411079845,2026-07-11T20:18:35.411+07:00,1.747,70432,38176,0
1783775915411079846,2026-07-11T20:18:35.411+07:00,1.747,70141,37901,0
1783775915411079847,2026-07-11T20:18:35.411+07:00,1.747,69885,37643,0
1783775915411079848,2026-07-11T20:18:35.411+07:00,1.747,69632,37389,0
1783775915453849889,2026-07-11T20:18:35.453+07:00,1.790,69397,37138,0
1783775915453849890,2026-07-11T20:18:35.453+07:00,1.790,69164,36929,0
1783775915453849891,2026-07-11T20:18:35.453+07:00,1.790,68932,36691,0
1783775915453849892,2026-07-11T20:18:35.453+07:00,1.790,68735,36492,0
1783775915453849893,2026-07-11T20:18:35.453+07:00,1.790,68538,36308,0
1783775915453849894,2026-07-11T20:18:35.453+07:00,1.790,68392,36120,0
1783775915453849895,2026-07-11T20:18:35.453+07:00,1.790,68230,35928,0
1783775915453849896,2026-07-11T20:18:35.453+07:00,1.790,68052,35794,0
1783775915453849897,2026-07-11T20:18:35.453+07:00,1.790,67924,35652,0
1783775915453849898,2026-07-11T20:18:35.453+07:00,1.790,67812,35538,0
1783775915453849899,2026-07-11T20:18:35.453+07:00,1.790,67669,35406,0
1783775915453849900,2026-07-11T20:18:35.453+07:00,1.790,67589,35276,0
1783775915453849901,2026-07-11T20:18:35.453+07:00,1.790,67478,35173,0
1783775915453849902,2026-07-11T20:18:35.453+07:00,1.790,67384,35121,0
1783775915453849903,2026-07-11T20:18:35.453+07:00,1.790,67289,35027,0
1783775915453849904,2026-07-11T20:18:35.453+07:00,1.790,67242,34968,0
1783775915453849905,2026-07-11T20:18:35.453+07:00,1.790,67195,34883,0
1783775915496166754,2026-07-11T20:18:35.496+07:00,1.832,67132,34841,0
1783775915496166755,2026-07-11T20:18:35.496+07:00,1.832,67085,34774,0
1783775915496166756,2026-07-11T20:18:35.496+07:00,1.832,67023,34707,0
1783775915496166757,2026-07-11T20:18:35.496+07:00,1.832,66992,34690,0
1783775915496166758,2026-07-11T20:18:35.496+07:00,1.832,66961,34673,0
1783775915496166759,2026-07-11T20:18:35.496+07:00,1.832,66930,34607,0
1783775915496166760,2026-07-11T20:18:35.496+07:00,1.832,66883,34548,0
1783775915496166761,2026-07-11T20:18:35.496+07:00,1.832,66852,34548,0
1783775915496166762,2026-07-11T20:18:35.496+07:00,1.832,66821,34524,0
1783775915496166763,2026-07-11T20:18:35.496+07:00,1.832,66805,34491,0
1783775915496166764,2026-07-11T20:18:35.496+07:00,1.832,66790,34482,0
1783775915496166765,2026-07-11T20:18:35.496+07:00,1.832,66790,34482,0
1783775915496166766,2026-07-11T20:18:35.496+07:00,1.832,66790,34474,0
1783775915496166767,2026-07-11T20:18:35.496+07:00,1.832,66805,34482,0
1783775915496166768,2026-07-11T20:18:35.496+07:00,1.832,66790,34466,0
1783775915496166769,2026-07-11T20:18:35.496+07:00,1.832,66821,34449,0
1783775915496166770,2026-07-11T20:18:35.496+07:00,1.832,66774,34466,0
1783775915538403031,2026-07-11T20:18:35.538+07:00,1.874,66790,34499,0
1783775915538403032,2026-07-11T20:18:35.538+07:00,1.874,66774,34474,0
1783775915538403033,2026-07-11T20:18:35.538+07:00,1.874,66790,34499,0
1783775915538403034,2026-07-11T20:18:35.538+07:00,1.874,66852,34507,0
1783775915538403035,2026-07-11T20:18:35.538+07:00,1.874,66883,34532,0
1783775915538403036,2026-07-11T20:18:35.538+07:00,1.874,66867,34532,0
1783775915538403037,2026-07-11T20:18:35.538+07:00,1.874,66930,34565,0
1783775915538403038,2026-07-11T20:18:35.538+07:00,1.874,66961,34565,0
1783775915538403039,2026-07-11T20:18:35.538+07:00,1.874,66945,34598,0
1783775915538403040,2026-07-11T20:18:35.538+07:00,1.874,66992,34615,0
1783775915538403041,2026-07-11T20:18:35.538+07:00,1.874,67054,34665,0
1783775915538403042,2026-07-11T20:18:35.538+07:00,1.874,67085,34673,0
1783775915538403043,2026-07-11T20:18:35.538+07:00,1.874,67164,34698,0
1783775915538403044,2026-07-11T20:18:35.538+07:00,1.874,67148,34732,0
1783775915538403045,2026-07-11T20:18:35.538+07:00,1.874,67195,34799,0
1783775915538403046,2026-07-11T20:18:35.538+07:00,1.874,67258,34782,0
1783775915538403047,2026-07-11T20:18:35.538+07:00,1.874,67305,34841,0
1783775915575934101,2026-07-11T20:18:35.575+07:00,1.912,67336,34841,0
1783775915575934102,2026-07-11T20:18:35.575+07:00,1.912,67368,34900,0
1783775915575934103,2026-07-11T20:18:35.575+07:00,1.912,67399,34942,0
1783775915575934104,2026-07-11T20:18:35.575+07:00,1.912,67431,34968,0
1783775915575934105,2026-07-11T20:18:35.575+07:00,1.912,67478,34993,0
1783775915575934106,2026-07-11T20:18:35.575+07:00,1.912,67494,35010,0
1783775915575934107,2026-07-11T20:18:35.575+07:00,1.912,67589,35070,0
1783775915575934108,2026-07-11T20:18:35.575+07:00,1.912,67605,35113,0
1783775915575934109,2026-07-11T20:18:35.575+07:00,1.912,67637,35130,0
1783775915575934110,2026-07-11T20:18:35.575+07:00,1.912,67669,35173,0
1783775915575934111,2026-07-11T20:18:35.575+07:00,1.912,67716,35207,0
1783775915575934112,2026-07-11T20:18:35.575+07:00,1.912,67748,35242,0
1783775915575934113,2026-07-11T20:18:35.575+07:00,1.912,67796,35285,0
1783775915575934114,2026-07-11T20:18:35.575+07:00,1.912,67860,35320,0
1783775915575934115,2026-07-11T20:18:35.575+07:00,1.912,67908,35380,0
1783775915618384369,2026-07-11T20:18:35.618+07:00,1.954,67956,35424,0
1783775915618384370,2026-07-11T20:18:35.618+07:00,1.954,67988,35450,0
1783775915618384371,2026-07-11T20:18:35.618+07:00,1.954,68052,35450,0
1783775915618384372,2026-07-11T20:18:35.618+07:00,1.954,68069,35538,0
1783775915618384373,2026-07-11T20:18:35.618+07:00,1.954,68133,35564,0
1783775915618384374,2026-07-11T20:18:35.618+07:00,1.954,68197,35634,0
1783775915618384375,2026-07-11T20:18:35.618+07:00,1.954,68230,35652,0
1783775915618384376,2026-07-11T20:18:35.618+07:00,1.954,68311,35705,0
1783775915618384377,2026-07-11T20:18:35.618+07:00,1.954,68327,35794,0
1783775915618384378,2026-07-11T20:18:35.618+07:00,1.954,68392,35776,0
1783775915618384379,2026-07-11T20:18:35.618+07:00,1.954,68473,35865,0
1783775915618384380,2026-07-11T20:18:35.618+07:00,1.954,68457,35874,0
1783775915618384381,2026-07-11T20:18:35.618+07:00,1.954,68522,35937,0
1783775915618384382,2026-07-11T20:18:35.618+07:00,1.954,68587,35982,0
1783775915618384383,2026-07-11T20:18:35.618+07:00,1.954,68620,36012,0
1783775915618384384,2026-07-11T20:18:35.618+07:00,1.954,68669,36042,0
1783775915618384385,2026-07-11T20:18:35.618+07:00,1.954,68685,36072,0
1783775915618384386,2026-07-11T20:18:35.618+07:00,1.954,68735,36084,0
1783775915663233215,2026-07-11T20:18:35.663+07:00,1.999,68784,36102,0
1783775915663233216,2026-07-11T20:18:35.663+07:00,1.999,68817,36162,0
1783775915663233217,2026-07-11T20:18:35.663+07:00,1.999,68833,36168,0
1783775915663233218,2026-07-11T20:18:35.663+07:00,1.999,68899,36193,0
1783775915663233219,2026-07-11T20:18:35.663+07:00,1.999,68916,36217,0
1783775915663233220,2026-07-11T20:18:35.663+07:00,1.999,68949,36247,0
1783775915663233221,2026-07-11T20:18:35.663+07:00,1.999,68949,36247,0
1783775915663233222,2026-07-11T20:18:35.663+07:00,1.999,68982,36265,0
1783775915663233223,2026-07-11T20:18:35.663+07:00,1.999,68998,36265,0
1783775915663233224,2026-07-11T20:18:35.663+07:00,1.999,69015,36284,0
1783775915663233225,2026-07-11T20:18:35.663+07:00,1.999,68998,36296,0
1783775915663233226,2026-07-11T20:18:35.663+07:00,1.999,69015,36296,0
1783775915663233227,2026-07-11T20:18:35.663+07:00,1.999,69031,36290,0
1783775915663233228,2026-07-11T20:18:35.663+07:00,1.999,69015,36259,0
1783775915663233229,2026-07-11T20:18:35.663+07:00,1.999,69015,36265,0
1783775915663233230,2026-07-11T20:18:35.663+07:00,1.999,69031,36265,0
1783775915663233231,2026-07-11T20:18:35.663+07:00,1.999,68998,36253,0
1783775915705720392,2026-07-11T20:18:35.705+07:00,2.042,68998,36235,0
1783775915705720393,2026-07-11T20:18:35.705+07:00,2.042,68998,36235,0
1783775915705720394,2026-07-11T20:18:35.705+07:00,2.042,68998,36223,0
1783775915705720395,2026-07-11T20:18:35.705+07:00,2.042,68949,36199,0
1783775915705720396,2026-07-11T20:18:35.705+07:00,2.042,68949,36193,0
1783775915705720397,2026-07-11T20:18:35.705+07:00,2.042,68965,36168,0
1783775915705720398,2026-07-11T20:18:35.705+07:00,2.042,68949,36144,0
1783775915705720399,2026-07-11T20:18:35.705+07:00,2.042,68932,36126,0
1783775915705720400,2026-07-11T20:18:35.705+07:00,2.042,68899,36102,0
1783775915705720401,2026-07-11T20:18:35.705+07:00,2.042,68850,36090,0
1783775915705720402,2026-07-11T20:18:35.705+07:00,2.042,68899,36084,0
1783775915705720403,2026-07-11T20:18:35.705+07:00,2.042,68866,36054,0
1783775915705720404,2026-07-11T20:18:35.705+07:00,2.042,68883,36024,0
1783775915705720405,2026-07-11T20:18:35.705+07:00,2.042,68850,35994,0
1783775915705720406,2026-07-11T20:18:35.705+07:00,2.042,68800,35982,0
1783775915705720407,2026-07-11T20:18:35.705+07:00,2.042,68800,35982,0
1783775915705720408,2026-07-11T20:18:35.705+07:00,2.042,68767,35982,0
1783775915748296170,2026-07-11T20:18:35.748+07:00,2.084,68767,35964,0
1783775915748296171,2026-07-11T20:18:35.748+07:00,2.084,68718,35964,0
1783775915748296172,2026-07-11T20:18:35.748+07:00,2.084,68718,35928,0
1783775915748296173,2026-07-11T20:18:35.748+07:00,2.084,68767,35928,0
1783775915748296174,2026-07-11T20:18:35.748+07:00,2.084,68702,35964,0
1783775915748296175,2026-07-11T20:18:35.748+07:00,2.084,68718,35937,0
1783775915748296176,2026-07-11T20:18:35.748+07:00,2.084,68751,35901,0
1783775915748296177,2026-07-11T20:18:35.748+07:00,2.084,68718,35928,0
1783775915748296178,2026-07-11T20:18:35.748+07:00,2.084,68735,35919,0
1783775915748296179,2026-07-11T20:18:35.748+07:00,2.084,68718,35937,0
1783775915748296180,2026-07-11T20:18:35.748+07:00,2.084,68767,35910,0
1783775915748296181,2026-07-11T20:18:35.748+07:00,2.084,68767,35946,0
1783775915748296182,2026-07-11T20:18:35.748+07:00,2.084,68767,35928,0
1783775915748296183,2026-07-11T20:18:35.748+07:00,2.084,68767,35937,0
1783775915748296184,2026-07-11T20:18:35.748+07:00,2.084,68817,35973,0
1783775915748296185,2026-07-11T20:18:35.748+07:00,2.084,68767,35973,0
1783775915748296186,2026-07-11T20:18:35.748+07:00,2.084,68784,35964,0
1783775915785502040,2026-07-11T20:18:35.785+07:00,2.121,68850,36006,0
1783775915785502041,2026-07-11T20:18:35.785+07:00,2.121,68850,36012,0
1783775915785502042,2026-07-11T20:18:35.785+07:00,2.121,68883,36042,0
1783775915785502043,2026-07-11T20:18:35.785+07:00,2.121,68932,36054,0
1783775915785502044,2026-07-11T20:18:35.785+07:00,2.121,68932,36054,0
1783775915785502045,2026-07-11T20:18:35.785+07:00,2.121,68949,36072,0
1783775915785502046,2026-07-11T20:18:35.785+07:00,2.121,68982,36090,0
1783775915785502047,2026-07-11T20:18:35.785+07:00,2.121,68982,36114,0
1783775915785502048,2026-07-11T20:18:35.785+07:00,2.121,69015,36144,0
1783775915785502049,2026-07-11T20:18:35.785+07:00,2.121,69081,36156,0
1783775915785502050,2026-07-11T20:18:35.785+07:00,2.121,69081,36174,0
1783775915785502051,2026-07-11T20:18:35.785+07:00,2.121,69081,36199,0
1783775915785502052,2026-07-11T20:18:35.785+07:00,2.121,69097,36205,0
1783775915785502053,2026-07-11T20:18:35.785+07:00,2.121,69164,36229,0
1783775915785502054,2026-07-11T20:18:35.785+07:00,2.121,69164,36265,0
1783775915828180913,2026-07-11T20:18:35.828+07:00,2.164,69180,36308,0
1783775915828180914,2026-07-11T20:18:35.828+07:00,2.164,69214,36314,0
1783775915828180915,2026-07-11T20:18:35.828+07:00,2.164,69264,36351,0
1783775915828180916,2026-07-11T20:18:35.828+07:00,2.164,69330,36406,0
1783775915828180917,2026-07-11T20:18:35.828+07:00,2.164,69314,36400,0
1783775915828180918,2026-07-11T20:18:35.828+07:00,2.164,69314,36418,0
1783775915828180919,2026-07-11T20:18:35.828+07:00,2.164,69347,36486,0
1783775915828180920,2026-07-11T20:18:35.828+07:00,2.164,69380,36504,0
1783775915828180921,2026-07-11T20:18:35.828+07:00,2.164,69397,36542,0
1783775915828180922,2026-07-11T20:18:35.828+07:00,2.164,69464,36591,0
1783775915828180923,2026-07-11T20:18:35.828+07:00,2.164,69514,36597,0
1783775915828180924,2026-07-11T20:18:35.828+07:00,2.164,69531,36628,0
1783775915828180925,2026-07-11T20:18:35.828+07:00,2.164,69565,36684,0
1783775915828180926,2026-07-11T20:18:35.828+07:00,2.164,69598,36715,0
1783775915828180927,2026-07-11T20:18:35.828+07:00,2.164,69666,36753,0
1783775915828180928,2026-07-11T20:18:35.828+07:00,2.164,69666,36778,0
1783775915828180929,2026-07-11T20:18:35.828+07:00,2.164,69716,36809,0
1783775915868089564,2026-07-11T20:18:35.868+07:00,2.204,69750,36847,0
1783775915868089565,2026-07-11T20:18:35.868+07:00,2.204,69733,36897,0
1783775915868089566,2026-07-11T20:18:35.868+07:00,2.204,69852,36916,0
1783775915868089567,2026-07-11T20:18:35.868+07:00,2.204,69902,36967,0
1783775915868089568,2026-07-11T20:18:35.868+07:00,2.204,69885,36973,0
1783775915868089569,2026-07-11T20:18:35.868+07:00,2.204,69936,37011,0
1783775915868089570,2026-07-11T20:18:35.868+07:00,2.204,69970,37049,0
1783775915868089571,2026-07-11T20:18:35.868+07:00,2.204,69970,37087,0
1783775915868089572,2026-07-11T20:18:35.868+07:00,2.204,70004,37138,0
1783775915868089573,2026-07-11T20:18:35.868+07:00,2.204,70038,37145,0
1783775915868089574,2026-07-11T20:18:35.868+07:00,2.204,70038,37183,0
1783775915868089575,2026-07-11T20:18:35.868+07:00,2.204,70055,37190,0
1783775915868089576,2026-07-11T20:18:35.868+07:00,2.204,70124,37228,0
1783775915868089577,2026-07-11T20:18:35.868+07:00,2.204,70141,37267,0
1783775915868089578,2026-07-11T20:18:35.868+07:00,2.204,70175,37312,0
1783775915868089579,2026-07-11T20:18:35.868+07:00,2.204,70192,37344,0
1783775915910424923,2026-07-11T20:18:35.910+07:00,2.246,70226,37363,0
1783775915910424924,2026-07-11T20:18:35.910+07:00,2.246,70278,37396,0
1783775915910424925,2026-07-11T20:18:35.910+07:00,2.246,70329,37422,0
1783775915910424926,2026-07-11T20:18:35.910+07:00,2.246,70329,37460,0
1783775915910424927,2026-07-11T20:18:35.910+07:00,2.246,70364,37486,0
1783775915910424928,2026-07-11T20:18:35.910+07:00,2.246,70346,37493,0
1783775915910424929,2026-07-11T20:18:35.910+07:00,2.246,70398,37532,0
1783775915910424930,2026-07-11T20:18:35.910+07:00,2.246,70432,37558,0
1783775915910424931,2026-07-11T20:18:35.910+07:00,2.246,70467,37578,0
1783775915910424932,2026-07-11T20:18:35.910+07:00,2.246,70467,37637,0
1783775915910424933,2026-07-11T20:18:35.910+07:00,2.246,70467,37637,0
1783775915910424934,2026-07-11T20:18:35.910+07:00,2.246,70501,37643,0
1783775915910424935,2026-07-11T20:18:35.910+07:00,2.246,70536,37683,0
1783775915910424936,2026-07-11T20:18:35.910+07:00,2.246,70553,37716,0
1783775915910424937,2026-07-11T20:18:35.910+07:00,2.246,70570,37742,0
1783775915910424938,2026-07-11T20:18:35.910+07:00,2.246,70622,37755,0
1783775915910424939,2026-07-11T20:18:35.910+07:00,2.246,70588,37768,0
1783775915952879414,2026-07-11T20:18:35.952+07:00,2.289,70622,37808,0
1783775915952879415,2026-07-11T20:18:35.952+07:00,2.289,70674,37808,0
1783775915952879416,2026-07-11T20:18:35.952+07:00,2.289,70640,37841,0
1783775915952879417,2026-07-11T20:18:35.952+07:00,2.289,70674,37848,0
1783775915952879418,2026-07-11T20:18:35.952+07:00,2.289,70692,37868,0
1783775915952879419,2026-07-11T20:18:35.952+07:00,2.289,70709,37908,0
1783775915952879420,2026-07-11T20:18:35.952+07:00,2.289,70726,37928,0
1783775915952879421,2026-07-11T20:18:35.952+07:00,2.289,70761,37934,0
1783775915952879422,2026-07-11T20:18:35.952+07:00,2.289,70779,37947,0
1783775915952879423,2026-07-11T20:18:35.952+07:00,2.289,70813,37961,0
1783775915952879424,2026-07-11T20:18:35.952+07:00,2.289,70796,38008,0
1783775915952879425,2026-07-11T20:18:35.952+07:00,2.289,70848,37994,0
1783775915952879426,2026-07-11T20:18:35.952+07:00,2.289,70848,38034,0
1783775915952879427,2026-07-11T20:18:35.952+07:00,2.289,70866,38048,0
1783775915952879428,2026-07-11T20:18:35.952+07:00,2.289,70918,38075,0
1783775915952879429,2026-07-11T20:18:35.952+07:00,2.289,70953,38115,0
1783775915952879430,2026-07-11T20:18:35.952+07:00,2.289,70918,38135,0
1783775915990263617,2026-07-11T20:18:35.990+07:00,2.326,71005,38155,0
1783775915990263618,2026-07-11T20:18:35.990+07:00,2.326,70970,38176,0
1783775915990263619,2026-07-11T20:18:35.990+07:00,2.326,71023,38203,0
1783775915990263620,2026-07-11T20:18:35.990+07:00,2.326,71040,38223,0
1783775915990263621,2026-07-11T20:18:35.990+07:00,2.326,71040,38230,0
1783775915990263622,2026-07-11T20:18:35.990+07:00,2.326,71076,38243,0
1783775915990263623,2026-07-11T20:18:35.990+07:00,2.326,71093,38270,0
1783775915990263624,2026-07-11T20:18:35.990+07:00,2.326,71093,38311,0
1783775915990263625,2026-07-11T20:18:35.990+07:00,2.326,71093,38331,0
1783775915990263626,2026-07-11T20:18:35.990+07:00,2.326,71111,38345,0
1783775915990263627,2026-07-11T20:18:35.990+07:00,2.326,71146,38359,0
1783775915990263628,2026-07-11T20:18:35.990+07:00,2.326,71181,38386,0
1783775915990263629,2026-07-11T20:18:35.990+07:00,2.326,71163,38400,0
1783775915990263630,2026-07-11T20:18:35.990+07:00,2.326,71199,38400,0
1783775915990263631,2026-07-11T20:18:35.990+07:00,2.326,71216,38406,0
1783775916032854175,2026-07-11T20:18:36.032+07:00,2.369,71216,38420,0
1783775916032854176,2026-07-11T20:18:36.032+07:00,2.369,71216,38427,0
1783775916032854177,2026-07-11T20:18:36.032+07:00,2.369,71181,38379,0
1783775916032854178,2026-07-11T20:18:36.032+07:00,2.369,71163,38365,0
1783775916032854179,2026-07-11T20:18:36.032+07:00,2.369,71128,38338,0
1783775916032854180,2026-07-11T20:18:36.032+07:00,2.369,71093,38291,0
1783775916032854181,2026-07-11T20:18:36.032+07:00,2.369,71023,38230,0
1783775916032854182,2026-07-11T20:18:36.032+07:00,2.369,70935,38128,0
1783775916032854183,2026-07-11T20:18:36.032+07:00,2.369,70813,38028,0
1783775916032854184,2026-07-11T20:18:36.032+07:00,2.369,70709,37921,0
1783775916032854185,2026-07-11T20:18:36.032+07:00,2.369,70570,37768,0
1783775916032854186,2026-07-11T20:18:36.032+07:00,2.369,70381,37597,0
1783775916032854187,2026-07-11T20:18:36.032+07:00,2.369,70209,37415,0
1783775916032854188,2026-07-11T20:18:36.032+07:00,2.369,70021,37215,0
1783775916032854189,2026-07-11T20:18:36.032+07:00,2.369,69801,37005,0
1783775916032854190,2026-07-11T20:18:36.032+07:00,2.369,69598,36765,0
1783775916032854191,2026-07-11T20:18:36.032+07:00,2.369,69431,36572,0
1783775916075147990,2026-07-11T20:18:36.075+07:00,2.411,69247,36382,0
1783775916075147991,2026-07-11T20:18:36.075+07:00,2.411,69015,36174,0
1783775916075147992,2026-07-11T20:18:36.075+07:00,2.411,68800,36000,0
1783775916075147993,2026-07-11T20:18:36.075+07:00,2.411,68636,35829,0
1783775916075147994,2026-07-11T20:18:36.075+07:00,2.411,68489,35661,0
1783775916075147995,2026-07-11T20:18:36.075+07:00,2.411,68311,35529,0
1783775916075147996,2026-07-11T20:18:36.075+07:00,2.411,68197,35363,0
1783775916075147997,2026-07-11T20:18:36.075+07:00,2.411,68069,35242,0
1783775916075147998,2026-07-11T20:18:36.075+07:00,2.411,67956,35079,0
1783775916075147999,2026-07-11T20:18:36.075+07:00,2.411,67844,34959,0
1783775916075148000,2026-07-11T20:18:36.075+07:00,2.411,67700,34883,0
1783775916075148001,2026-07-11T20:18:36.075+07:00,2.411,67621,34765,0
1783775916075148002,2026-07-11T20:18:36.075+07:00,2.411,67526,34682,0
1783775916075148003,2026-07-11T20:18:36.075+07:00,2.411,67447,34607,0
1783775916075148004,2026-07-11T20:18:36.075+07:00,2.411,67384,34524,0
1783775916075148005,2026-07-11T20:18:36.075+07:00,2.411,67289,34416,0
1783775916075148006,2026-07-11T20:18:36.075+07:00,2.411,67289,34375,0
1783775916117650207,2026-07-11T20:18:36.117+07:00,2.454,67226,34302,0
1783775916117650208,2026-07-11T20:18:36.117+07:00,2.454,67148,34261,0
1783775916117650209,2026-07-11T20:18:36.117+07:00,2.454,67101,34220,0
1783775916117650210,2026-07-11T20:18:36.117+07:00,2.454,67039,34163,0
1783775916117650211,2026-07-11T20:18:36.117+07:00,2.454,66976,34139,0
1783775916117650212,2026-07-11T20:18:36.117+07:00,2.454,66961,34107,0
1783775916117650213,2026-07-11T20:18:36.117+07:00,2.454,66961,34090,0
1783775916117650214,2026-07-11T20:18:36.117+07:00,2.454,66961,34050,0
1783775916117650215,2026-07-11T20:18:36.117+07:00,2.454,66930,34042,0
1783775916117650216,2026-07-11T20:18:36.117+07:00,2.454,66914,34026,0
1783775916117650217,2026-07-11T20:18:36.117+07:00,2.454,66883,33986,0
1783775916117650218,2026-07-11T20:18:36.117+07:00,2.454,66883,34010,0
1783775916117650219,2026-07-11T20:18:36.117+07:00,2.454,66867,34002,0
1783775916117650220,2026-07-11T20:18:36.117+07:00,2.454,66898,34010,0
1783775916117650221,2026-07-11T20:18:36.117+07:00,2.454,66883,34010,0
1783775916117650222,2026-07-11T20:18:36.117+07:00,2.454,66883,33986,0
1783775916117650223,2026-07-11T20:18:36.117+07:00,2.454,66914,34010,0
1783775916157597505,2026-07-11T20:18:36.157+07:00,2.493,66883,34018,0
1783775916157597506,2026-07-11T20:18:36.157+07:00,2.493,66914,34002,0
1783775916157597507,2026-07-11T20:18:36.157+07:00,2.493,66961,34050,0
1783775916157597508,2026-07-11T20:18:36.157+07:00,2.493,66976,34098,0
1783775916157597509,2026-07-11T20:18:36.157+07:00,2.493,67007,34107,0
1783775916157597510,2026-07-11T20:18:36.157+07:00,2.493,67070,34123,0
1783775916157597511,2026-07-11T20:18:36.157+07:00,2.493,67101,34155,0
1783775916157597512,2026-07-11T20:18:36.157+07:00,2.493,67101,34171,0
1783775916157597513,2026-07-11T20:18:36.157+07:00,2.493,67179,34212,0
1783775916157597514,2026-07-11T20:18:36.157+07:00,2.493,67195,34228,0
1783775916157597515,2026-07-11T20:18:36.157+07:00,2.493,67226,34277,0
1783775916157597516,2026-07-11T20:18:36.157+07:00,2.493,67321,34302,0
1783775916157597517,2026-07-11T20:18:36.157+07:00,2.493,67352,34342,0
1783775916157597518,2026-07-11T20:18:36.157+07:00,2.493,67384,34392,0
1783775916157597519,2026-07-11T20:18:36.157+07:00,2.493,67463,34449,0
1783775916157597520,2026-07-11T20:18:36.157+07:00,2.493,67478,34458,0
1783775916200410347,2026-07-11T20:18:36.200+07:00,2.536,67526,34507,0
1783775916200410348,2026-07-11T20:18:36.200+07:00,2.536,67573,34524,0
1783775916200410349,2026-07-11T20:18:36.200+07:00,2.536,67621,34598,0
1783775916200410350,2026-07-11T20:18:36.200+07:00,2.536,67700,34615,0
1783775916200410351,2026-07-11T20:18:36.200+07:00,2.536,67796,34648,0
1783775916200410352,2026-07-11T20:18:36.200+07:00,2.536,67780,34690,0
1783775916200410353,2026-07-11T20:18:36.200+07:00,2.536,67828,34749,0
1783775916200410354,2026-07-11T20:18:36.200+07:00,2.536,67892,34791,0
1783775916200410355,2026-07-11T20:18:36.200+07:00,2.536,67956,34824,0
1783775916200410356,2026-07-11T20:18:36.200+07:00,2.536,67972,34866,0
1783775916200410357,2026-07-11T20:18:36.200+07:00,2.536,68020,34900,0
1783775916200410358,2026-07-11T20:18:36.200+07:00,2.536,68117,34942,0
1783775916200410359,2026-07-11T20:18:36.200+07:00,2.536,68149,35010,0
1783775916200410360,2026-07-11T20:18:36.200+07:00,2.536,68214,35027,0
1783775916200410361,2026-07-11T20:18:36.200+07:00,2.536,68278,35087,0
1783775916200410362,2026-07-11T20:18:36.200+07:00,2.536,68278,35104,0
1783775916200410363,2026-07-11T20:18:36.200+07:00,2.536,68343,35156,0
1783775916242532271,2026-07-11T20:18:36.242+07:00,2.578,68327,35182,0
1783775916242532272,2026-07-11T20:18:36.242+07:00,2.578,68392,35250,0
1783775916242532273,2026-07-11T20:18:36.242+07:00,2.578,68473,35276,0
1783775916242532274,2026-07-11T20:18:36.242+07:00,2.578,68522,35328,0
1783775916242532275,2026-07-11T20:18:36.242+07:00,2.578,68571,35372,0
1783775916242532276,2026-07-11T20:18:36.242+07:00,2.578,68587,35406,0
1783775916242532277,2026-07-11T20:18:36.242+07:00,2.578,68669,35476,0
1783775916242532278,2026-07-11T20:18:36.242+07:00,2.578,68718,35502,0
1783775916242532279,2026-07-11T20:18:36.242+07:00,2.578,68718,35538,0
1783775916242532280,2026-07-11T20:18:36.242+07:00,2.578,68817,35617,0
1783775916242532281,2026-07-11T20:18:36.242+07:00,2.578,68866,35652,0
1783775916242532282,2026-07-11T20:18:36.242+07:00,2.578,68899,35696,0
1783775916242532283,2026-07-11T20:18:36.242+07:00,2.578,68949,35740,0
1783775916242532284,2026-07-11T20:18:36.242+07:00,2.578,69031,35749,0
1783775916242532285,2026-07-11T20:18:36.242+07:00,2.578,69048,35794,0
1783775916242532286,2026-07-11T20:18:36.242+07:00,2.578,69097,35820,0
1783775916242532287,2026-07-11T20:18:36.242+07:00,2.578,69114,35856,0
1783775916284953380,2026-07-11T20:18:36.284+07:00,2.621,69180,35937,0
1783775916284953381,2026-07-11T20:18:36.284+07:00,2.621,69180,35928,0
1783775916284953382,2026-07-11T20:18:36.284+07:00,2.621,69214,35982,0
1783775916284953383,2026-07-11T20:18:36.284+07:00,2.621,69264,36030,0
1783775916284953384,2026-07-11T20:18:36.284+07:00,2.621,69297,35991,0
1783775916284953385,2026-07-11T20:18:36.284+07:00,2.621,69330,36060,0
1783775916284953386,2026-07-11T20:18:36.284+07:00,2.621,69347,36054,0
1783775916284953387,2026-07-11T20:18:36.284+07:00,2.621,69364,36078,0
1783775916284953388,2026-07-11T20:18:36.284+07:00,2.621,69397,36072,0
1783775916284953389,2026-07-11T20:18:36.284+07:00,2.621,69414,36084,0
1783775916284953390,2026-07-11T20:18:36.284+07:00,2.621,69397,36084,0
1783775916284953391,2026-07-11T20:18:36.284+07:00,2.621,69414,36078,0
1783775916284953392,2026-07-11T20:18:36.284+07:00,2.621,69431,36090,0
1783775916284953393,2026-07-11T20:18:36.284+07:00,2.621,69397,36060,0
1783775916284953394,2026-07-11T20:18:36.284+07:00,2.621,69414,36054,0
1783775916284953395,2026-07-11T20:18:36.284+07:00,2.621,69397,36072,0
1783775916284953396,2026-07-11T20:18:36.284+07:00,2.621,69380,36042,0
1783775916327672562,2026-07-11T20:18:36.327+07:00,2.664,69397,36018,0
1783775916327672563,2026-07-11T20:18:36.327+07:00,2.664,69347,36006,0
1783775916327672564,2026-07-11T20:18:36.327+07:00,2.664,69364,35991,0
1783775916327672565,2026-07-11T20:18:36.327+07:00,2.664,69347,35964,0
1783775916327672566,2026-07-11T20:18:36.327+07:00,2.664,69297,35946,0
1783775916327672567,2026-07-11T20:18:36.327+07:00,2.664,69314,35901,0
1783775916327672568,2026-07-11T20:18:36.327+07:00,2.664,69280,35883,0
1783775916327672569,2026-07-11T20:18:36.327+07:00,2.664,69214,35865,0
1783775916327672570,2026-07-11T20:18:36.327+07:00,2.664,69164,35829,0
1783775916327672571,2026-07-11T20:18:36.327+07:00,2.664,69147,35838,0
1783775916327672572,2026-07-11T20:18:36.327+07:00,2.664,69114,35776,0
1783775916327672573,2026-07-11T20:18:36.327+07:00,2.664,69097,35767,0
1783775916327672574,2026-07-11T20:18:36.327+07:00,2.664,69031,35714,0
1783775916327672575,2026-07-11T20:18:36.327+07:00,2.664,68982,35678,0
1783775916327672576,2026-07-11T20:18:36.327+07:00,2.664,68965,35670,0
1783775916327672577,2026-07-11T20:18:36.327+07:00,2.664,68982,35599,0
1783775916327672578,2026-07-11T20:18:36.327+07:00,2.664,68916,35581,0
1783775916365011101,2026-07-11T20:18:36.365+07:00,2.701,68883,35564,0
1783775916365011102,2026-07-11T20:18:36.365+07:00,2.701,68883,35538,0
1783775916365011103,2026-07-11T20:18:36.365+07:00,2.701,68866,35529,0
1783775916365011104,2026-07-11T20:18:36.365+07:00,2.701,68817,35494,0
1783775916365011105,2026-07-11T20:18:36.365+07:00,2.701,68817,35467,0
1783775916365011106,2026-07-11T20:18:36.365+07:00,2.701,68800,35459,0
1783775916365011107,2026-07-11T20:18:36.365+07:00,2.701,68784,35441,0
1783775916365011108,2026-07-11T20:18:36.365+07:00,2.701,68800,35424,0
1783775916365011109,2026-07-11T20:18:36.365+07:00,2.701,68751,35450,0
1783775916365011110,2026-07-11T20:18:36.365+07:00,2.701,68751,35424,0
1783775916365011111,2026-07-11T20:18:36.365+07:00,2.701,68784,35389,0
1783775916365011112,2026-07-11T20:18:36.365+07:00,2.701,68767,35398,0
1783775916365011113,2026-07-11T20:18:36.365+07:00,2.701,68751,35398,0
1783775916365011114,2026-07-11T20:18:36.365+07:00,2.701,68767,35398,0
1783775916365011115,2026-07-11T20:18:36.365+07:00,2.701,68767,35398,0
1783775916407247660,2026-07-11T20:18:36.407+07:00,2.743,68751,35380,0
1783775916407247661,2026-07-11T20:18:36.407+07:00,2.743,68767,35389,0
1783775916407247662,2026-07-11T20:18:36.407+07:00,2.743,68800,35380,0
1783775916407247663,2026-07-11T20:18:36.407+07:00,2.743,68784,35398,0
1783775916407247664,2026-07-11T20:18:36.407+07:00,2.743,68784,35415,0
1783775916407247665,2026-07-11T20:18:36.407+07:00,2.743,68784,35398,0
1783775916407247666,2026-07-11T20:18:36.407+07:00,2.743,68833,35398,0
1783775916407247667,2026-07-11T20:18:36.407+07:00,2.743,68866,35450,0
1783775916407247668,2026-07-11T20:18:36.407+07:00,2.743,68866,35450,0
1783775916407247669,2026-07-11T20:18:36.407+07:00,2.743,68866,35441,0
1783775916407247670,2026-07-11T20:18:36.407+07:00,2.743,68850,35467,0
1783775916407247671,2026-07-11T20:18:36.407+07:00,2.743,68932,35467,0
1783775916407247672,2026-07-11T20:18:36.407+07:00,2.743,68949,35441,0
1783775916407247673,2026-07-11T20:18:36.407+07:00,2.743,68916,35529,0
1783775916407247674,2026-07-11T20:18:36.407+07:00,2.743,68949,35511,0
1783775916407247675,2026-07-11T20:18:36.407+07:00,2.743,68982,35555,0
1783775916407247676,2026-07-11T20:18:36.407+07:00,2.743,69015,35573,0
1783775916449721577,2026-07-11T20:18:36.449+07:00,2.786,69015,35555,0
1783775916449721578,2026-07-11T20:18:36.449+07:00,2.786,69048,35608,0
1783775916449721579,2026-07-11T20:18:36.449+07:00,2.786,69048,35625,0
1783775916449721580,2026-07-11T20:18:36.449+07:00,2.786,69081,35643,0
1783775916449721581,2026-07-11T20:18:36.449+07:00,2.786,69097,35696,0
1783775916449721582,2026-07-11T20:18:36.449+07:00,2.786,69131,35714,0
1783775916449721583,2026-07-11T20:18:36.449+07:00,2.786,69164,35732,0
1783775916449721584,2026-07-11T20:18:36.449+07:00,2.786,69197,35723,0
1783775916449721585,2026-07-11T20:18:36.449+07:00,2.786,69197,35776,0
1783775916449721586,2026-07-11T20:18:36.449+07:00,2.786,69247,35811,0
1783775916449721587,2026-07-11T20:18:36.449+07:00,2.786,69264,35811,0
1783775916449721588,2026-07-11T20:18:36.449+07:00,2.786,69297,35856,0
1783775916449721589,2026-07-11T20:18:36.449+07:00,2.786,69314,35865,0
1783775916449721590,2026-07-11T20:18:36.449+07:00,2.786,69347,35901,0
1783775916449721591,2026-07-11T20:18:36.449+07:00,2.786,69380,35919,0
1783775916449721592,2026-07-11T20:18:36.449+07:00,2.786,69414,35955,0
1783775916449721593,2026-07-11T20:18:36.449+07:00,2.786,69464,35991,0
1783775916449721594,2026-07-11T20:18:36.449+07:00,2.786,69464,35982,0
1783775916494684626,2026-07-11T20:18:36.494+07:00,2.831,69498,36048,0
1783775916494684627,2026-07-11T20:18:36.494+07:00,2.831,69514,36036,0
1783775916494684628,2026-07-11T20:18:36.494+07:00,2.831,69548,36054,0
1783775916494684629,2026-07-11T20:18:36.494+07:00,2.831,69565,36084,0
1783775916494684630,2026-07-11T20:18:36.494+07:00,2.831,69565,36132,0
1783775916494684631,2026-07-11T20:18:36.494+07:00,2.831,69649,36126,0
1783775916494684632,2026-07-11T20:18:36.494+07:00,2.831,69666,36162,0
1783775916494684633,2026-07-11T20:18:36.494+07:00,2.831,69666,36199,0
1783775916494684634,2026-07-11T20:18:36.494+07:00,2.831,69716,36211,0
1783775916494684635,2026-07-11T20:18:36.494+07:00,2.831,69733,36229,0
1783775916494684636,2026-07-11T20:18:36.494+07:00,2.831,69750,36259,0
1783775916494684637,2026-07-11T20:18:36.494+07:00,2.831,69784,36284,0
1783775916494684638,2026-07-11T20:18:36.494+07:00,2.831,69818,36284,0
1783775916494684639,2026-07-11T20:18:36.494+07:00,2.831,69852,36345,0
1783775916494684640,2026-07-11T20:18:36.494+07:00,2.831,69868,36357,0
1783775916494684641,2026-07-11T20:18:36.494+07:00,2.831,69936,36382,0
1783775916494684642,2026-07-11T20:18:36.494+07:00,2.831,69902,36400,0
1783775916537715871,2026-07-11T20:18:36.537+07:00,2.874,69970,36418,0
1783775916537715872,2026-07-11T20:18:36.537+07:00,2.874,69953,36468,0
1783775916537715873,2026-07-11T20:18:36.537+07:00,2.874,69987,36486,0
1783775916537715874,2026-07-11T20:18:36.537+07:00,2.874,70038,36517,0
1783775916537715875,2026-07-11T20:18:36.537+07:00,2.874,70038,36542,0
1783775916537715876,2026-07-11T20:18:36.537+07:00,2.874,70090,36560,0
1783775916537715877,2026-07-11T20:18:36.537+07:00,2.874,70090,36603,0
1783775916537715878,2026-07-11T20:18:36.537+07:00,2.874,70192,36616,0
1783775916537715879,2026-07-11T20:18:36.537+07:00,2.874,70175,36622,0
1783775916537715880,2026-07-11T20:18:36.537+07:00,2.874,70192,36653,0
1783775916537715881,2026-07-11T20:18:36.537+07:00,2.874,70209,36684,0
1783775916537715882,2026-07-11T20:18:36.537+07:00,2.874,70226,36703,0
1783775916537715883,2026-07-11T20:18:36.537+07:00,2.874,70278,36734,0
1783775916537715884,2026-07-11T20:18:36.537+07:00,2.874,70312,36759,0
1783775916537715885,2026-07-11T20:18:36.537+07:00,2.874,70329,36791,0
1783775916537715886,2026-07-11T20:18:36.537+07:00,2.874,70295,36803,0
1783775916537715887,2026-07-11T20:18:36.537+07:00,2.874,70381,36828,0
1783775916574890945,2026-07-11T20:18:36.574+07:00,2.911,70398,36872,0
1783775916574890946,2026-07-11T20:18:36.574+07:00,2.911,70415,36878,0
1783775916574890947,2026-07-11T20:18:36.574+07:00,2.911,70415,36910,0
1783775916574890948,2026-07-11T20:18:36.574+07:00,2.911,70467,36935,0
1783775916574890949,2026-07-11T20:18:36.574+07:00,2.911,70501,36967,0
1783775916574890950,2026-07-11T20:18:36.574+07:00,2.911,70519,37005,0
1783775916574890951,2026-07-11T20:18:36.574+07:00,2.911,70553,37030,0
1783775916574890952,2026-07-11T20:18:36.574+07:00,2.911,70588,37056,0
1783775916574890953,2026-07-11T20:18:36.574+07:00,2.911,70605,37075,0
1783775916574890954,2026-07-11T20:18:36.574+07:00,2.911,70640,37119,0
1783775916574890955,2026-07-11T20:18:36.574+07:00,2.911,70674,37126,0
1783775916574890956,2026-07-11T20:18:36.574+07:00,2.911,70692,37177,0
1783775916574890957,2026-07-11T20:18:36.574+07:00,2.911,70726,37202,0
1783775916574890958,2026-07-11T20:18:36.574+07:00,2.911,70744,37222,0
1783775916574890959,2026-07-11T20:18:36.574+07:00,2.911,70779,37247,0
1783775916617180540,2026-07-11T20:18:36.617+07:00,2.953,70779,37267,0
1783775916617180541,2026-07-11T20:18:36.617+07:00,2.953,70813,37305,0
1783775916617180542,2026-07-11T20:18:36.617+07:00,2.953,70883,37331,0
1783775916617180543,2026-07-11T20:18:36.617+07:00,2.953,70883,37370,0
1783775916617180544,2026-07-11T20:18:36.617+07:00,2.953,70918,37383,0
1783775916617180545,2026-07-11T20:18:36.617+07:00,2.953,70988,37402,0
1783775916617180546,2026-07-11T20:18:36.617+07:00,2.953,70970,37447,0
1783775916617180547,2026-07-11T20:18:36.617+07:00,2.953,70988,37435,0
1783775916617180548,2026-07-11T20:18:36.617+07:00,2.953,71005,37480,0
1783775916617180549,2026-07-11T20:18:36.617+07:00,2.953,70988,37486,0
1783775916617180550,2026-07-11T20:18:36.617+07:00,2.953,71076,37480,0
1783775916617180551,2026-07-11T20:18:36.617+07:00,2.953,71005,37493,0
1783775916617180552,2026-07-11T20:18:36.617+07:00,2.953,71005,37480,0
1783775916617180553,2026-07-11T20:18:36.617+07:00,2.953,71005,37454,0
1783775916617180554,2026-07-11T20:18:36.617+07:00,2.953,70970,37409,0
1783775916617180555,2026-07-11T20:18:36.617+07:00,2.953,70883,37344,0
1783775916617180556,2026-07-11T20:18:36.617+07:00,2.953,70796,37260,0
1783775916659519378,2026-07-11T20:18:36.659+07:00,2.995,70709,37170,0
1783775916659519379,2026-07-11T20:18:36.659+07:00,2.995,70605,37043,0
1783775916659519380,2026-07-11T20:18:36.659+07:00,2.995,70501,36910,0
1783775916659519381,2026-07-11T20:18:36.659+07:00,2.995,70312,36753,0
1783775916659519382,2026-07-11T20:18:36.659+07:00,2.995,70158,36579,0
1783775916659519383,2026-07-11T20:18:36.659+07:00,2.995,69953,36394,0
1783775916659519384,2026-07-11T20:18:36.659+07:00,2.995,69818,36205,0
1783775916659519385,2026-07-11T20:18:36.659+07:00,2.995,69615,35982,0
1783775916659519386,2026-07-11T20:18:36.659+07:00,2.995,69414,35785,0
1783775916659519387,2026-07-11T20:18:36.659+07:00,2.995,69197,35643,0
1783775916659519388,2026-07-11T20:18:36.659+07:00,2.995,69048,35494,0
1783775916659519389,2026-07-11T20:18:36.659+07:00,2.995,68866,35311,0
1783775916659519390,2026-07-11T20:18:36.659+07:00,2.995,68702,35164,0
1783775916659519391,2026-07-11T20:18:36.659+07:00,2.995,68555,34993,0
1783775916659519392,2026-07-11T20:18:36.659+07:00,2.995,68441,34849,0
1783775916659519393,2026-07-11T20:18:36.659+07:00,2.995,68294,34715,0
1783775916659519394,2026-07-11T20:18:36.659+07:00,2.995,68181,34573,0
1783775916701881015,2026-07-11T20:18:36.701+07:00,3.038,68020,34458,0
1783775916701881016,2026-07-11T20:18:36.701+07:00,3.038,67940,34334,0
1783775916701881017,2026-07-11T20:18:36.701+07:00,3.038,67828,34244,0
1783775916701881018,2026-07-11T20:18:36.701+07:00,3.038,67764,34131,0
1783775916701881019,2026-07-11T20:18:36.701+07:00,3.038,67621,34026,0
1783775916701881020,2026-07-11T20:18:36.701+07:00,3.038,67526,33970,0
1783775916701881021,2026-07-11T20:18:36.701+07:00,3.038,67463,33858,0
1783775916701881022,2026-07-11T20:18:36.701+07:00,3.038,67399,33779,0
1783775916701881023,2026-07-11T20:18:36.701+07:00,3.038,67352,33715,0
1783775916701881024,2026-07-11T20:18:36.701+07:00,3.038,67289,33684,0
1783775916701881025,2026-07-11T20:18:36.701+07:00,3.038,67242,33637,0
1783775916701881026,2026-07-11T20:18:36.701+07:00,3.038,67164,33597,0
1783775916701881027,2026-07-11T20:18:36.701+07:00,3.038,67148,33535,0
1783775916701881028,2026-07-11T20:18:36.701+07:00,3.038,67085,33511,0
1783775916701881029,2026-07-11T20:18:36.701+07:00,3.038,67085,33488,0
1783775916701881030,2026-07-11T20:18:36.701+07:00,3.038,67070,33441,0
1783775916701881031,2026-07-11T20:18:36.701+07:00,3.038,67054,33433,0
1783775916744551007,2026-07-11T20:18:36.744+07:00,3.080,67023,33418,0
1783775916744551008,2026-07-11T20:18:36.744+07:00,3.080,67039,33410,0
1783775916744551009,2026-07-11T20:18:36.744+07:00,3.080,67007,33402,0
1783775916744551010,2026-07-11T20:18:36.744+07:00,3.080,67007,33395,0
1783775916744551011,2026-07-11T20:18:36.744+07:00,3.080,66976,33402,0
1783775916744551012,2026-07-11T20:18:36.744+07:00,3.080,67023,33410,0
1783775916744551013,2026-07-11T20:18:36.744+07:00,3.080,67039,33387,0
1783775916744551014,2026-07-11T20:18:36.744+07:00,3.080,67007,33433,0
1783775916744551015,2026-07-11T20:18:36.744+07:00,3.080,67039,33433,0
1783775916744551016,2026-07-11T20:18:36.744+07:00,3.080,67023,33457,0
1783775916744551017,2026-07-11T20:18:36.744+07:00,3.080,67070,33480,0
1783775916744551018,2026-07-11T20:18:36.744+07:00,3.080,67101,33472,0
1783775916744551019,2026-07-11T20:18:36.744+07:00,3.080,67117,33519,0
1783775916744551020,2026-07-11T20:18:36.744+07:00,3.080,67148,33542,0
1783775916744551021,2026-07-11T20:18:36.744+07:00,3.080,67179,33550,0
1783775916744551022,2026-07-11T20:18:36.744+07:00,3.080,67211,33574,0
1783775916744551023,2026-07-11T20:18:36.744+07:00,3.080,67226,33621,0
1783775916784336104,2026-07-11T20:18:36.784+07:00,3.120,67305,33637,0
1783775916784336105,2026-07-11T20:18:36.784+07:00,3.120,67321,33668,0
1783775916784336106,2026-07-11T20:18:36.784+07:00,3.120,67336,33707,0
1783775916784336107,2026-07-11T20:18:36.784+07:00,3.120,67368,33731,0
1783775916784336108,2026-07-11T20:18:36.784+07:00,3.120,67415,33802,0
1783775916784336109,2026-07-11T20:18:36.784+07:00,3.120,67431,33826,0
1783775916784336110,2026-07-11T20:18:36.784+07:00,3.120,67478,33858,0
1783775916784336111,2026-07-11T20:18:36.784+07:00,3.120,67526,33914,0
1783775916784336112,2026-07-11T20:18:36.784+07:00,3.120,67558,33930,0
1783775916784336113,2026-07-11T20:18:36.784+07:00,3.120,67605,33986,0
1783775916784336114,2026-07-11T20:18:36.784+07:00,3.120,67653,34034,0
1783775916784336115,2026-07-11T20:18:36.784+07:00,3.120,67700,34074,0
1783775916784336116,2026-07-11T20:18:36.784+07:00,3.120,67732,34090,0
1783775916784336117,2026-07-11T20:18:36.784+07:00,3.120,67748,34139,0
1783775916784336118,2026-07-11T20:18:36.784+07:00,3.120,67828,34196,0
1783775916784336119,2026-07-11T20:18:36.784+07:00,3.120,67860,34253,0
1783775916827055616,2026-07-11T20:18:36.827+07:00,3.163,67908,34277,0
1783775916827055617,2026-07-11T20:18:36.827+07:00,3.163,67956,34342,0
1783775916827055618,2026-07-11T20:18:36.827+07:00,3.163,67988,34375,0
1783775916827055619,2026-07-11T20:18:36.827+07:00,3.163,68036,34408,0
1783775916827055620,2026-07-11T20:18:36.827+07:00,3.163,68101,34474,0
1783775916827055621,2026-07-11T20:18:36.827+07:00,3.163,68149,34491,0
1783775916827055622,2026-07-11T20:18:36.827+07:00,3.163,68165,34573,0
1783775916827055623,2026-07-11T20:18:36.827+07:00,3.163,68246,34607,0
1783775916827055624,2026-07-11T20:18:36.827+07:00,3.163,68278,34673,0
1783775916827055625,2026-07-11T20:18:36.827+07:00,3.163,68327,34715,0
1783775916827055626,2026-07-11T20:18:36.827+07:00,3.163,68376,34774,0
1783775916827055627,2026-07-11T20:18:36.827+07:00,3.163,68424,34816,0
1783775916827055628,2026-07-11T20:18:36.827+07:00,3.163,68473,34866,0
1783775916827055629,2026-07-11T20:18:36.827+07:00,3.163,68506,34909,0
1783775916827055630,2026-07-11T20:18:36.827+07:00,3.163,68571,35002,0
1783775916827055631,2026-07-11T20:18:36.827+07:00,3.163,68620,35045,0
1783775916827055632,2026-07-11T20:18:36.827+07:00,3.163,68636,35104,0
1783775916864169686,2026-07-11T20:18:36.864+07:00,3.200,68718,35173,0
1783775916864169687,2026-07-11T20:18:36.864+07:00,3.200,68817,35199,0
1783775916864169688,2026-07-11T20:18:36.864+07:00,3.200,68866,35225,0
1783775916864169689,2026-07-11T20:18:36.864+07:00,3.200,68850,35276,0
1783775916864169690,2026-07-11T20:18:36.864+07:00,3.200,68932,35337,0
1783775916864169691,2026-07-11T20:18:36.864+07:00,3.200,68949,35380,0
1783775916864169692,2026-07-11T20:18:36.864+07:00,3.200,69015,35424,0
1783775916864169693,2026-07-11T20:18:36.864+07:00,3.200,69048,35459,0
1783775916864169694,2026-07-11T20:18:36.864+07:00,3.200,69114,35529,0
1783775916864169695,2026-07-11T20:18:36.864+07:00,3.200,69131,35590,0
1783775916864169696,2026-07-11T20:18:36.864+07:00,3.200,69180,35599,0
1783775916864169697,2026-07-11T20:18:36.864+07:00,3.200,69230,35617,0
1783775916864169698,2026-07-11T20:18:36.864+07:00,3.200,69247,35652,0
1783775916864169699,2026-07-11T20:18:36.864+07:00,3.200,69264,35696,0
1783775916864169700,2026-07-11T20:18:36.864+07:00,3.200,69314,35705,0
1783775916906716727,2026-07-11T20:18:36.906+07:00,3.243,69347,35740,0
1783775916906716728,2026-07-11T20:18:36.906+07:00,3.243,69347,35767,0
1783775916906716729,2026-07-11T20:18:36.906+07:00,3.243,69364,35776,0
1783775916906716730,2026-07-11T20:18:36.906+07:00,3.243,69414,35820,0
1783775916906716731,2026-07-11T20:18:36.906+07:00,3.243,69380,35811,0
1783775916906716732,2026-07-11T20:18:36.906+07:00,3.243,69397,35820,0
1783775916906716733,2026-07-11T20:18:36.906+07:00,3.243,69431,35838,0
1783775916906716734,2026-07-11T20:18:36.906+07:00,3.243,69414,35811,0
1783775916906716735,2026-07-11T20:18:36.906+07:00,3.243,69431,35829,0
1783775916906716736,2026-07-11T20:18:36.906+07:00,3.243,69380,35811,0
1783775916906716737,2026-07-11T20:18:36.906+07:00,3.243,69414,35847,0
1783775916906716738,2026-07-11T20:18:36.906+07:00,3.243,69397,35838,0
1783775916906716739,2026-07-11T20:18:36.906+07:00,3.243,69380,35811,0
1783775916906716740,2026-07-11T20:18:36.906+07:00,3.243,69380,35785,0
1783775916906716741,2026-07-11T20:18:36.906+07:00,3.243,69364,35794,0
1783775916906716742,2026-07-11T20:18:36.906+07:00,3.243,69347,35785,0
1783775916906716743,2026-07-11T20:18:36.906+07:00,3.243,69297,35767,0
1783775916949184073,2026-07-11T20:18:36.949+07:00,3.285,69330,35740,0
1783775916949184074,2026-07-11T20:18:36.949+07:00,3.285,69314,35705,0
1783775916949184075,2026-07-11T20:18:36.949+07:00,3.285,69297,35740,0
1783775916949184076,2026-07-11T20:18:36.949+07:00,3.285,69264,35687,0
1783775916949184077,2026-07-11T20:18:36.949+07:00,3.285,69230,35714,0
1783775916949184078,2026-07-11T20:18:36.949+07:00,3.285,69197,35678,0
1783775916949184079,2026-07-11T20:18:36.949+07:00,3.285,69214,35661,0
1783775916949184080,2026-07-11T20:18:36.949+07:00,3.285,69180,35643,0
1783775916949184081,2026-07-11T20:18:36.949+07:00,3.285,69164,35608,0
1783775916949184082,2026-07-11T20:18:36.949+07:00,3.285,69180,35599,0
1783775916949184083,2026-07-11T20:18:36.949+07:00,3.285,69131,35564,0
1783775916949184084,2026-07-11T20:18:36.949+07:00,3.285,69097,35573,0
1783775916949184085,2026-07-11T20:18:36.949+07:00,3.285,69114,35581,0
1783775916949184086,2026-07-11T20:18:36.949+07:00,3.285,69081,35564,0
1783775916949184087,2026-07-11T20:18:36.949+07:00,3.285,69081,35564,0
1783775916949184088,2026-07-11T20:18:36.949+07:00,3.285,69064,35555,0
1783775916949184089,2026-07-11T20:18:36.949+07:00,3.285,69064,35546,0
1783775916991531624,2026-07-11T20:18:36.991+07:00,3.327,69064,35555,0
1783775916991531625,2026-07-11T20:18:36.991+07:00,3.327,69064,35502,0
1783775916991531626,2026-07-11T20:18:36.991+07:00,3.327,69031,35529,0
1783775916991531627,2026-07-11T20:18:36.991+07:00,3.327,69064,35546,0
1783775916991531628,2026-07-11T20:18:36.991+07:00,3.327,69031,35538,0
1783775916991531629,2026-07-11T20:18:36.991+07:00,3.327,69064,35546,0
1783775916991531630,2026-07-11T20:18:36.991+07:00,3.327,69064,35546,0
1783775916991531631,2026-07-11T20:18:36.991+07:00,3.327,69064,35564,0
1783775916991531632,2026-07-11T20:18:36.991+07:00,3.327,69097,35546,0
1783775916991531633,2026-07-11T20:18:36.991+07:00,3.327,69097,35581,0
1783775916991531634,2026-07-11T20:18:36.991+07:00,3.327,69131,35599,0
1783775916991531635,2026-07-11T20:18:36.991+07:00,3.327,69147,35608,0
1783775916991531636,2026-07-11T20:18:36.991+07:00,3.327,69164,35634,0
1783775916991531637,2026-07-11T20:18:36.991+07:00,3.327,69164,35643,0
1783775916991531638,2026-07-11T20:18:36.991+07:00,3.327,69197,35670,0
1783775916991531639,2026-07-11T20:18:36.991+07:00,3.327,69247,35670,0
1783775917031688502,2026-07-11T20:18:37.031+07:00,3.368,69264,35696,0
1783775917031688503,2026-07-11T20:18:37.031+07:00,3.368,69280,35740,0
1783775917031688504,2026-07-11T20:18:37.031+07:00,3.368,69247,35749,0
1783775917031688505,2026-07-11T20:18:37.031+07:00,3.368,69297,35767,0
1783775917031688506,2026-07-11T20:18:37.031+07:00,3.368,69347,35811,0
1783775917031688507,2026-07-11T20:18:37.031+07:00,3.368,69364,35829,0
1783775917031688508,2026-07-11T20:18:37.031+07:00,3.368,69380,35874,0
1783775917031688509,2026-07-11T20:18:37.031+07:00,3.368,69431,35874,0
1783775917031688510,2026-07-11T20:18:37.031+07:00,3.368,69431,35910,0
1783775917031688511,2026-07-11T20:18:37.031+07:00,3.368,69481,35946,0
1783775917031688512,2026-07-11T20:18:37.031+07:00,3.368,69548,35955,0
1783775917031688513,2026-07-11T20:18:37.031+07:00,3.368,69565,36018,0
1783775917031688514,2026-07-11T20:18:37.031+07:00,3.368,69615,36024,0
1783775917031688515,2026-07-11T20:18:37.031+07:00,3.368,69632,36054,0
1783775917031688516,2026-07-11T20:18:37.031+07:00,3.368,69632,36072,0
1783775917031688517,2026-07-11T20:18:37.031+07:00,3.368,69699,36108,0
1783775917031688518,2026-07-11T20:18:37.031+07:00,3.368,69716,36138,0
1783775917074034693,2026-07-11T20:18:37.074+07:00,3.410,69784,36162,0
1783775917074034694,2026-07-11T20:18:37.074+07:00,3.410,69784,36193,0
1783775917074034695,2026-07-11T20:18:37.074+07:00,3.410,69835,36229,0
1783775917074034696,2026-07-11T20:18:37.074+07:00,3.410,69852,36259,0
1783775917074034697,2026-07-11T20:18:37.074+07:00,3.410,69885,36296,0
1783775917074034698,2026-07-11T20:18:37.074+07:00,3.410,69919,36314,0
1783775917074034699,2026-07-11T20:18:37.074+07:00,3.410,69936,36357,0
1783775917074034700,2026-07-11T20:18:37.074+07:00,3.410,70004,36394,0
1783775917074034701,2026-07-11T20:18:37.074+07:00,3.410,70004,36412,0
1783775917074034702,2026-07-11T20:18:37.074+07:00,3.410,70038,36449,0
1783775917074034703,2026-07-11T20:18:37.074+07:00,3.410,70090,36504,0
1783775917074034704,2026-07-11T20:18:37.074+07:00,3.410,70141,36535,0
1783775917074034705,2026-07-11T20:18:37.074+07:00,3.410,70209,36560,0
1783775917074034706,2026-07-11T20:18:37.074+07:00,3.410,70192,36603,0
1783775917074034707,2026-07-11T20:18:37.074+07:00,3.410,70261,36635,0
1783775917074034708,2026-07-11T20:18:37.074+07:00,3.410,70261,36672,0
1783775917074034709,2026-07-11T20:18:37.074+07:00,3.410,70329,36697,0
1783775917116570562,2026-07-11T20:18:37.116+07:00,3.452,70312,36709,0
1783775917116570563,2026-07-11T20:18:37.116+07:00,3.452,70415,36759,0
1783775917116570564,2026-07-11T20:18:37.116+07:00,3.452,70381,36772,0
1783775917116570565,2026-07-11T20:18:37.116+07:00,3.452,70450,36816,0
1783775917116570566,2026-07-11T20:18:37.116+07:00,3.452,70467,36860,0
1783775917116570567,2026-07-11T20:18:37.116+07:00,3.452,70484,36872,0
1783775917116570568,2026-07-11T20:18:37.116+07:00,3.452,70570,36904,0
1783775917116570569,2026-07-11T20:18:37.116+07:00,3.452,70570,36954,0
1783775917116570570,2026-07-11T20:18:37.116+07:00,3.452,70570,36967,0
1783775917116570571,2026-07-11T20:18:37.116+07:00,3.452,70588,37011,0
1783775917116570572,2026-07-11T20:18:37.116+07:00,3.452,70640,37030,0
1783775917116570573,2026-07-11T20:18:37.116+07:00,3.452,70640,37049,0
1783775917116570574,2026-07-11T20:18:37.116+07:00,3.452,70709,37107,0
1783775917116570575,2026-07-11T20:18:37.116+07:00,3.452,70709,37119,0
1783775917116570576,2026-07-11T20:18:37.116+07:00,3.452,70744,37138,0
1783775917116570577,2026-07-11T20:18:37.116+07:00,3.452,70779,37177,0
1783775917116570578,2026-07-11T20:18:37.116+07:00,3.452,70813,37196,0
1783775917156610746,2026-07-11T20:18:37.156+07:00,3.492,70866,37241,0
1783775917156610747,2026-07-11T20:18:37.156+07:00,3.492,70866,37273,0
1783775917156610748,2026-07-11T20:18:37.156+07:00,3.492,70901,37279,0
1783775917156610749,2026-07-11T20:18:37.156+07:00,3.492,70935,37325,0
1783775917156610750,2026-07-11T20:18:37.156+07:00,3.492,70970,37370,0
1783775917156610751,2026-07-11T20:18:37.156+07:00,3.492,70988,37396,0
1783775917156610752,2026-07-11T20:18:37.156+07:00,3.492,71023,37409,0
1783775917156610753,2026-07-11T20:18:37.156+07:00,3.492,71023,37428,0
1783775917156610754,2026-07-11T20:18:37.156+07:00,3.492,71040,37460,0
1783775917156610755,2026-07-11T20:18:37.156+07:00,3.492,71093,37500,0
1783775917156610756,2026-07-11T20:18:37.156+07:00,3.492,71146,37500,0
1783775917156610757,2026-07-11T20:18:37.156+07:00,3.492,71146,37552,0
1783775917156610758,2026-07-11T20:18:37.156+07:00,3.492,71163,37552,0
1783775917156610759,2026-07-11T20:18:37.156+07:00,3.492,71216,37578,0
1783775917156610760,2026-07-11T20:18:37.156+07:00,3.492,71287,37637,0
1783775917156610761,2026-07-11T20:18:37.156+07:00,3.492,71287,37656,0
1783775917196373959,2026-07-11T20:18:37.196+07:00,3.532,71322,37683,0
1783775917196373960,2026-07-11T20:18:37.196+07:00,3.532,71304,37722,0
1783775917196373961,2026-07-11T20:18:37.196+07:00,3.532,71340,37762,0
1783775917196373962,2026-07-11T20:18:37.196+07:00,3.532,71393,37775,0
1783775917196373963,2026-07-11T20:18:37.196+07:00,3.532,71464,37808,0
1783775917196373964,2026-07-11T20:18:37.196+07:00,3.532,71446,37841,0
1783775917196373965,2026-07-11T20:18:37.196+07:00,3.532,71517,37854,0
1783775917196373966,2026-07-11T20:18:37.196+07:00,3.532,71517,37874,0
1783775917196373967,2026-07-11T20:18:37.196+07:00,3.532,71499,37914,0
1783775917196373968,2026-07-11T20:18:37.196+07:00,3.532,71535,37921,0
1783775917196373969,2026-07-11T20:18:37.196+07:00,3.532,71517,37928,0
1783775917196373970,2026-07-11T20:18:37.196+07:00,3.532,71552,37968,0
1783775917196373971,2026-07-11T20:18:37.196+07:00,3.532,71570,37988,0
1783775917196373972,2026-07-11T20:18:37.196+07:00,3.532,71606,38014,0
1783775917196373973,2026-07-11T20:18:37.196+07:00,3.532,71677,38061,0
1783775917196373974,2026-07-11T20:18:37.196+07:00,3.532,71713,38088,0
1783775917238768241,2026-07-11T20:18:37.238+07:00,3.575,71713,38108,0
1783775917238768242,2026-07-11T20:18:37.238+07:00,3.575,71731,38142,0
1783775917238768243,2026-07-11T20:18:37.238+07:00,3.575,71748,38142,0
1783775917238768244,2026-07-11T20:18:37.238+07:00,3.575,71784,38142,0
1783775917238768245,2026-07-11T20:18:37.238+07:00,3.575,71731,38142,0
1783775917238768246,2026-07-11T20:18:37.238+07:00,3.575,71766,38149,0
1783775917238768247,2026-07-11T20:18:37.238+07:00,3.575,71748,38128,0
1783775917238768248,2026-07-11T20:18:37.238+07:00,3.575,71713,38088,0
1783775917238768249,2026-07-11T20:18:37.238+07:00,3.575,71677,38054,0
1783775917238768250,2026-07-11T20:18:37.238+07:00,3.575,71606,38014,0
1783775917238768251,2026-07-11T20:18:37.238+07:00,3.575,71552,37934,0
1783775917238768252,2026-07-11T20:18:37.238+07:00,3.575,71446,37828,0
1783775917238768253,2026-07-11T20:18:37.238+07:00,3.575,71304,37735,0
1783775917238768254,2026-07-11T20:18:37.238+07:00,3.575,71163,37591,0
1783775917238768255,2026-07-11T20:18:37.238+07:00,3.575,71076,37422,0
1783775917238768256,2026-07-11T20:18:37.238+07:00,3.575,70848,37267,0
1783775917238768257,2026-07-11T20:18:37.238+07:00,3.575,70692,37062,0
1783775917281405680,2026-07-11T20:18:37.281+07:00,3.617,70484,36853,0
1783775917281405681,2026-07-11T20:18:37.281+07:00,3.617,70295,36659,0
1783775917281405682,2026-07-11T20:18:37.281+07:00,3.617,70072,36474,0
1783775917281405683,2026-07-11T20:18:37.281+07:00,3.617,69868,36259,0
1783775917281405684,2026-07-11T20:18:37.281+07:00,3.617,69649,36072,0
1783775917281405685,2026-07-11T20:18:37.281+07:00,3.617,69481,35874,0
1783775917281405686,2026-07-11T20:18:37.281+07:00,3.617,69280,35696,0
1783775917281405687,2026-07-11T20:18:37.281+07:00,3.617,69064,35494,0
1783775917281405688,2026-07-11T20:18:37.281+07:00,3.617,68932,35372,0
1783775917281405689,2026-07-11T20:18:37.281+07:00,3.617,68767,35216,0
1783775917281405690,2026-07-11T20:18:37.281+07:00,3.617,68653,35070,0
1783775917281405691,2026-07-11T20:18:37.281+07:00,3.617,68522,34942,0
1783775917281405692,2026-07-11T20:18:37.281+07:00,3.617,68376,34841,0
1783775917281405693,2026-07-11T20:18:37.281+07:00,3.617,68294,34707,0
1783775917281405694,2026-07-11T20:18:37.281+07:00,3.617,68165,34607,0
1783775917281405695,2026-07-11T20:18:37.281+07:00,3.617,68101,34491,0
1783775917281405696,2026-07-11T20:18:37.281+07:00,3.617,67972,34408,0
1783775917281405697,2026-07-11T20:18:37.281+07:00,3.617,67860,34318,0
1783775917326110651,2026-07-11T20:18:37.326+07:00,3.662,67844,34244,0
1783775917326110652,2026-07-11T20:18:37.326+07:00,3.662,67700,34179,0
1783775917326110653,2026-07-11T20:18:37.326+07:00,3.662,67685,34090,0
1783775917326110654,2026-07-11T20:18:37.326+07:00,3.662,67589,34058,0
1783775917326110655,2026-07-11T20:18:37.326+07:00,3.662,67558,34002,0
1783775917326110656,2026-07-11T20:18:37.326+07:00,3.662,67526,33938,0
1783775917326110657,2026-07-11T20:18:37.326+07:00,3.662,67494,33882,0
1783775917326110658,2026-07-11T20:18:37.326+07:00,3.662,67463,33866,0
1783775917326110659,2026-07-11T20:18:37.326+07:00,3.662,67447,33882,0
1783775917326110660,2026-07-11T20:18:37.326+07:00,3.662,67431,33850,0
1783775917326110661,2026-07-11T20:18:37.326+07:00,3.662,67431,33818,0
1783775917326110662,2026-07-11T20:18:37.326+07:00,3.662,67415,33834,0
1783775917326110663,2026-07-11T20:18:37.326+07:00,3.662,67399,33794,0
1783775917326110664,2026-07-11T20:18:37.326+07:00,3.662,67399,33826,0
1783775917326110665,2026-07-11T20:18:37.326+07:00,3.662,67415,33794,0
1783775917326110666,2026-07-11T20:18:37.326+07:00,3.662,67399,33850,0
1783775917326110667,2026-07-11T20:18:37.326+07:00,3.662,67431,33842,0
1783775917363661665,2026-07-11T20:18:37.363+07:00,3.700,67447,33874,0
1783775917363661666,2026-07-11T20:18:37.363+07:00,3.700,67478,33850,0
1783775917363661667,2026-07-11T20:18:37.363+07:00,3.700,67463,33874,0
1783775917363661668,2026-07-11T20:18:37.363+07:00,3.700,67478,33898,0
1783775917363661669,2026-07-11T20:18:37.363+07:00,3.700,67542,33914,0
1783775917363661670,2026-07-11T20:18:37.363+07:00,3.700,67542,33970,0
1783775917363661671,2026-07-11T20:18:37.363+07:00,3.700,67589,33970,0
1783775917363661672,2026-07-11T20:18:37.363+07:00,3.700,67605,33994,0
1783775917363661673,2026-07-11T20:18:37.363+07:00,3.700,67653,34042,0
1783775917363661674,2026-07-11T20:18:37.363+07:00,3.700,67716,34058,0
1783775917363661675,2026-07-11T20:18:37.363+07:00,3.700,67748,34139,0
1783775917363661676,2026-07-11T20:18:37.363+07:00,3.700,67780,34163,0
1783775917363661677,2026-07-11T20:18:37.363+07:00,3.700,67844,34212,0
1783775917363661678,2026-07-11T20:18:37.363+07:00,3.700,67876,34253,0
1783775917363661679,2026-07-11T20:18:37.363+07:00,3.700,67956,34261,0
1783775917406074116,2026-07-11T20:18:37.406+07:00,3.742,67956,34359,0
1783775917406074117,2026-07-11T20:18:37.406+07:00,3.742,68004,34375,0
1783775917406074118,2026-07-11T20:18:37.406+07:00,3.742,68036,34408,0
1783775917406074119,2026-07-11T20:18:37.406+07:00,3.742,68069,34474,0
1783775917406074120,2026-07-11T20:18:37.406+07:00,3.742,68133,34499,0
1783775917406074121,2026-07-11T20:18:37.406+07:00,3.742,68214,34573,0
1783775917406074122,2026-07-11T20:18:37.406+07:00,3.742,68262,34615,0
1783775917406074123,2026-07-11T20:18:37.406+07:00,3.742,68311,34648,0
1783775917406074124,2026-07-11T20:18:37.406+07:00,3.742,68359,34707,0
1783775917406074125,2026-07-11T20:18:37.406+07:00,3.742,68408,34765,0
1783775917406074126,2026-07-11T20:18:37.406+07:00,3.742,68473,34791,0
1783775917406074127,2026-07-11T20:18:37.406+07:00,3.742,68538,34883,0
1783775917406074128,2026-07-11T20:18:37.406+07:00,3.742,68538,34926,0
1783775917406074129,2026-07-11T20:18:37.406+07:00,3.742,68636,34985,0
1783775917406074130,2026-07-11T20:18:37.406+07:00,3.742,68669,35027,0
1783775917406074131,2026-07-11T20:18:37.406+07:00,3.742,68767,35079,0
1783775917406074132,2026-07-11T20:18:37.406+07:00,3.742,68767,35139,0
1783775917448514537,2026-07-11T20:18:37.448+07:00,3.784,68866,35190,0
1783775917448514538,2026-07-11T20:18:37.448+07:00,3.784,68932,35242,0
1783775917448514539,2026-07-11T20:18:37.448+07:00,3.784,68965,35311,0
1783775917448514540,2026-07-11T20:18:37.448+07:00,3.784,68998,35354,0
1783775917448514541,2026-07-11T20:18:37.448+07:00,3.784,69048,35406,0
1783775917448514542,2026-07-11T20:18:37.448+07:00,3.784,69131,35459,0
1783775917448514543,2026-07-11T20:18:37.448+07:00,3.784,69197,35485,0
1783775917448514544,2026-07-11T20:18:37.448+07:00,3.784,69264,35581,0
1783775917448514545,2026-07-11T20:18:37.448+07:00,3.784,69330,35617,0
1783775917448514546,2026-07-11T20:18:37.448+07:00,3.784,69364,35687,0
1783775917448514547,2026-07-11T20:18:37.448+07:00,3.784,69464,35749,0
1783775917448514548,2026-07-11T20:18:37.448+07:00,3.784,69481,35811,0
1783775917448514549,2026-07-11T20:18:37.448+07:00,3.784,69548,35847,0
1783775917448514550,2026-07-11T20:18:37.448+07:00,3.784,69598,35883,0
1783775917448514551,2026-07-11T20:18:37.448+07:00,3.784,69683,35973,0
1783775917448514552,2026-07-11T20:18:37.448+07:00,3.784,69716,36024,0
1783775917448514553,2026-07-11T20:18:37.448+07:00,3.784,69767,36042,0
1783775917493297751,2026-07-11T20:18:37.493+07:00,3.829,69852,36078,0
1783775917493297752,2026-07-11T20:18:37.493+07:00,3.829,69835,36126,0
1783775917493297753,2026-07-11T20:18:37.493+07:00,3.829,69885,36144,0
1783775917493297754,2026-07-11T20:18:37.493+07:00,3.829,69868,36174,0
1783775917493297755,2026-07-11T20:18:37.493+07:00,3.829,69902,36199,0
1783775917493297756,2026-07-11T20:18:37.493+07:00,3.829,69953,36229,0
1783775917493297757,2026-07-11T20:18:37.493+07:00,3.829,70004,36290,0
1783775917493297758,2026-07-11T20:18:37.493+07:00,3.829,70021,36302,0
1783775917493297759,2026-07-11T20:18:37.493+07:00,3.829,70055,36351,0
1783775917493297760,2026-07-11T20:18:37.493+07:00,3.829,70090,36382,0
1783775917493297761,2026-07-11T20:18:37.493+07:00,3.829,70107,36388,0
1783775917493297762,2026-07-11T20:18:37.493+07:00,3.829,70107,36406,0
1783775917493297763,2026-07-11T20:18:37.493+07:00,3.829,70124,36424,0
1783775917493297764,2026-07-11T20:18:37.493+07:00,3.829,70175,36449,0
1783775917493297765,2026-07-11T20:18:37.493+07:00,3.829,70192,36443,0
1783775917493297766,2026-07-11T20:18:37.493+07:00,3.829,70209,36455,0
1783775917493297767,2026-07-11T20:18:37.493+07:00,3.829,70192,36474,0
1783775917533776791,2026-07-11T20:18:37.533+07:00,3.870,70192,36486,0
1783775917533776792,2026-07-11T20:18:37.533+07:00,3.870,70192,36474,0
1783775917533776793,2026-07-11T20:18:37.533+07:00,3.870,70158,36474,0
1783775917533776794,2026-07-11T20:18:37.533+07:00,3.870,70175,36486,0
1783775917533776795,2026-07-11T20:18:37.533+07:00,3.870,70107,36461,0
1783775917533776796,2026-07-11T20:18:37.533+07:00,3.870,70124,36474,0
1783775917533776797,2026-07-11T20:18:37.533+07:00,3.870,70141,36455,0
1783775917533776798,2026-07-11T20:18:37.533+07:00,3.870,70141,36449,0
1783775917533776799,2026-07-11T20:18:37.533+07:00,3.870,70141,36437,0
1783775917533776800,2026-07-11T20:18:37.533+07:00,3.870,70107,36406,0
1783775917533776801,2026-07-11T20:18:37.533+07:00,3.870,70072,36394,0
1783775917533776802,2026-07-11T20:18:37.533+07:00,3.870,70055,36375,0
1783775917533776803,2026-07-11T20:18:37.533+07:00,3.870,70021,36357,0
1783775917533776804,2026-07-11T20:18:37.533+07:00,3.870,70004,36333,0
1783775917533776805,2026-07-11T20:18:37.533+07:00,3.870,70021,36320,0
1783775917533776806,2026-07-11T20:18:37.533+07:00,3.870,69970,36326,0
1783775917533776807,2026-07-11T20:18:37.533+07:00,3.870,69953,36284,0
1783775917571342131,2026-07-11T20:18:37.571+07:00,3.907,69936,36284,0
1783775917571342132,2026-07-11T20:18:37.571+07:00,3.907,69919,36278,0
1783775917571342133,2026-07-11T20:18:37.571+07:00,3.907,69868,36229,0
1783775917571342134,2026-07-11T20:18:37.571+07:00,3.907,69852,36241,0
1783775917571342135,2026-07-11T20:18:37.571+07:00,3.907,69885,36223,0
1783775917571342136,2026-07-11T20:18:37.571+07:00,3.907,69868,36199,0
1783775917571342137,2026-07-11T20:18:37.571+07:00,3.907,69868,36193,0
1783775917571342138,2026-07-11T20:18:37.571+07:00,3.907,69868,36180,0
1783775917571342139,2026-07-11T20:18:37.571+07:00,3.907,69818,36174,0
1783775917571342140,2026-07-11T20:18:37.571+07:00,3.907,69835,36144,0
1783775917571342141,2026-07-11T20:18:37.571+07:00,3.907,69818,36144,0
1783775917571342142,2026-07-11T20:18:37.571+07:00,3.907,69784,36144,0
1783775917571342143,2026-07-11T20:18:37.571+07:00,3.907,69801,36126,0
1783775917571342144,2026-07-11T20:18:37.571+07:00,3.907,69801,36126,0
1783775917571342145,2026-07-11T20:18:37.571+07:00,3.907,69784,36138,0
1783775917571342146,2026-07-11T20:18:37.571+07:00,3.907,69818,36138,0
1783775917615977672,2026-07-11T20:18:37.615+07:00,3.952,69784,36138,0
1783775917615977673,2026-07-11T20:18:37.615+07:00,3.952,69784,36132,0
1783775917615977674,2026-07-11T20:18:37.615+07:00,3.952,69835,36162,0
1783775917615977675,2026-07-11T20:18:37.615+07:00,3.952,69835,36144,0
1783775917615977676,2026-07-11T20:18:37.615+07:00,3.952,69818,36162,0
1783775917615977677,2026-07-11T20:18:37.615+07:00,3.952,69852,36162,0
1783775917615977678,2026-07-11T20:18:37.615+07:00,3.952,69835,36186,0
1783775917615977679,2026-07-11T20:18:37.615+07:00,3.952,69936,36223,0
1783775917615977680,2026-07-11T20:18:37.615+07:00,3.952,69885,36217,0
1783775917615977681,2026-07-11T20:18:37.615+07:00,3.952,69919,36235,0
1783775917615977682,2026-07-11T20:18:37.615+07:00,3.952,69919,36235,0
1783775917615977683,2026-07-11T20:18:37.615+07:00,3.952,69953,36265,0
1783775917615977684,2026-07-11T20:18:37.615+07:00,3.952,69987,36265,0
1783775917615977685,2026-07-11T20:18:37.615+07:00,3.952,69987,36314,0
1783775917615977686,2026-07-11T20:18:37.615+07:00,3.952,69987,36314,0
1783775917615977687,2026-07-11T20:18:37.615+07:00,3.952,70004,36339,0
1783775917615977688,2026-07-11T20:18:37.615+07:00,3.952,70038,36375,0
1783775917658243652,2026-07-11T20:18:37.658+07:00,3.994,70055,36388,0
1783775917658243653,2026-07-11T20:18:37.658+07:00,3.994,70038,36406,0
1783775917658243654,2026-07-11T20:18:37.658+07:00,3.994,70107,36431,0
1783775917658243655,2026-07-11T20:18:37.658+07:00,3.994,70090,36461,0
1783775917658243656,2026-07-11T20:18:37.658+07:00,3.994,70124,36480,0
1783775917658243657,2026-07-11T20:18:37.658+07:00,3.994,70158,36504,0
1783775917658243658,2026-07-11T20:18:37.658+07:00,3.994,70209,36542,0
1783775917658243659,2026-07-11T20:18:37.658+07:00,3.994,70175,36572,0
1783775917658243660,2026-07-11T20:18:37.658+07:00,3.994,70226,36585,0
1783775917658243661,2026-07-11T20:18:37.658+07:00,3.994,70243,36628,0
1783775917658243662,2026-07-11T20:18:37.658+07:00,3.994,70261,36659,0
1783775917658243663,2026-07-11T20:18:37.658+07:00,3.994,70312,36697,0
1783775917658243664,2026-07-11T20:18:37.658+07:00,3.994,70346,36715,0
1783775917658243665,2026-07-11T20:18:37.658+07:00,3.994,70381,36753,0
1783775917658243666,2026-07-11T20:18:37.658+07:00,3.994,70450,36809,0
1783775917658243667,2026-07-11T20:18:37.658+07:00,3.994,70432,36828,0
1783775917658243668,2026-07-11T20:18:37.658+07:00,3.994,70501,36866,0
1783775917700994920,2026-07-11T20:18:37.700+07:00,4.037,70519,36891,0
1783775917700994921,2026-07-11T20:18:37.700+07:00,4.037,70553,36923,0
1783775917700994922,2026-07-11T20:18:37.700+07:00,4.037,70588,36916,0
1783775917700994923,2026-07-11T20:18:37.700+07:00,4.037,70622,36954,0
1783775917700994924,2026-07-11T20:18:37.700+07:00,4.037,70640,36973,0
1783775917700994925,2026-07-11T20:18:37.700+07:00,4.037,70657,37024,0
1783775917700994926,2026-07-11T20:18:37.700+07:00,4.037,70674,37056,0
1783775917700994927,2026-07-11T20:18:37.700+07:00,4.037,70692,37068,0
1783775917700994928,2026-07-11T20:18:37.700+07:00,4.037,70709,37100,0
1783775917700994929,2026-07-11T20:18:37.700+07:00,4.037,70744,37107,0
1783775917700994930,2026-07-11T20:18:37.700+07:00,4.037,70744,37138,0
1783775917700994931,2026-07-11T20:18:37.700+07:00,4.037,70796,37132,0
1783775917700994932,2026-07-11T20:18:37.700+07:00,4.037,70831,37170,0
1783775917700994933,2026-07-11T20:18:37.700+07:00,4.037,70796,37196,0
1783775917700994934,2026-07-11T20:18:37.700+07:00,4.037,70866,37215,0
1783775917700994935,2026-07-11T20:18:37.700+07:00,4.037,70831,37228,0
1783775917700994936,2026-07-11T20:18:37.700+07:00,4.037,70848,37241,0
1783775917743386999,2026-07-11T20:18:37.743+07:00,4.079,70883,37247,0
1783775917743387000,2026-07-11T20:18:37.743+07:00,4.079,70883,37267,0
1783775917743387001,2026-07-11T20:18:37.743+07:00,4.079,70883,37279,0
1783775917743387002,2026-07-11T20:18:37.743+07:00,4.079,70935,37292,0
1783775917743387003,2026-07-11T20:18:37.743+07:00,4.079,70935,37292,0
1783775917743387004,2026-07-11T20:18:37.743+07:00,4.079,70935,37331,0
1783775917743387005,2026-07-11T20:18:37.743+07:00,4.079,70953,37312,0
1783775917743387006,2026-07-11T20:18:37.743+07:00,4.079,70953,37331,0
1783775917743387007,2026-07-11T20:18:37.743+07:00,4.079,70988,37344,0
1783775917743387008,2026-07-11T20:18:37.743+07:00,4.079,70988,37376,0
1783775917743387009,2026-07-11T20:18:37.743+07:00,4.079,71058,37363,0
1783775917743387010,2026-07-11T20:18:37.743+07:00,4.079,71076,37415,0
1783775917743387011,2026-07-11T20:18:37.743+07:00,4.079,71111,37396,0
1783775917743387012,2026-07-11T20:18:37.743+07:00,4.079,71093,37389,0
1783775917743387013,2026-07-11T20:18:37.743+07:00,4.079,71093,37409,0
1783775917743387014,2026-07-11T20:18:37.743+07:00,4.079,71128,37396,0
1783775917743387015,2026-07-11T20:18:37.743+07:00,4.079,71111,37409,0
1783775917780605332,2026-07-11T20:18:37.780+07:00,4.116,71128,37396,0
1783775917780605333,2026-07-11T20:18:37.780+07:00,4.116,71146,37396,0
1783775917780605334,2026-07-11T20:18:37.780+07:00,4.116,71163,37415,0
1783775917780605335,2026-07-11T20:18:37.780+07:00,4.116,71163,37409,0
1783775917780605336,2026-07-11T20:18:37.780+07:00,4.116,71199,37428,0
1783775917780605337,2026-07-11T20:18:37.780+07:00,4.116,71146,37415,0
1783775917780605338,2026-07-11T20:18:37.780+07:00,4.116,71111,37402,0
1783775917780605339,2026-07-11T20:18:37.780+07:00,4.116,71146,37428,0
1783775917780605340,2026-07-11T20:18:37.780+07:00,4.116,71163,37441,0
1783775917780605341,2026-07-11T20:18:37.780+07:00,4.116,71163,37435,0
1783775917780605342,2026-07-11T20:18:37.780+07:00,4.116,71163,37447,0
1783775917780605343,2026-07-11T20:18:37.780+07:00,4.116,71216,37447,0
1783775917780605344,2026-07-11T20:18:37.780+07:00,4.116,71199,37480,0
1783775917780605345,2026-07-11T20:18:37.780+07:00,4.116,71216,37500,0
1783775917780605346,2026-07-11T20:18:37.780+07:00,4.116,71251,37500,0
1783775917823053648,2026-07-11T20:18:37.823+07:00,4.159,71269,37493,0
1783775917823053649,2026-07-11T20:18:37.823+07:00,4.159,71269,37519,0
1783775917823053650,2026-07-11T20:18:37.823+07:00,4.159,71287,37519,0
1783775917823053651,2026-07-11T20:18:37.823+07:00,4.159,71269,37552,0
1783775917823053652,2026-07-11T20:18:37.823+07:00,4.159,71304,37539,0
1783775917823053653,2026-07-11T20:18:37.823+07:00,4.159,71251,37552,0
1783775917823053654,2026-07-11T20:18:37.823+07:00,4.159,71234,37539,0
1783775917823053655,2026-07-11T20:18:37.823+07:00,4.159,71199,37552,0
1783775917823053656,2026-07-11T20:18:37.823+07:00,4.159,71181,37558,0
1783775917823053657,2026-07-11T20:18:37.823+07:00,4.159,71181,37552,0
1783775917823053658,2026-07-11T20:18:37.823+07:00,4.159,71163,37558,0
1783775917823053659,2026-07-11T20:18:37.823+07:00,4.159,71216,37558,0
1783775917823053660,2026-07-11T20:18:37.823+07:00,4.159,71181,37565,0
1783775917823053661,2026-07-11T20:18:37.823+07:00,4.159,71181,37500,0
1783775917823053662,2026-07-11T20:18:37.823+07:00,4.159,71058,37460,0
1783775917823053663,2026-07-11T20:18:37.823+07:00,4.159,71005,37402,0
1783775917823053664,2026-07-11T20:18:37.823+07:00,4.159,70935,37325,0
1783775917863234572,2026-07-11T20:18:37.863+07:00,4.199,70831,37215,0
1783775917863234573,2026-07-11T20:18:37.863+07:00,4.199,70744,37113,0
1783775917863234574,2026-07-11T20:18:37.863+07:00,4.199,70570,36967,0
1783775917863234575,2026-07-11T20:18:37.863+07:00,4.199,70484,36816,0
1783775917863234576,2026-07-11T20:18:37.863+07:00,4.199,70278,36678,0
1783775917863234577,2026-07-11T20:18:37.863+07:00,4.199,70107,36474,0
1783775917863234578,2026-07-11T20:18:37.863+07:00,4.199,69936,36302,0
1783775917863234579,2026-07-11T20:18:37.863+07:00,4.199,69733,36126,0
1783775917863234580,2026-07-11T20:18:37.863+07:00,4.199,69565,35901,0
1783775917863234581,2026-07-11T20:18:37.863+07:00,4.199,69414,35758,0
1783775917863234582,2026-07-11T20:18:37.863+07:00,4.199,69164,35590,0
1783775917863234583,2026-07-11T20:18:37.863+07:00,4.199,69031,35433,0
1783775917863234584,2026-07-11T20:18:37.863+07:00,4.199,68883,35294,0
1783775917863234585,2026-07-11T20:18:37.863+07:00,4.199,68735,35130,0
1783775917863234586,2026-07-11T20:18:37.863+07:00,4.199,68620,35010,0
1783775917863234587,2026-07-11T20:18:37.863+07:00,4.199,68473,34900,0
1783775917905464306,2026-07-11T20:18:37.905+07:00,4.241,68376,34757,0
1783775917905464307,2026-07-11T20:18:37.905+07:00,4.241,68262,34623,0
1783775917905464308,2026-07-11T20:18:37.905+07:00,4.241,68149,34515,0
1783775917905464309,2026-07-11T20:18:37.905+07:00,4.241,68052,34433,0
1783775917905464310,2026-07-11T20:18:37.905+07:00,4.241,67940,34326,0
1783775917905464311,2026-07-11T20:18:37.905+07:00,4.241,67860,34220,0
1783775917905464312,2026-07-11T20:18:37.905+07:00,4.241,67748,34131,0
1783775917905464313,2026-07-11T20:18:37.905+07:00,4.241,67669,34058,0
1783775917905464314,2026-07-11T20:18:37.905+07:00,4.241,67637,33978,0
1783775917905464315,2026-07-11T20:18:37.905+07:00,4.241,67558,33914,0
1783775917905464316,2026-07-11T20:18:37.905+07:00,4.241,67478,33882,0
