host_timestamp_ns,host_timestamp_iso,elapsed_s,red,infrared,background
1783265214213973100,2026-07-05T22:26:54.213+07:00,0.050,99619,34926,0
1783265214213973100,2026-07-05T22:26:54.213+07:00,0.050,99619,34951,0
1783265214213973100,2026-07-05T22:26:54.213+07:00,0.050,99619,34934,0
1783265214213973100,2026-07-05T22:26:54.213+07:00,0.050,99585,34824,0
1783265214213973100,2026-07-05T22:26:54.213+07:00,0.050,99636,34892,0
1783265214213973100,2026-07-05T22:26:54.213+07:00,0.050,99774,35070,0
1783265214213973100,2026-07-05T22:26:54.213+07:00,0.050,99774,35036,0
1783265214213973100,2026-07-05T22:26:54.213+07:00,0.050,99740,35036,0
1783265214213973100,2026-07-05T22:26:54.213+07:00,0.050,99757,35045,0
1783265214213973100,2026-07-05T22:26:54.213+07:00,0.050,99740,35019,0
1783265214213973100,2026-07-05T22:26:54.213+07:00,0.050,99740,34993,0
1783265214213973100,2026-07-05T22:26:54.213+07:00,0.050,99688,34892,0
1783265214213973100,2026-07-05T22:26:54.213+07:00,0.050,99774,34959,0
1783265214213973100,2026-07-05T22:26:54.213+07:00,0.050,99895,35113,0
1783265214213973100,2026-07-05T22:26:54.213+07:00,0.050,99843,35053,0
1783265214263654600,2026-07-05T22:26:54.263+07:00,0.100,99757,35036,0
1783265214263654600,2026-07-05T22:26:54.263+07:00,0.100,99757,35002,0
1783265214263654600,2026-07-05T22:26:54.263+07:00,0.100,99653,34968,0
1783265214263654600,2026-07-05T22:26:54.263+07:00,0.100,99585,34782,0
1783265214263654600,2026-07-05T22:26:54.263+07:00,0.100,99430,34732,0
1783265214263654600,2026-07-05T22:26:54.263+07:00,0.100,99378,34749,0
1783265214263654600,2026-07-05T22:26:54.263+07:00,0.100,99361,34723,0
1783265214263654600,2026-07-05T22:26:54.263+07:00,0.100,99207,34690,0
1783265214263654600,2026-07-05T22:26:54.263+07:00,0.100,99020,34548,0
1783265214263654600,2026-07-05T22:26:54.263+07:00,0.100,98833,34408,0
1783265214263654600,2026-07-05T22:26:54.263+07:00,0.100,98680,34285,0
1783265214263654600,2026-07-05T22:26:54.263+07:00,0.100,98478,34204,0
1783265214263654600,2026-07-05T22:26:54.263+07:00,0.100,98226,34002,0
1783265214263654600,2026-07-05T22:26:54.263+07:00,0.100,98092,33978,0
1783265214263654600,2026-07-05T22:26:54.263+07:00,0.100,97992,33914,0
1783265214263654600,2026-07-05T22:26:54.263+07:00,0.100,97743,33747,0
1783265214263654600,2026-07-05T22:26:54.263+07:00,0.100,97494,33613,0
1783265214303706400,2026-07-05T22:26:54.303+07:00,0.140,97346,33465,0
1783265214303706400,2026-07-05T22:26:54.303+07:00,0.140,97116,33302,0
1783265214303706400,2026-07-05T22:26:54.303+07:00,0.140,96904,33195,0
1783265214303706400,2026-07-05T22:26:54.303+07:00,0.140,96628,32982,0
1783265214303706400,2026-07-05T22:26:54.303+07:00,0.140,96498,32936,0
1783265214303706400,2026-07-05T22:26:54.303+07:00,0.140,96417,32906,0
1783265214303706400,2026-07-05T22:26:54.303+07:00,0.140,96240,32764,0
1783265214303706400,2026-07-05T22:26:54.303+07:00,0.140,96016,32616,0
1783265214303706400,2026-07-05T22:26:54.303+07:00,0.140,95872,32520,0
1783265214303706400,2026-07-05T22:26:54.303+07:00,0.140,95665,32388,0
1783265214303706400,2026-07-05T22:26:54.303+07:00,0.140,95522,32337,0
1783265214303706400,2026-07-05T22:26:54.303+07:00,0.140,95316,32135,0
1783265214303706400,2026-07-05T22:26:54.303+07:00,0.140,95222,32135,0
1783265214303706400,2026-07-05T22:26:54.303+07:00,0.140,95159,32128,0
1783265214303706400,2026-07-05T22:26:54.303+07:00,0.140,95065,32028,0
1783265214303706400,2026-07-05T22:26:54.303+07:00,0.140,94939,31936,0
1783265214303706400,2026-07-05T22:26:54.303+07:00,0.140,94877,31879,0
1783265214346910700,2026-07-05T22:26:54.346+07:00,0.183,94752,31809,0
1783265214346910700,2026-07-05T22:26:54.346+07:00,0.183,94674,31767,0
1783265214346910700,2026-07-05T22:26:54.346+07:00,0.183,94519,31634,0
1783265214346910700,2026-07-05T22:26:54.346+07:00,0.183,94550,31690,0
1783265214346910700,2026-07-05T22:26:54.346+07:00,0.183,94519,31704,0
1783265214346910700,2026-07-05T22:26:54.346+07:00,0.183,94488,31669,0
1783265214346910700,2026-07-05T22:26:54.346+07:00,0.183,94410,31599,0
1783265214346910700,2026-07-05T22:26:54.346+07:00,0.183,94379,31627,0
1783265214346910700,2026-07-05T22:26:54.346+07:00,0.183,94364,31572,0
1783265214346910700,2026-07-05T22:26:54.346+07:00,0.183,94287,31537,0
1783265214346910700,2026-07-05T22:26:54.346+07:00,0.183,94271,31447,0
1783265214346910700,2026-07-05T22:26:54.346+07:00,0.183,94287,31544,0
1783265214346910700,2026-07-05T22:26:54.346+07:00,0.183,94364,31599,0
1783265214346910700,2026-07-05T22:26:54.346+07:00,0.183,94395,31592,0
1783265214346910700,2026-07-05T22:26:54.346+07:00,0.183,94333,31530,0
1783265214346910700,2026-07-05T22:26:54.346+07:00,0.183,94364,31572,0
1783265214346910700,2026-07-05T22:26:54.346+07:00,0.183,94348,31537,0
1783265214384010700,2026-07-05T22:26:54.384+07:00,0.220,94333,31544,0
1783265214384010700,2026-07-05T22:26:54.384+07:00,0.220,94287,31461,0
1783265214384010700,2026-07-05T22:26:54.384+07:00,0.220,94333,31572,0
1783265214384010700,2026-07-05T22:26:54.384+07:00,0.220,94410,31655,0
1783265214384010700,2026-07-05T22:26:54.384+07:00,0.220,94472,31641,0
1783265214384010700,2026-07-05T22:26:54.384+07:00,0.220,94457,31613,0
1783265214384010700,2026-07-05T22:26:54.384+07:00,0.220,94488,31641,0
1783265214384010700,2026-07-05T22:26:54.384+07:00,0.220,94472,31634,0
1783265214384010700,2026-07-05T22:26:54.384+07:00,0.220,94457,31627,0
1783265214384010700,2026-07-05T22:26:54.384+07:00,0.220,94410,31565,0
1783265214384010700,2026-07-05T22:26:54.384+07:00,0.220,94503,31634,0
1783265214384010700,2026-07-05T22:26:54.384+07:00,0.220,94550,31711,0
1783265214384010700,2026-07-05T22:26:54.384+07:00,0.220,94596,31711,0
1783265214384010700,2026-07-05T22:26:54.384+07:00,0.220,94565,31704,0
1783265214384010700,2026-07-05T22:26:54.384+07:00,0.220,94612,31697,0
1783265214384010700,2026-07-05T22:26:54.384+07:00,0.220,94581,31704,0
1783265214423728000,2026-07-05T22:26:54.423+07:00,0.260,94627,31676,0
1783265214423728000,2026-07-05T22:26:54.423+07:00,0.260,94503,31627,0
1783265214423728000,2026-07-05T22:26:54.423+07:00,0.260,94581,31683,0
1783265214423728000,2026-07-05T22:26:54.423+07:00,0.260,94643,31760,0
1783265214423728000,2026-07-05T22:26:54.423+07:00,0.260,94705,31774,0
1783265214423728000,2026-07-05T22:26:54.423+07:00,0.260,94674,31753,0
1783265214423728000,2026-07-05T22:26:54.423+07:00,0.260,94705,31767,0
1783265214423728000,2026-07-05T22:26:54.423+07:00,0.260,94658,31746,0
1783265214423728000,2026-07-05T22:26:54.423+07:00,0.260,94674,31739,0
1783265214423728000,2026-07-05T22:26:54.423+07:00,0.260,94612,31676,0
1783265214423728000,2026-07-05T22:26:54.423+07:00,0.260,94705,31746,0
1783265214423728000,2026-07-05T22:26:54.423+07:00,0.260,94768,31830,0
1783265214423728000,2026-07-05T22:26:54.423+07:00,0.260,94783,31865,0
1783265214423728000,2026-07-05T22:26:54.423+07:00,0.260,94814,31837,0
1783265214423728000,2026-07-05T22:26:54.423+07:00,0.260,94830,31879,0
1783265214423728000,2026-07-05T22:26:54.423+07:00,0.260,94814,31858,0
1783265214466825700,2026-07-05T22:26:54.466+07:00,0.303,94877,31858,0
1783265214466825700,2026-07-05T22:26:54.466+07:00,0.303,94830,31788,0
1783265214466825700,2026-07-05T22:26:54.466+07:00,0.303,94924,31907,0
1783265214466825700,2026-07-05T22:26:54.466+07:00,0.303,94971,31964,0
1783265214466825700,2026-07-05T22:26:54.466+07:00,0.303,95065,31985,0
1783265214466825700,2026-07-05T22:26:54.466+07:00,0.303,95096,31971,0
1783265214466825700,2026-07-05T22:26:54.466+07:00,0.303,95080,32007,0
1783265214466825700,2026-07-05T22:26:54.466+07:00,0.303,95065,32028,0
1783265214466825700,2026-07-05T22:26:54.466+07:00,0.303,95096,32007,0
1783265214466825700,2026-07-05T22:26:54.466+07:00,0.303,95080,31971,0
1783265214466825700,2026-07-05T22:26:54.466+07:00,0.303,95159,32035,0
1783265214466825700,2026-07-05T22:26:54.466+07:00,0.303,95206,32099,0
1783265214466825700,2026-07-05T22:26:54.466+07:00,0.303,95301,32135,0
1783265214466825700,2026-07-05T22:26:54.466+07:00,0.303,95348,32099,0
1783265214466825700,2026-07-05T22:26:54.466+07:00,0.303,95316,32107,0
1783265214466825700,2026-07-05T22:26:54.466+07:00,0.303,95316,32135,0
1783265214505744100,2026-07-05T22:26:54.505+07:00,0.342,95301,32150,0
1783265214505744100,2026-07-05T22:26:54.505+07:00,0.342,95301,32056,0
1783265214509792600,2026-07-05T22:26:54.509+07:00,0.346,95332,32142,0
1783265214509792600,2026-07-05T22:26:54.509+07:00,0.346,95395,32236,0
1783265214509792600,2026-07-05T22:26:54.509+07:00,0.346,95443,32243,0
1783265214509792600,2026-07-05T22:26:54.509+07:00,0.346,95443,32221,0
1783265214509792600,2026-07-05T22:26:54.509+07:00,0.346,95411,32221,0
1783265214509792600,2026-07-05T22:26:54.509+07:00,0.346,95380,32185,0
1783265214509792600,2026-07-05T22:26:54.509+07:00,0.346,95380,32185,0
1783265214509792600,2026-07-05T22:26:54.509+07:00,0.346,95316,32121,0
1783265214509792600,2026-07-05T22:26:54.509+07:00,0.346,95364,32157,0
1783265214509792600,2026-07-05T22:26:54.509+07:00,0.346,95427,32243,0
1783265214509792600,2026-07-05T22:26:54.509+07:00,0.346,95443,32229,0
1783265214509792600,2026-07-05T22:26:54.509+07:00,0.346,95459,32200,0
1783265214509792600,2026-07-05T22:26:54.509+07:00,0.346,95395,32200,0
1783265214509792600,2026-07-05T22:26:54.509+07:00,0.346,95364,32200,0
1783265214509792600,2026-07-05T22:26:54.509+07:00,0.346,95348,32164,0
1783265214546898700,2026-07-05T22:26:54.546+07:00,0.383,95285,32092,0
1783265214546898700,2026-07-05T22:26:54.546+07:00,0.383,95316,32157,0
1783265214546898700,2026-07-05T22:26:54.546+07:00,0.383,95364,32214,0
1783265214546898700,2026-07-05T22:26:54.546+07:00,0.383,95395,32200,0
1783265214546898700,2026-07-05T22:26:54.546+07:00,0.383,95459,32171,0
1783265214546898700,2026-07-05T22:26:54.546+07:00,0.383,95332,32171,0
1783265214546898700,2026-07-05T22:26:54.546+07:00,0.383,95301,32150,0
1783265214546898700,2026-07-05T22:26:54.546+07:00,0.383,95301,32150,0
1783265214546898700,2026-07-05T22:26:54.546+07:00,0.383,95238,32064,0
1783265214546898700,2026-07-05T22:26:54.546+07:00,0.383,95316,32142,0
1783265214546898700,2026-07-05T22:26:54.546+07:00,0.383,95364,32214,0
1783265214546898700,2026-07-05T22:26:54.546+07:00,0.383,95395,32214,0
1783265214546898700,2026-07-05T22:26:54.546+07:00,0.383,95474,32207,0
1783265214546898700,2026-07-05T22:26:54.546+07:00,0.383,95364,32193,0
1783265214546898700,2026-07-05T22:26:54.546+07:00,0.383,95364,32193,0
1783265214546898700,2026-07-05T22:26:54.546+07:00,0.383,95364,32185,0
1783265214546898700,2026-07-05T22:26:54.546+07:00,0.383,95301,32078,0
1783265214592040500,2026-07-05T22:26:54.592+07:00,0.428,95364,32185,0
1783265214592040500,2026-07-05T22:26:54.592+07:00,0.428,95443,32250,0
1783265214592040500,2026-07-05T22:26:54.592+07:00,0.428,95506,32272,0
1783265214592040500,2026-07-05T22:26:54.592+07:00,0.428,95506,32243,0
1783265214592040500,2026-07-05T22:26:54.592+07:00,0.428,95443,32250,0
1783265214592040500,2026-07-05T22:26:54.592+07:00,0.428,95443,32236,0
1783265214592040500,2026-07-05T22:26:54.592+07:00,0.428,95474,32221,0
1783265214592040500,2026-07-05T22:26:54.592+07:00,0.428,95443,32193,0
1783265214592040500,2026-07-05T22:26:54.592+07:00,0.428,95490,32236,0
1783265214592040500,2026-07-05T22:26:54.592+07:00,0.428,95554,32345,0
1783265214592040500,2026-07-05T22:26:54.592+07:00,0.428,95617,32323,0
1783265214592040500,2026-07-05T22:26:54.592+07:00,0.428,95696,32337,0
1783265214592040500,2026-07-05T22:26:54.592+07:00,0.428,95601,32345,0
1783265214592040500,2026-07-05T22:26:54.592+07:00,0.428,95601,32330,0
1783265214592040500,2026-07-05T22:26:54.592+07:00,0.428,95617,32323,0
1783265214592040500,2026-07-05T22:26:54.592+07:00,0.428,95569,32308,0
1783265214633739800,2026-07-05T22:26:54.633+07:00,0.470,95649,32330,0
1783265214633739800,2026-07-05T22:26:54.633+07:00,0.470,95776,32468,0
1783265214633739800,2026-07-05T22:26:54.633+07:00,0.470,95776,32476,0
1783265214633739800,2026-07-05T22:26:54.633+07:00,0.470,95904,32439,0
1783265214633739800,2026-07-05T22:26:54.633+07:00,0.470,95792,32454,0
1783265214633739800,2026-07-05T22:26:54.633+07:00,0.470,95776,32454,0
1783265214633739800,2026-07-05T22:26:54.633+07:00,0.470,95856,32461,0
1783265214633739800,2026-07-05T22:26:54.633+07:00,0.470,95760,32410,0
1783265214633739800,2026-07-05T22:26:54.633+07:00,0.470,95840,32505,0
1783265214633739800,2026-07-05T22:26:54.633+07:00,0.470,95984,32608,0
1783265214633739800,2026-07-05T22:26:54.633+07:00,0.470,96032,32608,0
1783265214633739800,2026-07-05T22:26:54.633+07:00,0.470,96144,32616,0
1783265214633739800,2026-07-05T22:26:54.633+07:00,0.470,96112,32660,0
1783265214633739800,2026-07-05T22:26:54.633+07:00,0.470,96096,32660,0
1783265214633739800,2026-07-05T22:26:54.633+07:00,0.470,96128,32653,0
1783265214633739800,2026-07-05T22:26:54.633+07:00,0.470,96080,32616,0
1783265214633739800,2026-07-05T22:26:54.633+07:00,0.470,96128,32675,0
1783265214676546800,2026-07-05T22:26:54.676+07:00,0.513,96224,32794,0
1783265214676546800,2026-07-05T22:26:54.676+07:00,0.513,96337,32816,0
1783265214676546800,2026-07-05T22:26:54.676+07:00,0.513,96417,32801,0
1783265214676546800,2026-07-05T22:26:54.676+07:00,0.513,96353,32816,0
1783265214676546800,2026-07-05T22:26:54.676+07:00,0.513,96385,32801,0
1783265214676546800,2026-07-05T22:26:54.676+07:00,0.513,96417,32831,0
1783265214676546800,2026-07-05T22:26:54.676+07:00,0.513,96321,32786,0
1783265214676546800,2026-07-05T22:26:54.676+07:00,0.513,96466,32876,0
1783265214676546800,2026-07-05T22:26:54.676+07:00,0.513,96595,33004,0
1783265214676546800,2026-07-05T22:26:54.676+07:00,0.513,96644,33012,0
1783265214676546800,2026-07-05T22:26:54.676+07:00,0.513,96709,32997,0
1783265214676546800,2026-07-05T22:26:54.676+07:00,0.513,96660,32997,0
1783265214676546800,2026-07-05T22:26:54.676+07:00,0.513,96660,33004,0
1783265214676546800,2026-07-05T22:26:54.676+07:00,0.513,96709,32982,0
1783265214676546800,2026-07-05T22:26:54.676+07:00,0.513,96628,32974,0
1783265214676546800,2026-07-05T22:26:54.676+07:00,0.513,96709,33042,0
1783265214676546800,2026-07-05T22:26:54.676+07:00,0.513,96806,33164,0
1783265214719110400,2026-07-05T22:26:54.719+07:00,0.555,96888,33179,0
1783265214719110400,2026-07-05T22:26:54.719+07:00,0.555,96969,33156,0
1783265214719110400,2026-07-05T22:26:54.719+07:00,0.555,96855,33172,0
1783265214719110400,2026-07-05T22:26:54.719+07:00,0.555,96888,33156,0
1783265214719110400,2026-07-05T22:26:54.719+07:00,0.555,96888,33164,0
1783265214719110400,2026-07-05T22:26:54.719+07:00,0.555,96871,33141,0
1783265214719110400,2026-07-05T22:26:54.719+07:00,0.555,96937,33202,0
1783265214719110400,2026-07-05T22:26:54.719+07:00,0.555,97035,33341,0
1783265214719110400,2026-07-05T22:26:54.719+07:00,0.555,97133,33325,0
1783265214719110400,2026-07-05T22:26:54.719+07:00,0.555,97231,33302,0
1783265214719110400,2026-07-05T22:26:54.719+07:00,0.555,97165,33341,0
1783265214719110400,2026-07-05T22:26:54.719+07:00,0.555,97149,33310,0
1783265214719110400,2026-07-05T22:26:54.719+07:00,0.555,97149,33325,0
1783265214719110400,2026-07-05T22:26:54.719+07:00,0.555,97084,33271,0
1783265214719110400,2026-07-05T22:26:54.719+07:00,0.555,97182,33356,0
1783265214719110400,2026-07-05T22:26:54.719+07:00,0.555,97264,33496,0
1783265214719110400,2026-07-05T22:26:54.719+07:00,0.555,97330,33449,0
1783265214756832900,2026-07-05T22:26:54.756+07:00,0.593,97428,33418,0
1783265214756832900,2026-07-05T22:26:54.756+07:00,0.593,97363,33465,0
1783265214756832900,2026-07-05T22:26:54.756+07:00,0.593,97313,33465,0
1783265214756832900,2026-07-05T22:26:54.756+07:00,0.593,97363,33465,0
1783265214756832900,2026-07-05T22:26:54.756+07:00,0.593,97330,33395,0
1783265214756832900,2026-07-05T22:26:54.756+07:00,0.593,97396,33472,0
1783265214756832900,2026-07-05T22:26:54.756+07:00,0.593,97461,33550,0
1783265214756832900,2026-07-05T22:26:54.756+07:00,0.593,97511,33605,0
1783265214756832900,2026-07-05T22:26:54.756+07:00,0.593,97594,33574,0
1783265214756832900,2026-07-05T22:26:54.756+07:00,0.593,97560,33597,0
1783265214756832900,2026-07-05T22:26:54.756+07:00,0.593,97527,33589,0
1783265214756832900,2026-07-05T22:26:54.756+07:00,0.593,97527,33589,0
1783265214756832900,2026-07-05T22:26:54.756+07:00,0.593,97494,33511,0
1783265214756832900,2026-07-05T22:26:54.756+07:00,0.593,97544,33605,0
1783265214756832900,2026-07-05T22:26:54.756+07:00,0.593,97627,33668,0
1783265214756832900,2026-07-05T22:26:54.756+07:00,0.593,97693,33707,0
1783265214756832900,2026-07-05T22:26:54.756+07:00,0.593,97826,33684,0
1783265214793789400,2026-07-05T22:26:54.793+07:00,0.630,97709,33707,0
1783265214793789400,2026-07-05T22:26:54.793+07:00,0.630,97726,33676,0
1783265214793789400,2026-07-05T22:26:54.793+07:00,0.630,97693,33699,0
1783265214793789400,2026-07-05T22:26:54.793+07:00,0.630,97643,33660,0
1783265214793789400,2026-07-05T22:26:54.793+07:00,0.630,97743,33699,0
1783265214793789400,2026-07-05T22:26:54.793+07:00,0.630,97776,33779,0
1783265214793789400,2026-07-05T22:26:54.793+07:00,0.630,97875,33794,0
1783265214793789400,2026-07-05T22:26:54.793+07:00,0.630,97959,33802,0
1783265214793789400,2026-07-05T22:26:54.793+07:00,0.630,97925,33810,0
1783265214793789400,2026-07-05T22:26:54.793+07:00,0.630,97875,33810,0
1783265214793789400,2026-07-05T22:26:54.793+07:00,0.630,97875,33810,0
1783265214793789400,2026-07-05T22:26:54.793+07:00,0.630,97792,33723,0
1783265214793789400,2026-07-05T22:26:54.793+07:00,0.630,97859,33786,0
1783265214793789400,2026-07-05T22:26:54.793+07:00,0.630,97959,33874,0
1783265214793789400,2026-07-05T22:26:54.793+07:00,0.630,98025,33890,0
1783265214839748000,2026-07-05T22:26:54.839+07:00,0.676,98075,33810,0
1783265214839748000,2026-07-05T22:26:54.839+07:00,0.676,98059,33906,0
1783265214839748000,2026-07-05T22:26:54.839+07:00,0.676,97992,33930,0
1783265214839748000,2026-07-05T22:26:54.839+07:00,0.676,98025,33906,0
1783265214839748000,2026-07-05T22:26:54.839+07:00,0.676,98009,33858,0
1783265214839748000,2026-07-05T22:26:54.839+07:00,0.676,98042,33914,0
1783265214839748000,2026-07-05T22:26:54.839+07:00,0.676,98126,34002,0
1783265214839748000,2026-07-05T22:26:54.839+07:00,0.676,98209,34002,0
1783265214839748000,2026-07-05T22:26:54.839+07:00,0.676,98276,33970,0
1783265214839748000,2026-07-05T22:26:54.839+07:00,0.676,98209,34026,0
1783265214839748000,2026-07-05T22:26:54.839+07:00,0.676,98209,34042,0
1783265214839748000,2026-07-05T22:26:54.839+07:00,0.676,98243,34066,0
1783265214839748000,2026-07-05T22:26:54.839+07:00,0.676,98192,33970,0
1783265214839748000,2026-07-05T22:26:54.839+07:00,0.676,98276,34026,0
1783265214839748000,2026-07-05T22:26:54.839+07:00,0.676,98310,34090,0
1783265214839748000,2026-07-05T22:26:54.839+07:00,0.676,98411,34115,0
1783265214839748000,2026-07-05T22:26:54.839+07:00,0.676,98478,34090,0
1783265214884154000,2026-07-05T22:26:54.884+07:00,0.720,98427,34139,0
1783265214884154000,2026-07-05T22:26:54.884+07:00,0.720,98411,34147,0
1783265214884154000,2026-07-05T22:26:54.884+07:00,0.720,98444,34139,0
1783265214884154000,2026-07-05T22:26:54.884+07:00,0.720,98411,34123,0
1783265214884154000,2026-07-05T22:26:54.884+07:00,0.720,98444,34204,0
1783265214884154000,2026-07-05T22:26:54.884+07:00,0.720,98545,34277,0
1783265214884154000,2026-07-05T22:26:54.884+07:00,0.720,98613,34277,0
1783265214884154000,2026-07-05T22:26:54.884+07:00,0.720,98697,34253,0
1783265214884154000,2026-07-05T22:26:54.884+07:00,0.720,98680,34310,0
1783265214884154000,2026-07-05T22:26:54.884+07:00,0.720,98647,34302,0
1783265214884154000,2026-07-05T22:26:54.884+07:00,0.720,98680,34285,0
1783265214884154000,2026-07-05T22:26:54.884+07:00,0.720,98663,34269,0
1783265214884154000,2026-07-05T22:26:54.884+07:00,0.720,98714,34351,0
1783265214884154000,2026-07-05T22:26:54.884+07:00,0.720,98833,34383,0
1783265214884154000,2026-07-05T22:26:54.884+07:00,0.720,98901,34383,0
1783265214884154000,2026-07-05T22:26:54.884+07:00,0.720,98952,34433,0
1783265214884154000,2026-07-05T22:26:54.884+07:00,0.720,98901,34441,0
1783265214924054600,2026-07-05T22:26:54.924+07:00,0.760,98901,34425,0
1783265214924054600,2026-07-05T22:26:54.924+07:00,0.760,98935,34458,0
1783265214924054600,2026-07-05T22:26:54.924+07:00,0.760,98901,34400,0
1783265214924054600,2026-07-05T22:26:54.924+07:00,0.760,98952,34515,0
1783265214924054600,2026-07-05T22:26:54.924+07:00,0.760,99020,34532,0
1783265214924054600,2026-07-05T22:26:54.924+07:00,0.760,99156,34640,0
1783265214927197700,2026-07-05T22:26:54.927+07:00,0.763,99224,34707,0
1783265214927197700,2026-07-05T22:26:54.927+07:00,0.763,99139,34632,0
1783265214927197700,2026-07-05T22:26:54.927+07:00,0.763,99139,34573,0
1783265214927197700,2026-07-05T22:26:54.927+07:00,0.763,99156,34582,0
1783265214927197700,2026-07-05T22:26:54.927+07:00,0.763,99122,34557,0
1783265214927197700,2026-07-05T22:26:54.927+07:00,0.763,99190,34640,0
1783265214927197700,2026-07-05T22:26:54.927+07:00,0.763,99276,34623,0
1783265214927197700,2026-07-05T22:26:54.927+07:00,0.763,99327,34765,0
1783265214927197700,2026-07-05T22:26:54.927+07:00,0.763,99447,34858,0
1783265214927197700,2026-07-05T22:26:54.927+07:00,0.763,99327,34632,0
1783265214927197700,2026-07-05T22:26:54.927+07:00,0.763,99327,34665,0
1783265214969461900,2026-07-05T22:26:54.969+07:00,0.805,99327,34682,0
1783265214969461900,2026-07-05T22:26:54.969+07:00,0.805,99310,34632,0
1783265214969461900,2026-07-05T22:26:54.969+07:00,0.805,99361,34749,0
1783265214969461900,2026-07-05T22:26:54.969+07:00,0.805,99413,34740,0
1783265214969461900,2026-07-05T22:26:54.969+07:00,0.805,99481,34875,0
1783265214969461900,2026-07-05T22:26:54.969+07:00,0.805,99533,34934,0
1783265214969461900,2026-07-05T22:26:54.969+07:00,0.805,99481,34824,0
1783265214969461900,2026-07-05T22:26:54.969+07:00,0.805,99464,34833,0
1783265214969461900,2026-07-05T22:26:54.969+07:00,0.805,99430,34740,0
1783265214969461900,2026-07-05T22:26:54.969+07:00,0.805,99430,34698,0
1783265214969461900,2026-07-05T22:26:54.969+07:00,0.805,99413,34782,0
1783265214969461900,2026-07-05T22:26:54.969+07:00,0.805,99447,34765,0
1783265214969461900,2026-07-05T22:26:54.969+07:00,0.805,99550,34875,0
1783265214969461900,2026-07-05T22:26:54.969+07:00,0.805,99585,34917,0
1783265214969461900,2026-07-05T22:26:54.969+07:00,0.805,99396,34824,0
1783265214969461900,2026-07-05T22:26:54.969+07:00,0.805,99344,34682,0
1783265214969461900,2026-07-05T22:26:54.969+07:00,0.805,99327,34673,0
1783265215009506200,2026-07-05T22:26:55.009+07:00,0.846,99190,34573,0
1783265215009506200,2026-07-05T22:26:55.009+07:00,0.846,99122,34615,0
1783265215009506200,2026-07-05T22:26:55.009+07:00,0.846,99088,34565,0
1783265215009506200,2026-07-05T22:26:55.009+07:00,0.846,99037,34590,0
1783265215009506200,2026-07-05T22:26:55.009+07:00,0.846,98986,34458,0
1783265215009506200,2026-07-05T22:26:55.009+07:00,0.846,98765,34383,0
1783265215009506200,2026-07-05T22:26:55.009+07:00,0.846,98545,34220,0
1783265215009506200,2026-07-05T22:26:55.009+07:00,0.846,98377,34115,0
1783265215009506200,2026-07-05T22:26:55.009+07:00,0.846,98192,33986,0
1783265215009506200,2026-07-05T22:26:55.009+07:00,0.846,98009,33906,0
1783265215009506200,2026-07-05T22:26:55.009+07:00,0.846,97875,33826,0
1783265215009506200,2026-07-05T22:26:55.009+07:00,0.846,97743,33739,0
1783265215009506200,2026-07-05T22:26:55.009+07:00,0.846,97577,33699,0
1783265215009506200,2026-07-05T22:26:55.009+07:00,0.846,97280,33441,0
1783265215009506200,2026-07-05T22:26:55.009+07:00,0.846,97100,33302,0
1783265215009506200,2026-07-05T22:26:55.009+07:00,0.846,96888,33187,0
1783265215044016900,2026-07-05T22:26:55.044+07:00,0.880,96644,32982,0
1783265215044016900,2026-07-05T22:26:55.044+07:00,0.880,96466,32936,0
1783265215044016900,2026-07-05T22:26:55.044+07:00,0.880,96353,32854,0
1783265215044016900,2026-07-05T22:26:55.044+07:00,0.880,96288,32764,0
1783265215044016900,2026-07-05T22:26:55.044+07:00,0.880,96128,32734,0
1783265215044016900,2026-07-05T22:26:55.044+07:00,0.880,95872,32520,0
1783265215044016900,2026-07-05T22:26:55.044+07:00,0.880,95649,32432,0
1783265215044016900,2026-07-05T22:26:55.044+07:00,0.880,95522,32272,0
1783265215044016900,2026-07-05T22:26:55.044+07:00,0.880,95348,32128,0
1783265215044016900,2026-07-05T22:26:55.044+07:00,0.880,95175,32121,0
1783265215044016900,2026-07-05T22:26:55.044+07:00,0.880,95127,32042,0
1783265215044016900,2026-07-05T22:26:55.044+07:00,0.880,95112,32056,0
1783265215044016900,2026-07-05T22:26:55.044+07:00,0.880,95065,32049,0
1783265215044016900,2026-07-05T22:26:55.044+07:00,0.880,94877,31907,0
1783265215044016900,2026-07-05T22:26:55.044+07:00,0.880,94752,31823,0
1783265215044016900,2026-07-05T22:26:55.044+07:00,0.880,94658,31767,0
1783265215044016900,2026-07-05T22:26:55.044+07:00,0.880,94596,31634,0
1783265215093737500,2026-07-05T22:26:55.093+07:00,0.930,94534,31669,0
1783265215093737500,2026-07-05T22:26:55.093+07:00,0.930,94550,31704,0
1783265215093737500,2026-07-05T22:26:55.093+07:00,0.930,94612,31697,0
1783265215093737500,2026-07-05T22:26:55.093+07:00,0.930,94627,31732,0
1783265215093737500,2026-07-05T22:26:55.093+07:00,0.930,94488,31634,0
1783265215093737500,2026-07-05T22:26:55.093+07:00,0.930,94472,31599,0
1783265215093737500,2026-07-05T22:26:55.093+07:00,0.930,94441,31592,0
1783265215093737500,2026-07-05T22:26:55.093+07:00,0.930,94426,31551,0
1783265215093737500,2026-07-05T22:26:55.093+07:00,0.930,94395,31585,0
1783265215093737500,2026-07-05T22:26:55.093+07:00,0.930,94472,31606,0
1783265215093737500,2026-07-05T22:26:55.093+07:00,0.930,94565,31683,0
1783265215093737500,2026-07-05T22:26:55.093+07:00,0.930,94612,31746,0
1783265215093737500,2026-07-05T22:26:55.093+07:00,0.930,94550,31655,0
1783265215093737500,2026-07-05T22:26:55.093+07:00,0.930,94534,31648,0
1783265215093737500,2026-07-05T22:26:55.093+07:00,0.930,94534,31641,0
1783265215093737500,2026-07-05T22:26:55.093+07:00,0.930,94596,31599,0
1783265215093737500,2026-07-05T22:26:55.093+07:00,0.930,94581,31697,0
1783265215133880400,2026-07-05T22:26:55.133+07:00,0.970,94705,31732,0
1783265215133880400,2026-07-05T22:26:55.133+07:00,0.970,94799,31830,0
1783265215133880400,2026-07-05T22:26:55.133+07:00,0.970,94846,31921,0
1783265215133880400,2026-07-05T22:26:55.133+07:00,0.970,94830,31844,0
1783265215133880400,2026-07-05T22:26:55.133+07:00,0.970,94877,31837,0
1783265215133880400,2026-07-05T22:26:55.133+07:00,0.970,94892,31858,0
1783265215133880400,2026-07-05T22:26:55.133+07:00,0.970,94892,31788,0
1783265215133880400,2026-07-05T22:26:55.133+07:00,0.970,94892,31900,0
1783265215133880400,2026-07-05T22:26:55.133+07:00,0.970,95002,31943,0
1783265215133880400,2026-07-05T22:26:55.133+07:00,0.970,95143,32021,0
1783265215133880400,2026-07-05T22:26:55.133+07:00,0.970,95206,32078,0
1783265215133880400,2026-07-05T22:26:55.133+07:00,0.970,95159,32021,0
1783265215133880400,2026-07-05T22:26:55.133+07:00,0.970,95159,32021,0
1783265215133880400,2026-07-05T22:26:55.133+07:00,0.970,95175,32042,0
1783265215133880400,2026-07-05T22:26:55.133+07:00,0.970,95206,31985,0
1783265215133880400,2026-07-05T22:26:55.133+07:00,0.970,95222,32056,0
1783265215133880400,2026-07-05T22:26:55.133+07:00,0.970,95301,32107,0
1783265215176247900,2026-07-05T22:26:55.176+07:00,1.012,95427,32193,0
1783265215176247900,2026-07-05T22:26:55.176+07:00,1.012,95443,32243,0
1783265215176247900,2026-07-05T22:26:55.176+07:00,1.012,95411,32171,0
1783265215176247900,2026-07-05T22:26:55.176+07:00,1.012,95380,32164,0
1783265215176247900,2026-07-05T22:26:55.176+07:00,1.012,95443,32164,0
1783265215176247900,2026-07-05T22:26:55.176+07:00,1.012,95411,32085,0
1783265215176247900,2026-07-05T22:26:55.176+07:00,1.012,95427,32171,0
1783265215176247900,2026-07-05T22:26:55.176+07:00,1.012,95506,32229,0
1783265215176247900,2026-07-05T22:26:55.176+07:00,1.012,95633,32315,0
1783265215176247900,2026-07-05T22:26:55.176+07:00,1.012,95649,32359,0
1783265215176247900,2026-07-05T22:26:55.176+07:00,1.012,95649,32330,0
1783265215176247900,2026-07-05T22:26:55.176+07:00,1.012,95649,32315,0
1783265215179766600,2026-07-05T22:26:55.179+07:00,1.016,95696,32315,0
1783265215179766600,2026-07-05T22:26:55.179+07:00,1.016,95712,32294,0
1783265215179766600,2026-07-05T22:26:55.179+07:00,1.016,95712,32337,0
1783265215179766600,2026-07-05T22:26:55.179+07:00,1.016,95840,32410,0
1783265215179766600,2026-07-05T22:26:55.179+07:00,1.016,95984,32520,0
1783265215213875600,2026-07-05T22:26:55.213+07:00,1.050,95968,32579,0
1783265215213875600,2026-07-05T22:26:55.213+07:00,1.050,96016,32535,0
1783265215213875600,2026-07-05T22:26:55.213+07:00,1.050,96016,32535,0
1783265215213875600,2026-07-05T22:26:55.213+07:00,1.050,96080,32549,0
1783265215213875600,2026-07-05T22:26:55.213+07:00,1.050,96096,32505,0
1783265215213875600,2026-07-05T22:26:55.213+07:00,1.050,96096,32579,0
1783265215213875600,2026-07-05T22:26:55.213+07:00,1.050,96208,32638,0
1783265215213875600,2026-07-05T22:26:55.213+07:00,1.050,96337,32727,0
1783265215213875600,2026-07-05T22:26:55.213+07:00,1.050,96337,32809,0
1783265215213875600,2026-07-05T22:26:55.213+07:00,1.050,96369,32734,0
1783265215213875600,2026-07-05T22:26:55.213+07:00,1.050,96337,32719,0
1783265215213875600,2026-07-05T22:26:55.213+07:00,1.050,96369,32727,0
1783265215213875600,2026-07-05T22:26:55.213+07:00,1.050,96353,32667,0
1783265215213875600,2026-07-05T22:26:55.213+07:00,1.050,96369,32719,0
1783265215213875600,2026-07-05T22:26:55.213+07:00,1.050,96433,32734,0
1783265215259328700,2026-07-05T22:26:55.259+07:00,1.095,96498,32831,0
1783265215259328700,2026-07-05T22:26:55.259+07:00,1.095,96466,32891,0
1783265215259328700,2026-07-05T22:26:55.259+07:00,1.095,96482,32771,0
1783265215259328700,2026-07-05T22:26:55.259+07:00,1.095,96450,32786,0
1783265215259328700,2026-07-05T22:26:55.259+07:00,1.095,96401,32734,0
1783265215259328700,2026-07-05T22:26:55.259+07:00,1.095,96353,32638,0
1783265215259328700,2026-07-05T22:26:55.259+07:00,1.095,96321,32719,0
1783265215259328700,2026-07-05T22:26:55.259+07:00,1.095,96417,32764,0
1783265215259328700,2026-07-05T22:26:55.259+07:00,1.095,96482,32831,0
1783265215259328700,2026-07-05T22:26:55.259+07:00,1.095,96417,32839,0
1783265215259328700,2026-07-05T22:26:55.259+07:00,1.095,96369,32727,0
1783265215259328700,2026-07-05T22:26:55.259+07:00,1.095,96304,32712,0
1783265215259328700,2026-07-05T22:26:55.259+07:00,1.095,96304,32675,0
1783265215259328700,2026-07-05T22:26:55.259+07:00,1.095,96240,32579,0
1783265215259328700,2026-07-05T22:26:55.259+07:00,1.095,96192,32638,0
1783265215259328700,2026-07-05T22:26:55.259+07:00,1.095,96256,32645,0
1783265215259328700,2026-07-05T22:26:55.259+07:00,1.095,96321,32727,0
1783265215297544500,2026-07-05T22:26:55.297+07:00,1.134,96272,32742,0
1783265215297544500,2026-07-05T22:26:55.297+07:00,1.134,96208,32630,0
1783265215297544500,2026-07-05T22:26:55.297+07:00,1.134,96160,32601,0
1783265215297544500,2026-07-05T22:26:55.297+07:00,1.134,96112,32557,0
1783265215297544500,2026-07-05T22:26:55.297+07:00,1.134,96096,32498,0
1783265215297544500,2026-07-05T22:26:55.297+07:00,1.134,96048,32527,0
1783265215297544500,2026-07-05T22:26:55.297+07:00,1.134,96096,32535,0
1783265215297544500,2026-07-05T22:26:55.297+07:00,1.134,96192,32630,0
1783265215297544500,2026-07-05T22:26:55.297+07:00,1.134,96128,32667,0
1783265215297544500,2026-07-05T22:26:55.297+07:00,1.134,96096,32564,0
1783265215297544500,2026-07-05T22:26:55.297+07:00,1.134,96032,32535,0
1783265215297544500,2026-07-05T22:26:55.297+07:00,1.134,96064,32512,0
1783265215297544500,2026-07-05T22:26:55.297+07:00,1.134,96000,32417,0
1783265215297544500,2026-07-05T22:26:55.297+07:00,1.134,95952,32461,0
1783265215297544500,2026-07-05T22:26:55.297+07:00,1.134,96064,32520,0
1783265215297544500,2026-07-05T22:26:55.297+07:00,1.134,96096,32601,0
1783265215297544500,2026-07-05T22:26:55.297+07:00,1.134,96112,32608,0
1783265215297544500,2026-07-05T22:26:55.297+07:00,1.134,96096,32549,0
1783265215345883200,2026-07-05T22:26:55.345+07:00,1.182,96096,32520,0
1783265215346882800,2026-07-05T22:26:55.346+07:00,1.183,96080,32527,0
1783265215346882800,2026-07-05T22:26:55.346+07:00,1.183,96064,32476,0
1783265215346882800,2026-07-05T22:26:55.346+07:00,1.183,96048,32512,0
1783265215346882800,2026-07-05T22:26:55.346+07:00,1.183,96144,32564,0
1783265215346882800,2026-07-05T22:26:55.346+07:00,1.183,96176,32660,0
1783265215346882800,2026-07-05T22:26:55.346+07:00,1.183,96208,32697,0
1783265215346882800,2026-07-05T22:26:55.346+07:00,1.183,96224,32593,0
1783265215346882800,2026-07-05T22:26:55.346+07:00,1.183,96208,32608,0
1783265215346882800,2026-07-05T22:26:55.346+07:00,1.183,96224,32586,0
1783265215346882800,2026-07-05T22:26:55.346+07:00,1.183,96208,32579,0
1783265215346882800,2026-07-05T22:26:55.346+07:00,1.183,96192,32586,0
1783265215346882800,2026-07-05T22:26:55.346+07:00,1.183,96304,32645,0
1783265215346882800,2026-07-05T22:26:55.346+07:00,1.183,96417,32779,0
1783265215346882800,2026-07-05T22:26:55.346+07:00,1.183,96466,32697,0
1783265215346882800,2026-07-05T22:26:55.346+07:00,1.183,96401,32697,0
1783265215346882800,2026-07-05T22:26:55.346+07:00,1.183,96417,32742,0
1783265215384118700,2026-07-05T22:26:55.384+07:00,1.220,96433,32719,0
1783265215384118700,2026-07-05T22:26:55.384+07:00,1.220,96433,32712,0
1783265215384118700,2026-07-05T22:26:55.384+07:00,1.220,96417,32704,0
1783265215384118700,2026-07-05T22:26:55.384+07:00,1.220,96530,32824,0
1783265215384118700,2026-07-05T22:26:55.384+07:00,1.220,96628,32906,0
1783265215384118700,2026-07-05T22:26:55.384+07:00,1.220,96644,32967,0
1783265215384118700,2026-07-05T22:26:55.384+07:00,1.220,96660,32846,0
1783265215384118700,2026-07-05T22:26:55.384+07:00,1.220,96660,32869,0
1783265215384118700,2026-07-05T22:26:55.384+07:00,1.220,96692,32891,0
1783265215384118700,2026-07-05T22:26:55.384+07:00,1.220,96660,32861,0
1783265215384118700,2026-07-05T22:26:55.384+07:00,1.220,96660,32869,0
1783265215384118700,2026-07-05T22:26:55.384+07:00,1.220,96757,32959,0
1783265215384118700,2026-07-05T22:26:55.384+07:00,1.220,96888,33057,0
1783265215384118700,2026-07-05T22:26:55.384+07:00,1.220,96871,33141,0
1783265215384118700,2026-07-05T22:26:55.384+07:00,1.220,96937,33035,0
1783265215384118700,2026-07-05T22:26:55.384+07:00,1.220,96904,33004,0
1783265215426097100,2026-07-05T22:26:55.426+07:00,1.262,96904,33027,0
1783265215426097100,2026-07-05T22:26:55.426+07:00,1.262,96937,33012,0
1783265215426097100,2026-07-05T22:26:55.426+07:00,1.262,96904,33035,0
1783265215426097100,2026-07-05T22:26:55.426+07:00,1.262,97002,33103,0
1783265215426097100,2026-07-05T22:26:55.426+07:00,1.262,97116,33202,0
1783265215426097100,2026-07-05T22:26:55.426+07:00,1.262,97100,33240,0
1783265215426097100,2026-07-05T22:26:55.426+07:00,1.262,97116,33172,0
1783265215426097100,2026-07-05T22:26:55.426+07:00,1.262,97133,33149,0
1783265215426097100,2026-07-05T22:26:55.426+07:00,1.262,97165,33172,0
1783265215426097100,2026-07-05T22:26:55.426+07:00,1.262,97133,33164,0
1783265215426097100,2026-07-05T22:26:55.426+07:00,1.262,97116,33156,0
1783265215426097100,2026-07-05T22:26:55.426+07:00,1.262,97215,33248,0
1783265215426097100,2026-07-05T22:26:55.426+07:00,1.262,97313,33310,0
1783265215427096600,2026-07-05T22:26:55.427+07:00,1.263,97297,33371,0
1783265215427096600,2026-07-05T22:26:55.427+07:00,1.263,97346,33302,0
1783265215427096600,2026-07-05T22:26:55.427+07:00,1.263,97330,33279,0
1783265215466703000,2026-07-05T22:26:55.466+07:00,1.303,97313,33302,0
1783265215466703000,2026-07-05T22:26:55.466+07:00,1.303,97346,33287,0
1783265215466703000,2026-07-05T22:26:55.466+07:00,1.303,97264,33279,0
1783265215466703000,2026-07-05T22:26:55.466+07:00,1.303,97396,33364,0
1783265215466703000,2026-07-05T22:26:55.466+07:00,1.303,97461,33410,0
1783265215466703000,2026-07-05T22:26:55.466+07:00,1.303,97461,33527,0
1783265215466703000,2026-07-05T22:26:55.466+07:00,1.303,97461,33426,0
1783265215466703000,2026-07-05T22:26:55.466+07:00,1.303,97445,33402,0
1783265215466703000,2026-07-05T22:26:55.466+07:00,1.303,97461,33395,0
1783265215466703000,2026-07-05T22:26:55.466+07:00,1.303,97428,33364,0
1783265215466703000,2026-07-05T22:26:55.466+07:00,1.303,97379,33371,0
1783265215466703000,2026-07-05T22:26:55.466+07:00,1.303,97511,33441,0
1783265215466703000,2026-07-05T22:26:55.466+07:00,1.303,97610,33527,0
1783265215466703000,2026-07-05T22:26:55.466+07:00,1.303,97594,33589,0
1783265215466703000,2026-07-05T22:26:55.466+07:00,1.303,97610,33511,0
1783265215466703000,2026-07-05T22:26:55.466+07:00,1.303,97560,33465,0
1783265215508934200,2026-07-05T22:26:55.508+07:00,1.345,97577,33441,0
1783265215508934200,2026-07-05T22:26:55.508+07:00,1.345,97544,33465,0
1783265215508934200,2026-07-05T22:26:55.508+07:00,1.345,97511,33426,0
1783265215508934200,2026-07-05T22:26:55.508+07:00,1.345,97610,33496,0
1783265215508934200,2026-07-05T22:26:55.508+07:00,1.345,97726,33605,0
1783265215508934200,2026-07-05T22:26:55.508+07:00,1.345,97709,33629,0
1783265215508934200,2026-07-05T22:26:55.508+07:00,1.345,97693,33558,0
1783265215508934200,2026-07-05T22:26:55.508+07:00,1.345,97660,33503,0
1783265215508934200,2026-07-05T22:26:55.508+07:00,1.345,97660,33527,0
1783265215509487200,2026-07-05T22:26:55.509+07:00,1.345,97627,33496,0
1783265215509487200,2026-07-05T22:26:55.509+07:00,1.345,97610,33480,0
1783265215509487200,2026-07-05T22:26:55.509+07:00,1.345,97726,33558,0
1783265215509487200,2026-07-05T22:26:55.509+07:00,1.345,97792,33621,0
1783265215509487200,2026-07-05T22:26:55.509+07:00,1.345,97792,33668,0
1783265215509487200,2026-07-05T22:26:55.509+07:00,1.345,97809,33613,0
1783265215509487200,2026-07-05T22:26:55.509+07:00,1.345,97759,33597,0
1783265215509487200,2026-07-05T22:26:55.509+07:00,1.345,97792,33589,0
1783265215548839700,2026-07-05T22:26:55.548+07:00,1.385,97759,33566,0
1783265215548839700,2026-07-05T22:26:55.548+07:00,1.385,97743,33542,0
1783265215548839700,2026-07-05T22:26:55.548+07:00,1.385,97809,33629,0
1783265215548839700,2026-07-05T22:26:55.548+07:00,1.385,97925,33715,0
1783265215548839700,2026-07-05T22:26:55.548+07:00,1.385,97925,33731,0
1783265215548839700,2026-07-05T22:26:55.548+07:00,1.385,97909,33699,0
1783265215548839700,2026-07-05T22:26:55.548+07:00,1.385,97892,33684,0
1783265215548839700,2026-07-05T22:26:55.548+07:00,1.385,97942,33676,0
1783265215548839700,2026-07-05T22:26:55.548+07:00,1.385,97909,33644,0
1783265215548839700,2026-07-05T22:26:55.548+07:00,1.385,97859,33660,0
1783265215548839700,2026-07-05T22:26:55.548+07:00,1.385,97975,33747,0
1783265215548839700,2026-07-05T22:26:55.548+07:00,1.385,98075,33794,0
1783265215548839700,2026-07-05T22:26:55.548+07:00,1.385,98059,33763,0
1783265215548839700,2026-07-05T22:26:55.548+07:00,1.385,98092,33794,0
1783265215548839700,2026-07-05T22:26:55.548+07:00,1.385,98092,33755,0
1783265215548839700,2026-07-05T22:26:55.548+07:00,1.385,98109,33794,0
1783265215548839700,2026-07-05T22:26:55.548+07:00,1.385,98075,33779,0
1783265215583703200,2026-07-05T22:26:55.583+07:00,1.420,98059,33755,0
1783265215583703200,2026-07-05T22:26:55.583+07:00,1.420,98159,33882,0
1783265215583703200,2026-07-05T22:26:55.583+07:00,1.420,98293,33954,0
1783265215583703200,2026-07-05T22:26:55.583+07:00,1.420,98310,33930,0
1783265215583703200,2026-07-05T22:26:55.583+07:00,1.420,98343,33898,0
1783265215583703200,2026-07-05T22:26:55.583+07:00,1.420,98310,33930,0
1783265215583703200,2026-07-05T22:26:55.583+07:00,1.420,98343,33962,0
1783265215583703200,2026-07-05T22:26:55.583+07:00,1.420,98360,33930,0
1783265215583703200,2026-07-05T22:26:55.583+07:00,1.420,98310,33938,0
1783265215583703200,2026-07-05T22:26:55.583+07:00,1.420,98444,34018,0
1783265215583703200,2026-07-05T22:26:55.583+07:00,1.420,98562,34082,0
1783265215583703200,2026-07-05T22:26:55.583+07:00,1.420,98579,34066,0
1783265215583703200,2026-07-05T22:26:55.583+07:00,1.420,98596,34098,0
1783265215583703200,2026-07-05T22:26:55.583+07:00,1.420,98562,34082,0
1783265215583703200,2026-07-05T22:26:55.583+07:00,1.420,98562,34082,0
1783265215630127700,2026-07-05T22:26:55.630+07:00,1.466,98579,34074,0
1783265215630127700,2026-07-05T22:26:55.630+07:00,1.466,98545,34058,0
1783265215630127700,2026-07-05T22:26:55.630+07:00,1.466,98697,34147,0
1783265215630127700,2026-07-05T22:26:55.630+07:00,1.466,98782,34188,0
1783265215630127700,2026-07-05T22:26:55.630+07:00,1.466,98748,34171,0
1783265215630127700,2026-07-05T22:26:55.630+07:00,1.466,98748,34179,0
1783265215630127700,2026-07-05T22:26:55.630+07:00,1.466,98731,34163,0
1783265215630127700,2026-07-05T22:26:55.630+07:00,1.466,98748,34196,0
1783265215630127700,2026-07-05T22:26:55.630+07:00,1.466,98765,34179,0
1783265215630127700,2026-07-05T22:26:55.630+07:00,1.466,98748,34188,0
1783265215630127700,2026-07-05T22:26:55.630+07:00,1.466,98850,34253,0
1783265215630127700,2026-07-05T22:26:55.630+07:00,1.466,98935,34277,0
1783265215630127700,2026-07-05T22:26:55.630+07:00,1.466,98918,34236,0
1783265215630127700,2026-07-05T22:26:55.630+07:00,1.466,98935,34342,0
1783265215630127700,2026-07-05T22:26:55.630+07:00,1.466,98952,34269,0
1783265215630127700,2026-07-05T22:26:55.630+07:00,1.466,98901,34302,0
1783265215630127700,2026-07-05T22:26:55.630+07:00,1.466,98918,34285,0
1783265215673784200,2026-07-05T22:26:55.673+07:00,1.510,98901,34310,0
1783265215673784200,2026-07-05T22:26:55.673+07:00,1.510,98969,34334,0
1783265215673784200,2026-07-05T22:26:55.673+07:00,1.510,99105,34367,0
1783265215673784200,2026-07-05T22:26:55.673+07:00,1.510,99088,34466,0
1783265215673784200,2026-07-05T22:26:55.673+07:00,1.510,99071,34441,0
1783265215673784200,2026-07-05T22:26:55.673+07:00,1.510,99071,34375,0
1783265215673784200,2026-07-05T22:26:55.673+07:00,1.510,99071,34351,0
1783265215673784200,2026-07-05T22:26:55.673+07:00,1.510,99071,34351,0
1783265215673784200,2026-07-05T22:26:55.673+07:00,1.510,99020,34367,0
1783265215673784200,2026-07-05T22:26:55.673+07:00,1.510,99173,34408,0
1783265215673784200,2026-07-05T22:26:55.673+07:00,1.510,99310,34458,0
1783265215673784200,2026-07-05T22:26:55.673+07:00,1.510,99293,34573,0
1783265215673784200,2026-07-05T22:26:55.673+07:00,1.510,99310,34557,0
1783265215673784200,2026-07-05T22:26:55.673+07:00,1.510,99276,34441,0
1783265215673784200,2026-07-05T22:26:55.673+07:00,1.510,99276,34507,0
1783265215673784200,2026-07-05T22:26:55.673+07:00,1.510,99276,34466,0
1783265215673784200,2026-07-05T22:26:55.673+07:00,1.510,99241,34466,0
1783265215713663500,2026-07-05T22:26:55.713+07:00,1.550,99344,34548,0
1783265215713663500,2026-07-05T22:26:55.713+07:00,1.550,99447,34648,0
1783265215713663500,2026-07-05T22:26:55.713+07:00,1.550,99396,34657,0
1783265215713663500,2026-07-05T22:26:55.713+07:00,1.550,99413,34657,0
1783265215713663500,2026-07-05T22:26:55.713+07:00,1.550,99378,34607,0
1783265215713663500,2026-07-05T22:26:55.713+07:00,1.550,99361,34548,0
1783265215713663500,2026-07-05T22:26:55.713+07:00,1.550,99361,34507,0
1783265215713663500,2026-07-05T22:26:55.713+07:00,1.550,99276,34474,0
1783265215713663500,2026-07-05T22:26:55.713+07:00,1.550,99344,34524,0
1783265215713663500,2026-07-05T22:26:55.713+07:00,1.550,99327,34507,0
1783265215713663500,2026-07-05T22:26:55.713+07:00,1.550,99276,34548,0
1783265215713663500,2026-07-05T22:26:55.713+07:00,1.550,99139,34466,0
1783265215713663500,2026-07-05T22:26:55.713+07:00,1.550,99054,34342,0
1783265215713663500,2026-07-05T22:26:55.713+07:00,1.550,98901,34261,0
1783265215713663500,2026-07-05T22:26:55.713+07:00,1.550,98816,34188,0
1783265215713663500,2026-07-05T22:26:55.713+07:00,1.550,98579,34098,0
1783265215713663500,2026-07-05T22:26:55.713+07:00,1.550,98495,34066,0
1783265215757395500,2026-07-05T22:26:55.757+07:00,1.593,98444,34018,0
1783265215757395500,2026-07-05T22:26:55.757+07:00,1.593,98243,33858,0
1783265215757395500,2026-07-05T22:26:55.757+07:00,1.593,98042,33771,0
1783265215757395500,2026-07-05T22:26:55.757+07:00,1.593,97842,33652,0
1783265215757395500,2026-07-05T22:26:55.757+07:00,1.593,97676,33511,0
1783265215757395500,2026-07-05T22:26:55.757+07:00,1.593,97478,33348,0
1783265215757395500,2026-07-05T22:26:55.757+07:00,1.593,97215,33187,0
1783265215757395500,2026-07-05T22:26:55.757+07:00,1.593,97100,33156,0
1783265215757395500,2026-07-05T22:26:55.757+07:00,1.593,96986,33111,0
1783265215757395500,2026-07-05T22:26:55.757+07:00,1.593,96790,32967,0
1783265215757395500,2026-07-05T22:26:55.757+07:00,1.593,96547,32831,0
1783265215757395500,2026-07-05T22:26:55.757+07:00,1.593,96353,32690,0
1783265215757395500,2026-07-05T22:26:55.757+07:00,1.593,96160,32542,0
1783265215757395500,2026-07-05T22:26:55.757+07:00,1.593,96000,32403,0
1783265215757395500,2026-07-05T22:26:55.757+07:00,1.593,95760,32286,0
1783265215757395500,2026-07-05T22:26:55.757+07:00,1.593,95681,32258,0
1783265215757395500,2026-07-05T22:26:55.757+07:00,1.593,95617,32214,0
1783265215795508900,2026-07-05T22:26:55.795+07:00,1.632,95459,32121,0
1783265215795508900,2026-07-05T22:26:55.795+07:00,1.632,95285,32000,0
1783265215795508900,2026-07-05T22:26:55.795+07:00,1.632,95143,31914,0
1783265215795508900,2026-07-05T22:26:55.795+07:00,1.632,95049,31844,0
1783265215795508900,2026-07-05T22:26:55.795+07:00,1.632,94939,31739,0
1783265215795508900,2026-07-05T22:26:55.795+07:00,1.632,94752,31620,0
1783265215795508900,2026-07-05T22:26:55.795+07:00,1.632,94768,31641,0
1783265215795508900,2026-07-05T22:26:55.795+07:00,1.632,94752,31662,0
1783265215795508900,2026-07-05T22:26:55.795+07:00,1.632,94658,31606,0
1783265215795508900,2026-07-05T22:26:55.795+07:00,1.632,94596,31565,0
1783265215795508900,2026-07-05T22:26:55.795+07:00,1.632,94534,31502,0
1783265215795508900,2026-07-05T22:26:55.795+07:00,1.632,94488,31468,0
1783265215795508900,2026-07-05T22:26:55.795+07:00,1.632,94457,31413,0
1783265215795508900,2026-07-05T22:26:55.795+07:00,1.632,94302,31317,0
1783265215795508900,2026-07-05T22:26:55.795+07:00,1.632,94379,31406,0
1783265215795508900,2026-07-05T22:26:55.795+07:00,1.632,94472,31468,0
1783265215840014800,2026-07-05T22:26:55.840+07:00,1.676,94426,31468,0
1783265215840014800,2026-07-05T22:26:55.840+07:00,1.676,94426,31434,0
1783265215840014800,2026-07-05T22:26:55.840+07:00,1.676,94364,31372,0
1783265215840014800,2026-07-05T22:26:55.840+07:00,1.676,94395,31393,0
1783265215840014800,2026-07-05T22:26:55.840+07:00,1.676,94379,31372,0
1783265215840014800,2026-07-05T22:26:55.840+07:00,1.676,94333,31358,0
1783265215840014800,2026-07-05T22:26:55.840+07:00,1.676,94441,31427,0
1783265215840014800,2026-07-05T22:26:55.840+07:00,1.676,94534,31496,0
1783265215840014800,2026-07-05T22:26:55.840+07:00,1.676,94534,31509,0
1783265215840014800,2026-07-05T22:26:55.840+07:00,1.676,94550,31509,0
1783265215840014800,2026-07-05T22:26:55.840+07:00,1.676,94565,31482,0
1783265215840014800,2026-07-05T22:26:55.840+07:00,1.676,94550,31468,0
1783265215840014800,2026-07-05T22:26:55.840+07:00,1.676,94596,31496,0
1783265215840014800,2026-07-05T22:26:55.840+07:00,1.676,94565,31461,0
1783265215840014800,2026-07-05T22:26:55.840+07:00,1.676,94658,31551,0
1783265215840014800,2026-07-05T22:26:55.840+07:00,1.676,94783,31641,0
1783265215840014800,2026-07-05T22:26:55.840+07:00,1.676,94799,31648,0
1783265215883676800,2026-07-05T22:26:55.883+07:00,1.720,94783,31641,0
1783265215883676800,2026-07-05T22:26:55.883+07:00,1.720,94814,31627,0
1783265215883676800,2026-07-05T22:26:55.883+07:00,1.720,94799,31641,0
1783265215883676800,2026-07-05T22:26:55.883+07:00,1.720,94846,31641,0
1783265215883676800,2026-07-05T22:26:55.883+07:00,1.720,94830,31592,0
1783265215883676800,2026-07-05T22:26:55.883+07:00,1.720,94908,31697,0
1783265215883676800,2026-07-05T22:26:55.883+07:00,1.720,95018,31802,0
1783265215883676800,2026-07-05T22:26:55.883+07:00,1.720,95018,31795,0
1783265215883676800,2026-07-05T22:26:55.883+07:00,1.720,95049,31795,0
1783265215883676800,2026-07-05T22:26:55.883+07:00,1.720,95065,31795,0
1783265215883676800,2026-07-05T22:26:55.883+07:00,1.720,95049,31781,0
1783265215883676800,2026-07-05T22:26:55.883+07:00,1.720,95049,31760,0
1783265215883676800,2026-07-05T22:26:55.883+07:00,1.720,94986,31711,0
1783265215883676800,2026-07-05T22:26:55.883+07:00,1.720,95112,31816,0
1783265215883676800,2026-07-05T22:26:55.883+07:00,1.720,95190,31900,0
1783265215883676800,2026-07-05T22:26:55.883+07:00,1.720,95222,31893,0
1783265215883676800,2026-07-05T22:26:55.883+07:00,1.720,95206,31893,0
1783265215923755400,2026-07-05T22:26:55.923+07:00,1.760,95238,31865,0
1783265215923755400,2026-07-05T22:26:55.923+07:00,1.760,95253,31893,0
1783265215923755400,2026-07-05T22:26:55.923+07:00,1.760,95238,31893,0
1783265215923755400,2026-07-05T22:26:55.923+07:00,1.760,95253,31865,0
1783265215923755400,2026-07-05T22:26:55.923+07:00,1.760,95316,31950,0
1783265215923755400,2026-07-05T22:26:55.923+07:00,1.760,95427,32064,0
1783265215923755400,2026-07-05T22:26:55.923+07:00,1.760,95490,32064,0
1783265215923755400,2026-07-05T22:26:55.923+07:00,1.760,95554,32064,0
1783265215923755400,2026-07-05T22:26:55.923+07:00,1.760,95538,32064,0
1783265215923755400,2026-07-05T22:26:55.923+07:00,1.760,95585,32107,0
1783265215923755400,2026-07-05T22:26:55.923+07:00,1.760,95569,32085,0
1783265215923755400,2026-07-05T22:26:55.923+07:00,1.760,95569,32056,0
1783265215923755400,2026-07-05T22:26:55.923+07:00,1.760,95696,32171,0
1783265215923755400,2026-07-05T22:26:55.923+07:00,1.760,95824,32265,0
1783265215923755400,2026-07-05T22:26:55.923+07:00,1.760,95856,32258,0
1783265215923755400,2026-07-05T22:26:55.923+07:00,1.760,95856,32294,0
1783265215923755400,2026-07-05T22:26:55.923+07:00,1.760,95904,32272,0
1783265215964090600,2026-07-05T22:26:55.964+07:00,1.800,95936,32279,0
1783265215964090600,2026-07-05T22:26:55.964+07:00,1.800,95952,32272,0
1783265215964090600,2026-07-05T22:26:55.964+07:00,1.800,95904,32243,0
1783265215964090600,2026-07-05T22:26:55.964+07:00,1.800,95936,32337,0
1783265215964090600,2026-07-05T22:26:55.964+07:00,1.800,96048,32425,0
1783265215964090600,2026-07-05T22:26:55.964+07:00,1.800,96096,32417,0
1783265215964090600,2026-07-05T22:26:55.964+07:00,1.800,96048,32425,0
1783265215964090600,2026-07-05T22:26:55.964+07:00,1.800,96096,32395,0
1783265215964090600,2026-07-05T22:26:55.964+07:00,1.800,96112,32403,0
1783265215964090600,2026-07-05T22:26:55.964+07:00,1.800,96048,32388,0
1783265215964090600,2026-07-05T22:26:55.964+07:00,1.800,95968,32330,0
1783265215964090600,2026-07-05T22:26:55.964+07:00,1.800,96064,32403,0
1783265215964090600,2026-07-05T22:26:55.964+07:00,1.800,96176,32520,0
1783265215964090600,2026-07-05T22:26:55.964+07:00,1.800,96176,32454,0
1783265215964090600,2026-07-05T22:26:55.964+07:00,1.800,96128,32468,0
1783265215964090600,2026-07-05T22:26:55.964+07:00,1.800,96144,32432,0
1783265215964090600,2026-07-05T22:26:55.964+07:00,1.800,96080,32395,0
1783265216006364400,2026-07-05T22:26:56.006+07:00,1.842,96080,32366,0
1783265216006364400,2026-07-05T22:26:56.006+07:00,1.842,95984,32294,0
1783265216006364400,2026-07-05T22:26:56.006+07:00,1.842,96064,32381,0
1783265216006364400,2026-07-05T22:26:56.006+07:00,1.842,96128,32468,0
1783265216006364400,2026-07-05T22:26:56.006+07:00,1.842,96112,32417,0
1783265216006364400,2026-07-05T22:26:56.006+07:00,1.842,96080,32403,0
1783265216006364400,2026-07-05T22:26:56.006+07:00,1.842,96064,32366,0
1783265216006364400,2026-07-05T22:26:56.006+07:00,1.842,96000,32330,0
1783265216006364400,2026-07-05T22:26:56.006+07:00,1.842,96000,32337,0
1783265216006364400,2026-07-05T22:26:56.006+07:00,1.842,95936,32272,0
1783265216006364400,2026-07-05T22:26:56.006+07:00,1.842,95936,32337,0
1783265216006364400,2026-07-05T22:26:56.006+07:00,1.842,96080,32439,0
1783265216006364400,2026-07-05T22:26:56.006+07:00,1.842,96016,32381,0
1783265216006364400,2026-07-05T22:26:56.006+07:00,1.842,96016,32388,0
1783265216006364400,2026-07-05T22:26:56.006+07:00,1.842,96032,32323,0
1783265216048658400,2026-07-05T22:26:56.048+07:00,1.885,95984,32301,0
1783265216048658400,2026-07-05T22:26:56.048+07:00,1.885,95968,32294,0
1783265216048658400,2026-07-05T22:26:56.048+07:00,1.885,95872,32221,0
1783265216048658400,2026-07-05T22:26:56.048+07:00,1.885,95936,32345,0
1783265216048658400,2026-07-05T22:26:56.048+07:00,1.885,96080,32417,0
1783265216048658400,2026-07-05T22:26:56.048+07:00,1.885,96048,32366,0
1783265216048658400,2026-07-05T22:26:56.048+07:00,1.885,96032,32359,0
1783265216048658400,2026-07-05T22:26:56.048+07:00,1.885,96032,32337,0
1783265216048658400,2026-07-05T22:26:56.048+07:00,1.885,96016,32330,0
1783265216048658400,2026-07-05T22:26:56.048+07:00,1.885,96000,32352,0
1783265216048658400,2026-07-05T22:26:56.048+07:00,1.885,95936,32286,0
1783265216048658400,2026-07-05T22:26:56.048+07:00,1.885,96016,32374,0
1783265216048658400,2026-07-05T22:26:56.048+07:00,1.885,96144,32461,0
1783265216048658400,2026-07-05T22:26:56.048+07:00,1.885,96144,32432,0
1783265216048658400,2026-07-05T22:26:56.048+07:00,1.885,96144,32447,0
1783265216048658400,2026-07-05T22:26:56.048+07:00,1.885,96144,32395,0
1783265216048658400,2026-07-05T22:26:56.048+07:00,1.885,96144,32417,0
1783265216084013500,2026-07-05T22:26:56.084+07:00,1.920,96128,32395,0
1783265216084013500,2026-07-05T22:26:56.084+07:00,1.920,96080,32359,0
1783265216084013500,2026-07-05T22:26:56.084+07:00,1.920,96160,32468,0
1783265216084013500,2026-07-05T22:26:56.084+07:00,1.920,96304,32557,0
1783265216084013500,2026-07-05T22:26:56.084+07:00,1.920,96321,32520,0
1783265216084013500,2026-07-05T22:26:56.084+07:00,1.920,96304,32549,0
1783265216084013500,2026-07-05T22:26:56.084+07:00,1.920,96321,32535,0
1783265216084013500,2026-07-05T22:26:56.084+07:00,1.920,96337,32549,0
1783265216084013500,2026-07-05T22:26:56.084+07:00,1.920,96353,32557,0
1783265216084013500,2026-07-05T22:26:56.084+07:00,1.920,96321,32483,0
1783265216084013500,2026-07-05T22:26:56.084+07:00,1.920,96385,32608,0
1783265216084013500,2026-07-05T22:26:56.084+07:00,1.920,96547,32704,0
1783265216084013500,2026-07-05T22:26:56.084+07:00,1.920,96547,32675,0
1783265216084013500,2026-07-05T22:26:56.084+07:00,1.920,96563,32697,0
1783265216084013500,2026-07-05T22:26:56.084+07:00,1.920,96547,32675,0
1783265216084013500,2026-07-05T22:26:56.084+07:00,1.920,96563,32690,0
1783265216084013500,2026-07-05T22:26:56.084+07:00,1.920,96595,32712,0
1783265216133911500,2026-07-05T22:26:56.133+07:00,1.970,96579,32645,0
1783265216133911500,2026-07-05T22:26:56.133+07:00,1.970,96692,32764,0
1783265216133911500,2026-07-05T22:26:56.133+07:00,1.970,96806,32876,0
1783265216133911500,2026-07-05T22:26:56.133+07:00,1.970,96839,32869,0
1783265216133911500,2026-07-05T22:26:56.133+07:00,1.970,96822,32846,0
1783265216133911500,2026-07-05T22:26:56.133+07:00,1.970,96871,32876,0
1783265216133911500,2026-07-05T22:26:56.133+07:00,1.970,96904,32899,0
1783265216133911500,2026-07-05T22:26:56.133+07:00,1.970,96888,32891,0
1783265216133911500,2026-07-05T22:26:56.133+07:00,1.970,96839,32839,0
1783265216133911500,2026-07-05T22:26:56.133+07:00,1.970,96937,32959,0
1783265216133911500,2026-07-05T22:26:56.133+07:00,1.970,97100,33065,0
1783265216133911500,2026-07-05T22:26:56.133+07:00,1.970,97116,33035,0
1783265216133911500,2026-07-05T22:26:56.133+07:00,1.970,97116,33035,0
1783265216133911500,2026-07-05T22:26:56.133+07:00,1.970,97133,33027,0
1783265216133911500,2026-07-05T22:26:56.133+07:00,1.970,97116,33042,0
1783265216133911500,2026-07-05T22:26:56.133+07:00,1.970,97165,33057,0
1783265216133911500,2026-07-05T22:26:56.133+07:00,1.970,97100,33012,0
1783265216133911500,2026-07-05T22:26:56.133+07:00,1.970,97198,33095,0
1783265216177814400,2026-07-05T22:26:56.177+07:00,2.014,97363,33202,0
1783265216177814400,2026-07-05T22:26:56.177+07:00,2.014,97363,33202,0
1783265216177814400,2026-07-05T22:26:56.177+07:00,2.014,97379,33195,0
1783265216177814400,2026-07-05T22:26:56.177+07:00,2.014,97412,33187,0
1783265216177814400,2026-07-05T22:26:56.177+07:00,2.014,97396,33195,0
1783265216177814400,2026-07-05T22:26:56.177+07:00,2.014,97396,33195,0
1783265216177814400,2026-07-05T22:26:56.177+07:00,2.014,97379,33179,0
1783265216177814400,2026-07-05T22:26:56.177+07:00,2.014,97445,33279,0
1783265216177814400,2026-07-05T22:26:56.177+07:00,2.014,97560,33333,0
1783265216177814400,2026-07-05T22:26:56.177+07:00,2.014,97560,33333,0
1783265216177814400,2026-07-05T22:26:56.177+07:00,2.014,97544,33333,0
1783265216177814400,2026-07-05T22:26:56.177+07:00,2.014,97577,33333,0
1783265216177814400,2026-07-05T22:26:56.177+07:00,2.014,97610,33348,0
1783265216177814400,2026-07-05T22:26:56.177+07:00,2.014,97594,33348,0
1783265216177814400,2026-07-05T22:26:56.177+07:00,2.014,97511,33264,0
1783265216177814400,2026-07-05T22:26:56.177+07:00,2.014,97627,33364,0
1783265216177814400,2026-07-05T22:26:56.177+07:00,2.014,97743,33480,0
1783265216216126700,2026-07-05T22:26:56.216+07:00,2.052,97743,33472,0
1783265216216126700,2026-07-05T22:26:56.216+07:00,2.052,97743,33480,0
1783265216216126700,2026-07-05T22:26:56.216+07:00,2.052,97776,33433,0
1783265216216126700,2026-07-05T22:26:56.216+07:00,2.052,97776,33433,0
1783265216216126700,2026-07-05T22:26:56.216+07:00,2.052,97743,33449,0
1783265216216126700,2026-07-05T22:26:56.216+07:00,2.052,97726,33402,0
1783265216216126700,2026-07-05T22:26:56.216+07:00,2.052,97809,33496,0
1783265216216126700,2026-07-05T22:26:56.216+07:00,2.052,97859,33558,0
1783265216216126700,2026-07-05T22:26:56.216+07:00,2.052,97892,33574,0
1783265216216126700,2026-07-05T22:26:56.216+07:00,2.052,97875,33527,0
1783265216216126700,2026-07-05T22:26:56.216+07:00,2.052,97909,33550,0
1783265216216126700,2026-07-05T22:26:56.216+07:00,2.052,97925,33558,0
1783265216216126700,2026-07-05T22:26:56.216+07:00,2.052,97925,33566,0
1783265216216126700,2026-07-05T22:26:56.216+07:00,2.052,97875,33488,0
1783265216216126700,2026-07-05T22:26:56.216+07:00,2.052,97925,33574,0
1783265216257147500,2026-07-05T22:26:56.257+07:00,2.093,98009,33684,0
1783265216257147500,2026-07-05T22:26:56.257+07:00,2.093,98042,33629,0
1783265216257147500,2026-07-05T22:26:56.257+07:00,2.093,98042,33637,0
1783265216257147500,2026-07-05T22:26:56.257+07:00,2.093,98075,33644,0
1783265216257147500,2026-07-05T22:26:56.257+07:00,2.093,98059,33637,0
1783265216257147500,2026-07-05T22:26:56.257+07:00,2.093,98059,33652,0
1783265216257147500,2026-07-05T22:26:56.257+07:00,2.093,97992,33574,0
1783265216257147500,2026-07-05T22:26:56.257+07:00,2.093,98059,33652,0
1783265216257147500,2026-07-05T22:26:56.257+07:00,2.093,98142,33755,0
1783265216257147500,2026-07-05T22:26:56.257+07:00,2.093,98192,33723,0
1783265216257147500,2026-07-05T22:26:56.257+07:00,2.093,98159,33707,0
1783265216257147500,2026-07-05T22:26:56.257+07:00,2.093,98176,33723,0
1783265216257147500,2026-07-05T22:26:56.257+07:00,2.093,98159,33739,0
1783265216257147500,2026-07-05T22:26:56.257+07:00,2.093,98192,33739,0
1783265216257147500,2026-07-05T22:26:56.257+07:00,2.093,98109,33629,0
1783265216257147500,2026-07-05T22:26:56.257+07:00,2.093,98192,33731,0
1783265216257147500,2026-07-05T22:26:56.257+07:00,2.093,98226,33810,0
1783265216293918400,2026-07-05T22:26:56.293+07:00,2.130,98293,33786,0
1783265216293918400,2026-07-05T22:26:56.293+07:00,2.130,98276,33794,0
1783265216293918400,2026-07-05T22:26:56.293+07:00,2.130,98327,33802,0
1783265216293918400,2026-07-05T22:26:56.293+07:00,2.130,98293,33810,0
1783265216293918400,2026-07-05T22:26:56.293+07:00,2.130,98343,33802,0
1783265216293918400,2026-07-05T22:26:56.293+07:00,2.130,98276,33763,0
1783265216293918400,2026-07-05T22:26:56.293+07:00,2.130,98327,33858,0
1783265216293918400,2026-07-05T22:26:56.293+07:00,2.130,98411,33922,0
1783265216293918400,2026-07-05T22:26:56.293+07:00,2.130,98461,33882,0
1783265216293918400,2026-07-05T22:26:56.293+07:00,2.130,98478,33858,0
1783265216293918400,2026-07-05T22:26:56.293+07:00,2.130,98427,33882,0
1783265216293918400,2026-07-05T22:26:56.293+07:00,2.130,98461,33906,0
1783265216293918400,2026-07-05T22:26:56.293+07:00,2.130,98461,33874,0
1783265216293918400,2026-07-05T22:26:56.293+07:00,2.130,98427,33866,0
1783265216293918400,2026-07-05T22:26:56.293+07:00,2.130,98478,33930,0
1783265216293918400,2026-07-05T22:26:56.293+07:00,2.130,98545,33994,0
1783265216293918400,2026-07-05T22:26:56.293+07:00,2.130,98630,33970,0
1783265216343635500,2026-07-05T22:26:56.343+07:00,2.180,98647,34034,0
1783265216343635500,2026-07-05T22:26:56.343+07:00,2.180,98647,34002,0
1783265216343635500,2026-07-05T22:26:56.343+07:00,2.180,98663,34018,0
1783265216343635500,2026-07-05T22:26:56.343+07:00,2.180,98630,34010,0
1783265216343635500,2026-07-05T22:26:56.343+07:00,2.180,98579,33986,0
1783265216343635500,2026-07-05T22:26:56.343+07:00,2.180,98680,34066,0
1783265216343635500,2026-07-05T22:26:56.343+07:00,2.180,98782,34107,0
1783265216343635500,2026-07-05T22:26:56.343+07:00,2.180,98850,34074,0
1783265216343635500,2026-07-05T22:26:56.343+07:00,2.180,98816,34058,0
1783265216343635500,2026-07-05T22:26:56.343+07:00,2.180,98816,34123,0
1783265216343635500,2026-07-05T22:26:56.343+07:00,2.180,98816,34123,0
1783265216343635500,2026-07-05T22:26:56.343+07:00,2.180,98833,34098,0
1783265216343635500,2026-07-05T22:26:56.343+07:00,2.180,98799,34074,0
1783265216343635500,2026-07-05T22:26:56.343+07:00,2.180,98918,34163,0
1783265216343635500,2026-07-05T22:26:56.343+07:00,2.180,98969,34277,0
1783265216343635500,2026-07-05T22:26:56.343+07:00,2.180,99037,34334,0
1783265216343635500,2026-07-05T22:26:56.343+07:00,2.180,99105,34285,0
1783265216383765300,2026-07-05T22:26:56.383+07:00,2.220,99071,34244,0
1783265216383765300,2026-07-05T22:26:56.383+07:00,2.220,99071,34261,0
1783265216383765300,2026-07-05T22:26:56.383+07:00,2.220,99071,34253,0
1783265216383765300,2026-07-05T22:26:56.383+07:00,2.220,99054,34212,0
1783265216383765300,2026-07-05T22:26:56.383+07:00,2.220,99105,34302,0
1783265216383765300,2026-07-05T22:26:56.383+07:00,2.220,99190,34392,0
1783265216383765300,2026-07-05T22:26:56.383+07:00,2.220,99259,34433,0
1783265216383765300,2026-07-05T22:26:56.383+07:00,2.220,99327,34441,0
1783265216383765300,2026-07-05T22:26:56.383+07:00,2.220,99276,34441,0
1783265216383765300,2026-07-05T22:26:56.383+07:00,2.220,99293,34392,0
1783265216383765300,2026-07-05T22:26:56.383+07:00,2.220,99276,34383,0
1783265216383765300,2026-07-05T22:26:56.383+07:00,2.220,99224,34392,0
1783265216383765300,2026-07-05T22:26:56.383+07:00,2.220,99327,34466,0
1783265216383765300,2026-07-05T22:26:56.383+07:00,2.220,99396,34499,0
1783265216383765300,2026-07-05T22:26:56.383+07:00,2.220,99430,34590,0
1783265216383765300,2026-07-05T22:26:56.383+07:00,2.220,99533,34582,0
1783265216383765300,2026-07-05T22:26:56.383+07:00,2.220,99464,34590,0
1783265216423834000,2026-07-05T22:26:56.423+07:00,2.260,99447,34499,0
1783265216423834000,2026-07-05T22:26:56.423+07:00,2.260,99499,34499,0
1783265216423834000,2026-07-05T22:26:56.423+07:00,2.260,99430,34466,0
1783265216423834000,2026-07-05T22:26:56.423+07:00,2.260,99481,34540,0
1783265216423834000,2026-07-05T22:26:56.423+07:00,2.260,99585,34715,0
1783265216423834000,2026-07-05T22:26:56.423+07:00,2.260,99636,34715,0
1783265216423834000,2026-07-05T22:26:56.423+07:00,2.260,99722,34698,0
1783265216423834000,2026-07-05T22:26:56.423+07:00,2.260,99653,34732,0
1783265216423834000,2026-07-05T22:26:56.423+07:00,2.260,99636,34707,0
1783265216423834000,2026-07-05T22:26:56.423+07:00,2.260,99653,34698,0
1783265216423834000,2026-07-05T22:26:56.423+07:00,2.260,99619,34590,0
1783265216423834000,2026-07-05T22:26:56.423+07:00,2.260,99705,34648,0
1783265216423834000,2026-07-05T22:26:56.423+07:00,2.260,99757,34849,0
1783265216423834000,2026-07-05T22:26:56.423+07:00,2.260,99843,34824,0
1783265216423834000,2026-07-05T22:26:56.423+07:00,2.260,99861,34782,0
1783265216423834000,2026-07-05T22:26:56.423+07:00,2.260,99861,34799,0
1783265216464078900,2026-07-05T22:26:56.464+07:00,2.300,99843,34824,0
1783265216464078900,2026-07-05T22:26:56.464+07:00,2.300,99826,34833,0
1783265216464078900,2026-07-05T22:26:56.464+07:00,2.300,99774,34657,0
1783265216464078900,2026-07-05T22:26:56.464+07:00,2.300,99826,34723,0
1783265216464078900,2026-07-05T22:26:56.464+07:00,2.300,99861,34926,0
1783265216464078900,2026-07-05T22:26:56.464+07:00,2.300,99930,34858,0
1783265216464078900,2026-07-05T22:26:56.464+07:00,2.300,99913,34866,0
1783265216464078900,2026-07-05T22:26:56.464+07:00,2.300,99792,34849,0
1783265216464078900,2026-07-05T22:26:56.464+07:00,2.300,99757,34774,0
1783265216464078900,2026-07-05T22:26:56.464+07:00,2.300,99671,34732,0
1783265216464078900,2026-07-05T22:26:56.464+07:00,2.300,99516,34548,0
1783265216464078900,2026-07-05T22:26:56.464+07:00,2.300,99499,34540,0
1783265216464078900,2026-07-05T22:26:56.464+07:00,2.300,99413,34582,0
1783265216464078900,2026-07-05T22:26:56.464+07:00,2.300,99327,34491,0
1783265216464078900,2026-07-05T22:26:56.464+07:00,2.300,99259,34400,0
1783265216464078900,2026-07-05T22:26:56.464+07:00,2.300,99020,34244,0
1783265216505507300,2026-07-05T22:26:56.505+07:00,2.342,98765,34131,0
1783265216505507300,2026-07-05T22:26:56.505+07:00,2.342,98562,34002,0
1783265216505507300,2026-07-05T22:26:56.505+07:00,2.342,98293,33842,0
1783265216505507300,2026-07-05T22:26:56.505+07:00,2.342,98192,33763,0
1783265216505507300,2026-07-05T22:26:56.505+07:00,2.342,97992,33747,0
1783265216505507300,2026-07-05T22:26:56.505+07:00,2.342,97842,33566,0
1783265216505507300,2026-07-05T22:26:56.505+07:00,2.342,97726,33426,0
1783265216505507300,2026-07-05T22:26:56.505+07:00,2.342,97412,33287,0
1783265216505507300,2026-07-05T22:26:56.505+07:00,2.342,97264,33156,0
1783265216505507300,2026-07-05T22:26:56.505+07:00,2.342,96969,32989,0
1783265216505507300,2026-07-05T22:26:56.505+07:00,2.342,96692,32824,0
1783265216505507300,2026-07-05T22:26:56.505+07:00,2.342,96579,32764,0
1783265216505507300,2026-07-05T22:26:56.505+07:00,2.342,96433,32742,0
1783265216505507300,2026-07-05T22:26:56.505+07:00,2.342,96288,32586,0
1783265216505507300,2026-07-05T22:26:56.505+07:00,2.342,96208,32454,0
1783265216505507300,2026-07-05T22:26:56.505+07:00,2.342,95936,32337,0
1783265216548689900,2026-07-05T22:26:56.548+07:00,2.385,95728,32221,0
1783265216548689900,2026-07-05T22:26:56.548+07:00,2.385,95585,32107,0
1783265216548689900,2026-07-05T22:26:56.548+07:00,2.385,95380,31964,0
1783265216548689900,2026-07-05T22:26:56.548+07:00,2.385,95301,31943,0
1783265216548689900,2026-07-05T22:26:56.548+07:00,2.385,95238,31971,0
1783265216548689900,2026-07-05T22:26:56.548+07:00,2.385,95206,31865,0
1783265216548689900,2026-07-05T22:26:56.548+07:00,2.385,95143,31781,0
1783265216548689900,2026-07-05T22:26:56.548+07:00,2.385,94955,31718,0
1783265216548689900,2026-07-05T22:26:56.548+07:00,2.385,94830,31613,0
1783265216548689900,2026-07-05T22:26:56.548+07:00,2.385,94736,31572,0
1783265216548689900,2026-07-05T22:26:56.548+07:00,2.385,94596,31496,0
1783265216548689900,2026-07-05T22:26:56.548+07:00,2.385,94643,31496,0
1783265216549196000,2026-07-05T22:26:56.549+07:00,2.385,94627,31558,0
1783265216549196000,2026-07-05T22:26:56.549+07:00,2.385,94658,31537,0
1783265216549196000,2026-07-05T22:26:56.549+07:00,2.385,94690,31475,0
1783265216549196000,2026-07-05T22:26:56.549+07:00,2.385,94565,31482,0
1783265216549196000,2026-07-05T22:26:56.549+07:00,2.385,94550,31420,0
1783265216583714600,2026-07-05T22:26:56.583+07:00,2.420,94519,31413,0
1783265216583714600,2026-07-05T22:26:56.583+07:00,2.420,94426,31365,0
1783265216583714600,2026-07-05T22:26:56.583+07:00,2.420,94519,31393,0
1783265216583714600,2026-07-05T22:26:56.583+07:00,2.420,94581,31516,0
1783265216583714600,2026-07-05T22:26:56.583+07:00,2.420,94643,31502,0
1783265216583714600,2026-07-05T22:26:56.583+07:00,2.420,94736,31496,0
1783265216583714600,2026-07-05T22:26:56.583+07:00,2.420,94596,31516,0
1783265216583714600,2026-07-05T22:26:56.583+07:00,2.420,94674,31502,0
1783265216583714600,2026-07-05T22:26:56.583+07:00,2.420,94690,31530,0
1783265216583714600,2026-07-05T22:26:56.583+07:00,2.420,94658,31475,0
1783265216583714600,2026-07-05T22:26:56.583+07:00,2.420,94736,31551,0
1783265216583714600,2026-07-05T22:26:56.583+07:00,2.420,94830,31627,0
1783265216583714600,2026-07-05T22:26:56.583+07:00,2.420,94939,31683,0
1783265216583714600,2026-07-05T22:26:56.583+07:00,2.420,95033,31641,0
1783265216583714600,2026-07-05T22:26:56.583+07:00,2.420,94955,31704,0
1783265216583714600,2026-07-05T22:26:56.583+07:00,2.420,94986,31676,0
1783265216628668300,2026-07-05T22:26:56.628+07:00,2.465,95018,31697,0
1783265216628668300,2026-07-05T22:26:56.628+07:00,2.465,94939,31655,0
1783265216628668300,2026-07-05T22:26:56.628+07:00,2.465,95080,31718,0
1783265216628668300,2026-07-05T22:26:56.628+07:00,2.465,95159,31802,0
1783265216628668300,2026-07-05T22:26:56.628+07:00,2.465,95222,31865,0
1783265216628668300,2026-07-05T22:26:56.628+07:00,2.465,95316,31823,0
1783265216628668300,2026-07-05T22:26:56.628+07:00,2.465,95253,31879,0
1783265216628668300,2026-07-05T22:26:56.628+07:00,2.465,95253,31872,0
1783265216628668300,2026-07-05T22:26:56.628+07:00,2.465,95285,31872,0
1783265216628668300,2026-07-05T22:26:56.628+07:00,2.465,95206,31802,0
1783265216628668300,2026-07-05T22:26:56.628+07:00,2.465,95301,31886,0
1783265216628668300,2026-07-05T22:26:56.628+07:00,2.465,95380,31943,0
1783265216628668300,2026-07-05T22:26:56.628+07:00,2.465,95490,31992,0
1783265216628668300,2026-07-05T22:26:56.628+07:00,2.465,95554,31964,0
1783265216628668300,2026-07-05T22:26:56.628+07:00,2.465,95474,31992,0
1783265216628668300,2026-07-05T22:26:56.628+07:00,2.465,95459,32000,0
1783265216628668300,2026-07-05T22:26:56.628+07:00,2.465,95459,32014,0
1783265216672518800,2026-07-05T22:26:56.672+07:00,2.509,95395,31943,0
1783265216672518800,2026-07-05T22:26:56.672+07:00,2.509,95490,32007,0
1783265216672518800,2026-07-05T22:26:56.672+07:00,2.509,95569,32035,0
1783265216672518800,2026-07-05T22:26:56.672+07:00,2.509,95649,32128,0
1783265216672518800,2026-07-05T22:26:56.672+07:00,2.509,95760,32092,0
1783265216672518800,2026-07-05T22:26:56.672+07:00,2.509,95649,32128,0
1783265216672518800,2026-07-05T22:26:56.672+07:00,2.509,95681,32128,0
1783265216672518800,2026-07-05T22:26:56.672+07:00,2.509,95696,32150,0
1783265216674057700,2026-07-05T22:26:56.674+07:00,2.510,95649,32099,0
1783265216674057700,2026-07-05T22:26:56.674+07:00,2.510,95792,32185,0
1783265216674057700,2026-07-05T22:26:56.674+07:00,2.510,95856,32236,0
1783265216674057700,2026-07-05T22:26:56.674+07:00,2.510,95952,32308,0
1783265216674057700,2026-07-05T22:26:56.674+07:00,2.510,96048,32308,0
1783265216674057700,2026-07-05T22:26:56.674+07:00,2.510,96000,32323,0
1783265216674057700,2026-07-05T22:26:56.674+07:00,2.510,96016,32330,0
1783265216674057700,2026-07-05T22:26:56.674+07:00,2.510,96048,32330,0
1783265216674057700,2026-07-05T22:26:56.674+07:00,2.510,95984,32301,0
1783265216714037600,2026-07-05T22:26:56.714+07:00,2.550,96080,32374,0
1783265216714037600,2026-07-05T22:26:56.714+07:00,2.550,96176,32425,0
1783265216714037600,2026-07-05T22:26:56.714+07:00,2.550,96256,32483,0
1783265216714037600,2026-07-05T22:26:56.714+07:00,2.550,96353,32512,0
1783265216714037600,2026-07-05T22:26:56.714+07:00,2.550,96288,32498,0
1783265216714037600,2026-07-05T22:26:56.714+07:00,2.550,96272,32520,0
1783265216714037600,2026-07-05T22:26:56.714+07:00,2.550,96288,32505,0
1783265216714037600,2026-07-05T22:26:56.714+07:00,2.550,96272,32439,0
1783265216714037600,2026-07-05T22:26:56.714+07:00,2.550,96304,32505,0
1783265216714037600,2026-07-05T22:26:56.714+07:00,2.550,96353,32557,0
1783265216714037600,2026-07-05T22:26:56.714+07:00,2.550,96482,32608,0
1783265216714037600,2026-07-05T22:26:56.714+07:00,2.550,96547,32653,0
1783265216714037600,2026-07-05T22:26:56.714+07:00,2.550,96450,32601,0
1783265216714037600,2026-07-05T22:26:56.714+07:00,2.550,96417,32557,0
1783265216714037600,2026-07-05T22:26:56.714+07:00,2.550,96417,32571,0
1783265216714037600,2026-07-05T22:26:56.714+07:00,2.550,96369,32498,0
1783265216714037600,2026-07-05T22:26:56.714+07:00,2.550,96385,32549,0
1783265216755084100,2026-07-05T22:26:56.755+07:00,2.591,96417,32579,0
1783265216755084100,2026-07-05T22:26:56.755+07:00,2.591,96466,32616,0
1783265216755084100,2026-07-05T22:26:56.755+07:00,2.591,96514,32660,0
1783265216755084100,2026-07-05T22:26:56.755+07:00,2.591,96433,32571,0
1783265216755084100,2026-07-05T22:26:56.755+07:00,2.591,96369,32512,0
1783265216755084100,2026-07-05T22:26:56.755+07:00,2.591,96369,32505,0
1783265216755084100,2026-07-05T22:26:56.755+07:00,2.591,96288,32447,0
1783265216755084100,2026-07-05T22:26:56.755+07:00,2.591,96272,32505,0
1783265216755084100,2026-07-05T22:26:56.755+07:00,2.591,96321,32520,0
1783265216755084100,2026-07-05T22:26:56.755+07:00,2.591,96369,32542,0
1783265216755084100,2026-07-05T22:26:56.755+07:00,2.591,96417,32623,0
1783265216755084100,2026-07-05T22:26:56.755+07:00,2.591,96304,32512,0
1783265216755084100,2026-07-05T22:26:56.755+07:00,2.591,96272,32461,0
1783265216755084100,2026-07-05T22:26:56.755+07:00,2.591,96224,32461,0
1783265216755084100,2026-07-05T22:26:56.755+07:00,2.591,96208,32395,0
1783265216755084100,2026-07-05T22:26:56.755+07:00,2.591,96160,32417,0
1783265216755084100,2026-07-05T22:26:56.755+07:00,2.591,96240,32454,0
1783265216793961100,2026-07-05T22:26:56.793+07:00,2.630,96304,32498,0
1783265216793961100,2026-07-05T22:26:56.793+07:00,2.630,96369,32564,0
1783265216793961100,2026-07-05T22:26:56.793+07:00,2.630,96224,32468,0
1783265216793961100,2026-07-05T22:26:56.793+07:00,2.630,96240,32439,0
1783265216793961100,2026-07-05T22:26:56.793+07:00,2.630,96208,32417,0
1783265216793961100,2026-07-05T22:26:56.793+07:00,2.630,96160,32403,0
1783265216793961100,2026-07-05T22:26:56.793+07:00,2.630,96192,32447,0
1783265216793961100,2026-07-05T22:26:56.793+07:00,2.630,96272,32461,0
1783265216793961100,2026-07-05T22:26:56.793+07:00,2.630,96304,32527,0
1783265216793961100,2026-07-05T22:26:56.793+07:00,2.630,96417,32593,0
1783265216793961100,2026-07-05T22:26:56.793+07:00,2.630,96321,32498,0
1783265216793961100,2026-07-05T22:26:56.793+07:00,2.630,96288,32490,0
1783265216793961100,2026-07-05T22:26:56.793+07:00,2.630,96321,32498,0
1783265216793961100,2026-07-05T22:26:56.793+07:00,2.630,96304,32395,0
1783265216793961100,2026-07-05T22:26:56.793+07:00,2.630,96304,32498,0
1783265216837128800,2026-07-05T22:26:56.837+07:00,2.673,96353,32564,0
1783265216837128800,2026-07-05T22:26:56.837+07:00,2.673,96466,32660,0
1783265216837128800,2026-07-05T22:26:56.837+07:00,2.673,96417,32638,0
1783265216837128800,2026-07-05T22:26:56.837+07:00,2.673,96433,32601,0
1783265216837128800,2026-07-05T22:26:56.837+07:00,2.673,96450,32593,0
1783265216837128800,2026-07-05T22:26:56.837+07:00,2.673,96466,32601,0
1783265216837128800,2026-07-05T22:26:56.837+07:00,2.673,96482,32549,0
1783265216837128800,2026-07-05T22:26:56.837+07:00,2.673,96482,32630,0
1783265216837128800,2026-07-05T22:26:56.837+07:00,2.673,96595,32675,0
1783265216837128800,2026-07-05T22:26:56.837+07:00,2.673,96725,32749,0
1783265216837128800,2026-07-05T22:26:56.837+07:00,2.673,96790,32816,0
1783265216837128800,2026-07-05T22:26:56.837+07:00,2.673,96676,32742,0
1783265216837128800,2026-07-05T22:26:56.837+07:00,2.673,96709,32742,0
1783265216837128800,2026-07-05T22:26:56.837+07:00,2.673,96725,32749,0
1783265216837128800,2026-07-05T22:26:56.837+07:00,2.673,96741,32704,0
1783265216837128800,2026-07-05T22:26:56.837+07:00,2.673,96790,32779,0
1783265216837128800,2026-07-05T22:26:56.837+07:00,2.673,96855,32846,0
1783265216881214200,2026-07-05T22:26:56.881+07:00,2.717,96953,32891,0
1783265216881214200,2026-07-05T22:26:56.881+07:00,2.717,97067,32974,0
1783265216881214200,2026-07-05T22:26:56.881+07:00,2.717,96969,32921,0
1783265216881214200,2026-07-05T22:26:56.881+07:00,2.717,96986,32921,0
1783265216881214200,2026-07-05T22:26:56.881+07:00,2.717,97002,32921,0
1783265216881214200,2026-07-05T22:26:56.881+07:00,2.717,97018,32914,0
1783265216881214200,2026-07-05T22:26:56.881+07:00,2.717,97035,32959,0
1783265216881214200,2026-07-05T22:26:56.881+07:00,2.717,97182,33027,0
1783265216881214200,2026-07-05T22:26:56.881+07:00,2.717,97313,33118,0
1783265216881214200,2026-07-05T22:26:56.881+07:00,2.717,97363,33202,0
1783265216881214200,2026-07-05T22:26:56.881+07:00,2.717,97297,33111,0
1783265216881214200,2026-07-05T22:26:56.881+07:00,2.717,97313,33118,0
1783265216881214200,2026-07-05T22:26:56.881+07:00,2.717,97330,33111,0
1783265216881214200,2026-07-05T22:26:56.881+07:00,2.717,97346,33073,0
1783265216881214200,2026-07-05T22:26:56.881+07:00,2.717,97346,33164,0
1783265216881214200,2026-07-05T22:26:56.881+07:00,2.717,97478,33233,0
1783265216881214200,2026-07-05T22:26:56.881+07:00,2.717,97560,33294,0
1783265216923740400,2026-07-05T22:26:56.923+07:00,2.760,97627,33364,0
1783265216923740400,2026-07-05T22:26:56.923+07:00,2.760,97594,33294,0
1783265216923740400,2026-07-05T22:26:56.923+07:00,2.760,97577,33310,0
1783265216923740400,2026-07-05T22:26:56.923+07:00,2.760,97627,33317,0
1783265216923740400,2026-07-05T22:26:56.923+07:00,2.760,97610,33240,0
1783265216923740400,2026-07-05T22:26:56.923+07:00,2.760,97660,33356,0
1783265216923740400,2026-07-05T22:26:56.923+07:00,2.760,97759,33395,0
1783265216923740400,2026-07-05T22:26:56.923+07:00,2.760,97909,33465,0
1783265216923740400,2026-07-05T22:26:56.923+07:00,2.760,97909,33558,0
1783265216923740400,2026-07-05T22:26:56.923+07:00,2.760,97842,33480,0
1783265216923740400,2026-07-05T22:26:56.923+07:00,2.760,97842,33465,0
1783265216923740400,2026-07-05T22:26:56.923+07:00,2.760,97892,33488,0
1783265216923740400,2026-07-05T22:26:56.923+07:00,2.760,97875,33426,0
1783265216923740400,2026-07-05T22:26:56.923+07:00,2.760,97859,33488,0
1783265216923740400,2026-07-05T22:26:56.923+07:00,2.760,97975,33558,0
1783265216923740400,2026-07-05T22:26:56.923+07:00,2.760,98109,33621,0
1783265216923740400,2026-07-05T22:26:56.923+07:00,2.760,98142,33684,0
1783265216964103000,2026-07-05T22:26:56.964+07:00,2.800,98075,33637,0
1783265216964103000,2026-07-05T22:26:56.964+07:00,2.800,98092,33637,0
1783265216964103000,2026-07-05T22:26:56.964+07:00,2.800,98075,33621,0
1783265216964103000,2026-07-05T22:26:56.964+07:00,2.800,98092,33558,0
1783265216964103000,2026-07-05T22:26:56.964+07:00,2.800,98042,33613,0
1783265216964103000,2026-07-05T22:26:56.964+07:00,2.800,98142,33668,0
1783265216964103000,2026-07-05T22:26:56.964+07:00,2.800,98276,33723,0
1783265216964103000,2026-07-05T22:26:56.964+07:00,2.800,98310,33802,0
1783265216964103000,2026-07-05T22:26:56.964+07:00,2.800,98259,33755,0
1783265216964103000,2026-07-05T22:26:56.964+07:00,2.800,98276,33739,0
1783265216964103000,2026-07-05T22:26:56.964+07:00,2.800,98327,33739,0
1783265216964103000,2026-07-05T22:26:56.964+07:00,2.800,98310,33676,0
1783265216964103000,2026-07-05T22:26:56.964+07:00,2.800,98243,33739,0
1783265216964103000,2026-07-05T22:26:56.964+07:00,2.800,98377,33826,0
1783265216964103000,2026-07-05T22:26:56.964+07:00,2.800,98461,33850,0
1783265216964103000,2026-07-05T22:26:56.964+07:00,2.800,98478,33914,0
1783265216964103000,2026-07-05T22:26:56.964+07:00,2.800,98478,33826,0
1783265216964103000,2026-07-05T22:26:56.964+07:00,2.800,98478,33866,0
1783265217004273900,2026-07-05T22:26:57.004+07:00,2.840,98461,33850,0
1783265217004273900,2026-07-05T22:26:57.004+07:00,2.840,98478,33786,0
1783265217006289600,2026-07-05T22:26:57.006+07:00,2.842,98461,33874,0
1783265217006289600,2026-07-05T22:26:57.006+07:00,2.842,98528,33922,0
1783265217006289600,2026-07-05T22:26:57.006+07:00,2.842,98647,33938,0
1783265217006289600,2026-07-05T22:26:57.006+07:00,2.842,98680,34034,0
1783265217006289600,2026-07-05T22:26:57.006+07:00,2.842,98630,33914,0
1783265217006289600,2026-07-05T22:26:57.006+07:00,2.842,98613,33954,0
1783265217006289600,2026-07-05T22:26:57.006+07:00,2.842,98613,33938,0
1783265217006289600,2026-07-05T22:26:57.006+07:00,2.842,98596,33882,0
1783265217006289600,2026-07-05T22:26:57.006+07:00,2.842,98647,33986,0
1783265217006289600,2026-07-05T22:26:57.006+07:00,2.842,98697,34026,0
1783265217006289600,2026-07-05T22:26:57.006+07:00,2.842,98816,34042,0
1783265217006289600,2026-07-05T22:26:57.006+07:00,2.842,98799,34082,0
1783265217006289600,2026-07-05T22:26:57.006+07:00,2.842,98782,34034,0
1783265217044392000,2026-07-05T22:26:57.044+07:00,2.880,98782,34034,0
1783265217044392000,2026-07-05T22:26:57.044+07:00,2.880,98799,34058,0
1783265217044392000,2026-07-05T22:26:57.044+07:00,2.880,98799,34018,0
1783265217044392000,2026-07-05T22:26:57.044+07:00,2.880,98782,34090,0
1783265217044392000,2026-07-05T22:26:57.044+07:00,2.880,98850,34107,0
1783265217044392000,2026-07-05T22:26:57.044+07:00,2.880,98935,34131,0
1783265217044392000,2026-07-05T22:26:57.044+07:00,2.880,98969,34269,0
1783265217044392000,2026-07-05T22:26:57.044+07:00,2.880,98935,34131,0
1783265217044392000,2026-07-05T22:26:57.044+07:00,2.880,98952,34155,0
1783265217044392000,2026-07-05T22:26:57.044+07:00,2.880,98952,34123,0
1783265217044392000,2026-07-05T22:26:57.044+07:00,2.880,98952,34082,0
1783265217044392000,2026-07-05T22:26:57.044+07:00,2.880,98918,34171,0
1783265217044392000,2026-07-05T22:26:57.044+07:00,2.880,99037,34220,0
1783265217044392000,2026-07-05T22:26:57.044+07:00,2.880,99122,34318,0
1783265217044392000,2026-07-05T22:26:57.044+07:00,2.880,99139,34302,0
1783265217044392000,2026-07-05T22:26:57.044+07:00,2.880,99122,34310,0
1783265217044392000,2026-07-05T22:26:57.044+07:00,2.880,99122,34228,0
1783265217088759800,2026-07-05T22:26:57.088+07:00,2.925,99139,34220,0
1783265217088759800,2026-07-05T22:26:57.088+07:00,2.925,99139,34196,0
1783265217088759800,2026-07-05T22:26:57.088+07:00,2.925,99122,34277,0
1783265217088759800,2026-07-05T22:26:57.088+07:00,2.925,99207,34318,0
1783265217088759800,2026-07-05T22:26:57.088+07:00,2.925,99293,34441,0
1783265217088759800,2026-07-05T22:26:57.088+07:00,2.925,99310,34491,0
1783265217088759800,2026-07-05T22:26:57.088+07:00,2.925,99293,34433,0
1783265217088759800,2026-07-05T22:26:57.088+07:00,2.925,99310,34351,0
1783265217088759800,2026-07-05T22:26:57.088+07:00,2.925,99293,34334,0
1783265217088759800,2026-07-05T22:26:57.088+07:00,2.925,99327,34318,0
1783265217088759800,2026-07-05T22:26:57.088+07:00,2.925,99293,34400,0
1783265217088759800,2026-07-05T22:26:57.088+07:00,2.925,99378,34408,0
1783265217088759800,2026-07-05T22:26:57.088+07:00,2.925,99516,34598,0
1783265217088759800,2026-07-05T22:26:57.088+07:00,2.925,99481,34615,0
1783265217088759800,2026-07-05T22:26:57.088+07:00,2.925,99499,34540,0
1783265217088759800,2026-07-05T22:26:57.088+07:00,2.925,99481,34582,0
1783265217088759800,2026-07-05T22:26:57.088+07:00,2.925,99550,34540,0
1783265217125926400,2026-07-05T22:26:57.125+07:00,2.962,99516,34458,0
1783265217125926400,2026-07-05T22:26:57.125+07:00,2.962,99533,34532,0
1783265217125926400,2026-07-05T22:26:57.125+07:00,2.962,99602,34524,0
1783265217125926400,2026-07-05T22:26:57.125+07:00,2.962,99722,34723,0
1783265217125926400,2026-07-05T22:26:57.125+07:00,2.962,99740,34782,0
1783265217125926400,2026-07-05T22:26:57.125+07:00,2.962,99740,34707,0
1783265217125926400,2026-07-05T22:26:57.125+07:00,2.962,99705,34698,0
1783265217125926400,2026-07-05T22:26:57.125+07:00,2.962,99740,34732,0
1783265217125926400,2026-07-05T22:26:57.125+07:00,2.962,99757,34673,0
1783265217125926400,2026-07-05T22:26:57.125+07:00,2.962,99722,34665,0
1783265217125926400,2026-07-05T22:26:57.125+07:00,2.962,99792,34791,0
1783265217125926400,2026-07-05T22:26:57.125+07:00,2.962,99947,34900,0
1783265217125926400,2026-07-05T22:26:57.125+07:00,2.962,99930,34917,0
1783265217125926400,2026-07-05T22:26:57.125+07:00,2.962,99947,34824,0
1783265217125926400,2026-07-05T22:26:57.125+07:00,2.962,99965,34824,0
1783265217125926400,2026-07-05T22:26:57.125+07:00,2.962,99982,34849,0
1783265217125926400,2026-07-05T22:26:57.125+07:00,2.962,99982,34849,0
1783265217173619600,2026-07-05T22:26:57.173+07:00,3.010,99965,34774,0
1783265217173619600,2026-07-05T22:26:57.173+07:00,3.010,100086,34951,0
1783265217173619600,2026-07-05T22:26:57.173+07:00,3.010,100156,35027,0
1783265217173619600,2026-07-05T22:26:57.173+07:00,3.010,100226,35096,0
1783265217173619600,2026-07-05T22:26:57.173+07:00,3.010,100226,35010,0
1783265217173619600,2026-07-05T22:26:57.173+07:00,3.010,100191,35019,0
1783265217173619600,2026-07-05T22:26:57.173+07:00,3.010,100226,35019,0
1783265217173619600,2026-07-05T22:26:57.173+07:00,3.010,100243,35010,0
1783265217173619600,2026-07-05T22:26:57.173+07:00,3.010,100243,35053,0
1783265217173619600,2026-07-05T22:26:57.173+07:00,3.010,100330,35113,0
1783265217173619600,2026-07-05T22:26:57.173+07:00,3.010,100453,35207,0
1783265217173619600,2026-07-05T22:26:57.173+07:00,3.010,100453,35268,0
1783265217173619600,2026-07-05T22:26:57.173+07:00,3.010,100470,35190,0
1783265217173619600,2026-07-05T22:26:57.173+07:00,3.010,100470,35182,0
1783265217173619600,2026-07-05T22:26:57.173+07:00,3.010,100488,35182,0
1783265217173619600,2026-07-05T22:26:57.173+07:00,3.010,100488,35182,0
1783265217173619600,2026-07-05T22:26:57.173+07:00,3.010,100488,35182,0
1783265217210579700,2026-07-05T22:26:57.210+07:00,3.047,100611,35285,0
1783265217210579700,2026-07-05T22:26:57.210+07:00,3.047,100716,35354,0
1783265217210579700,2026-07-05T22:26:57.210+07:00,3.047,100734,35406,0
1783265217210579700,2026-07-05T22:26:57.210+07:00,3.047,100716,35346,0
1783265217210579700,2026-07-05T22:26:57.210+07:00,3.047,100681,35337,0
1783265217213765300,2026-07-05T22:26:57.213+07:00,3.050,100716,35328,0
1783265217213765300,2026-07-05T22:26:57.213+07:00,3.050,100699,35311,0
1783265217213765300,2026-07-05T22:26:57.213+07:00,3.050,100681,35320,0
1783265217213765300,2026-07-05T22:26:57.213+07:00,3.050,100752,35380,0
1783265217213765300,2026-07-05T22:26:57.213+07:00,3.050,100857,35459,0
1783265217213765300,2026-07-05T22:26:57.213+07:00,3.050,100857,35520,0
1783265217213765300,2026-07-05T22:26:57.213+07:00,3.050,100805,35389,0
1783265217213765300,2026-07-05T22:26:57.213+07:00,3.050,100716,35354,0
1783265217213765300,2026-07-05T22:26:57.213+07:00,3.050,100699,35320,0
1783265217213765300,2026-07-05T22:26:57.213+07:00,3.050,100576,35294,0
1783265217254115800,2026-07-05T22:26:57.254+07:00,3.090,100470,35182,0
1783265217254115800,2026-07-05T22:26:57.254+07:00,3.090,100453,35199,0
1783265217254115800,2026-07-05T22:26:57.254+07:00,3.090,100453,35190,0
1783265217254115800,2026-07-05T22:26:57.254+07:00,3.090,100296,35139,0
1783265217254115800,2026-07-05T22:26:57.254+07:00,3.090,100086,35010,0
1783265217254115800,2026-07-05T22:26:57.254+07:00,3.090,99913,34824,0
1783265217254115800,2026-07-05T22:26:57.254+07:00,3.090,99722,34690,0
1783265217254115800,2026-07-05T22:26:57.254+07:00,3.090,99481,34482,0
1783265217254115800,2026-07-05T22:26:57.254+07:00,3.090,99190,34383,0
1783265217254115800,2026-07-05T22:26:57.254+07:00,3.090,99105,34277,0
1783265217254115800,2026-07-05T22:26:57.254+07:00,3.090,98969,34188,0
1783265217254115800,2026-07-05T22:26:57.254+07:00,3.090,98697,34098,0
1783265217254115800,2026-07-05T22:26:57.254+07:00,3.090,98495,33890,0
1783265217254115800,2026-07-05T22:26:57.254+07:00,3.090,98259,33755,0
1783265217254115800,2026-07-05T22:26:57.254+07:00,3.090,98042,33668,0
1783265217254115800,2026-07-05T22:26:57.254+07:00,3.090,97809,33465,0
1783265217254115800,2026-07-05T22:26:57.254+07:00,3.090,97544,33310,0
1783265217254115800,2026-07-05T22:26:57.254+07:00,3.090,97461,33256,0
1783265217293708900,2026-07-05T22:26:57.293+07:00,3.130,97330,33217,0
1783265217293708900,2026-07-05T22:26:57.293+07:00,3.130,97182,33141,0
1783265217301195900,2026-07-05T22:26:57.301+07:00,3.137,96969,32929,0
1783265217301195900,2026-07-05T22:26:57.301+07:00,3.137,96741,32809,0
1783265217301195900,2026-07-05T22:26:57.301+07:00,3.137,96595,32690,0
1783265217301195900,2026-07-05T22:26:57.301+07:00,3.137,96450,32586,0
1783265217301195900,2026-07-05T22:26:57.301+07:00,3.137,96192,32454,0
1783265217301195900,2026-07-05T22:26:57.301+07:00,3.137,96192,32468,0
1783265217301195900,2026-07-05T22:26:57.301+07:00,3.137,96160,32447,0
1783265217301195900,2026-07-05T22:26:57.301+07:00,3.137,96000,32374,0
1783265217301195900,2026-07-05T22:26:57.301+07:00,3.137,95904,32279,0
1783265217301195900,2026-07-05T22:26:57.301+07:00,3.137,95760,32185,0
1783265217301195900,2026-07-05T22:26:57.301+07:00,3.137,95649,32099,0
1783265217301195900,2026-07-05T22:26:57.301+07:00,3.137,95569,32035,0
1783265217301195900,2026-07-05T22:26:57.301+07:00,3.137,95443,32000,0
1783265217301195900,2026-07-05T22:26:57.301+07:00,3.137,95522,32028,0
1783265217301195900,2026-07-05T22:26:57.301+07:00,3.137,95569,32085,0
1783265217341017500,2026-07-05T22:26:57.341+07:00,3.177,95490,32042,0
1783265217343679000,2026-07-05T22:26:57.343+07:00,3.180,95459,31985,0
1783265217343679000,2026-07-05T22:26:57.343+07:00,3.180,95380,31957,0
1783265217343679000,2026-07-05T22:26:57.343+07:00,3.180,95395,31921,0
1783265217343679000,2026-07-05T22:26:57.343+07:00,3.180,95348,31872,0
1783265217343679000,2026-07-05T22:26:57.343+07:00,3.180,95269,31865,0
1783265217343679000,2026-07-05T22:26:57.343+07:00,3.180,95380,31936,0
1783265217343679000,2026-07-05T22:26:57.343+07:00,3.180,95459,32007,0
1783265217343679000,2026-07-05T22:26:57.343+07:00,3.180,95427,31978,0
1783265217343679000,2026-07-05T22:26:57.343+07:00,3.180,95427,31978,0
1783265217343679000,2026-07-05T22:26:57.343+07:00,3.180,95459,31957,0
1783265217343679000,2026-07-05T22:26:57.343+07:00,3.180,95490,31957,0
1783265217343679000,2026-07-05T22:26:57.343+07:00,3.180,95490,31985,0
1783265217343679000,2026-07-05T22:26:57.343+07:00,3.180,95411,31950,0
1783265217343679000,2026-07-05T22:26:57.343+07:00,3.180,95601,32056,0
1783265217343679000,2026-07-05T22:26:57.343+07:00,3.180,95712,32142,0
1783265217343679000,2026-07-05T22:26:57.343+07:00,3.180,95728,32142,0
1783265217381273300,2026-07-05T22:26:57.381+07:00,3.217,95728,32142,0
1783265217383875800,2026-07-05T22:26:57.383+07:00,3.220,95776,32164,0
1783265217383875800,2026-07-05T22:26:57.383+07:00,3.220,95808,32164,0
1783265217383875800,2026-07-05T22:26:57.383+07:00,3.220,95824,32178,0
1783265217383875800,2026-07-05T22:26:57.383+07:00,3.220,95792,32164,0
1783265217383875800,2026-07-05T22:26:57.383+07:00,3.220,95952,32250,0
1783265217383875800,2026-07-05T22:26:57.383+07:00,3.220,96064,32366,0
1783265217383875800,2026-07-05T22:26:57.383+07:00,3.220,96064,32337,0
1783265217383875800,2026-07-05T22:26:57.383+07:00,3.220,96128,32352,0
1783265217383875800,2026-07-05T22:26:57.383+07:00,3.220,96112,32345,0
1783265217383875800,2026-07-05T22:26:57.383+07:00,3.220,96112,32359,0
1783265217383875800,2026-07-05T22:26:57.383+07:00,3.220,96112,32374,0
1783265217383875800,2026-07-05T22:26:57.383+07:00,3.220,96128,32381,0
1783265217383875800,2026-07-05T22:26:57.383+07:00,3.220,96208,32447,0
1783265217383875800,2026-07-05T22:26:57.383+07:00,3.220,96369,32557,0
1783265217383875800,2026-07-05T22:26:57.383+07:00,3.220,96369,32542,0
1783265217383875800,2026-07-05T22:26:57.383+07:00,3.220,96337,32549,0
1783265217419092700,2026-07-05T22:26:57.419+07:00,3.255,96321,32505,0
1783265217419092700,2026-07-05T22:26:57.419+07:00,3.255,96353,32505,0
1783265217419092700,2026-07-05T22:26:57.419+07:00,3.255,96369,32527,0
1783265217419092700,2026-07-05T22:26:57.419+07:00,3.255,96353,32505,0
1783265217419092700,2026-07-05T22:26:57.419+07:00,3.255,96433,32579,0
1783265217419092700,2026-07-05T22:26:57.419+07:00,3.255,96579,32682,0
1783265217419092700,2026-07-05T22:26:57.419+07:00,3.255,96498,32667,0
1783265217419092700,2026-07-05T22:26:57.419+07:00,3.255,96579,32667,0
1783265217419092700,2026-07-05T22:26:57.419+07:00,3.255,96563,32660,0
1783265217419092700,2026-07-05T22:26:57.419+07:00,3.255,96579,32682,0
1783265217419092700,2026-07-05T22:26:57.419+07:00,3.255,96660,32690,0
1783265217419092700,2026-07-05T22:26:57.419+07:00,3.255,96547,32645,0
1783265217419092700,2026-07-05T22:26:57.419+07:00,3.255,96741,32757,0
1783265217419092700,2026-07-05T22:26:57.419+07:00,3.255,96839,32854,0
1783265217419092700,2026-07-05T22:26:57.419+07:00,3.255,96839,32869,0
1783265217459048900,2026-07-05T22:26:57.459+07:00,3.295,96871,32876,0
1783265217463903600,2026-07-05T22:26:57.463+07:00,3.300,96888,32861,0
1783265217463903600,2026-07-05T22:26:57.463+07:00,3.300,96937,32884,0
1783265217463903600,2026-07-05T22:26:57.463+07:00,3.300,96937,32854,0
1783265217463903600,2026-07-05T22:26:57.463+07:00,3.300,96920,32876,0
1783265217463903600,2026-07-05T22:26:57.463+07:00,3.300,97018,32959,0
1783265217463903600,2026-07-05T22:26:57.463+07:00,3.300,97149,33027,0
1783265217463903600,2026-07-05T22:26:57.463+07:00,3.300,97149,33035,0
1783265217463903600,2026-07-05T22:26:57.463+07:00,3.300,97149,33035,0
1783265217463903600,2026-07-05T22:26:57.463+07:00,3.300,97149,33035,0
1783265217463903600,2026-07-05T22:26:57.463+07:00,3.300,97165,33019,0
1783265217463903600,2026-07-05T22:26:57.463+07:00,3.300,97149,33004,0
1783265217463903600,2026-07-05T22:26:57.463+07:00,3.300,97100,32967,0
1783265217463903600,2026-07-05T22:26:57.463+07:00,3.300,97182,33073,0
1783265217463903600,2026-07-05T22:26:57.463+07:00,3.300,97297,33126,0
1783265217463903600,2026-07-05T22:26:57.463+07:00,3.300,97248,33111,0
1783265217463903600,2026-07-05T22:26:57.463+07:00,3.300,97280,33118,0
1783265217507036300,2026-07-05T22:26:57.507+07:00,3.343,97198,33065,0
1783265217507036300,2026-07-05T22:26:57.507+07:00,3.343,97165,33057,0
1783265217507036300,2026-07-05T22:26:57.507+07:00,3.343,97149,33019,0
1783265217507036300,2026-07-05T22:26:57.507+07:00,3.343,97051,32974,0
1783265217507036300,2026-07-05T22:26:57.507+07:00,3.343,97116,33012,0
1783265217507036300,2026-07-05T22:26:57.507+07:00,3.343,97165,33088,0
1783265217507036300,2026-07-05T22:26:57.507+07:00,3.343,97149,33042,0
1783265217507036300,2026-07-05T22:26:57.507+07:00,3.343,97067,32997,0
1783265217507036300,2026-07-05T22:26:57.507+07:00,3.343,97035,32967,0
1783265217507036300,2026-07-05T22:26:57.507+07:00,3.343,97018,32951,0
1783265217507036300,2026-07-05T22:26:57.507+07:00,3.343,96986,32906,0
1783265217507036300,2026-07-05T22:26:57.507+07:00,3.343,96871,32839,0
1783265217507036300,2026-07-05T22:26:57.507+07:00,3.343,96969,32929,0
1783265217507036300,2026-07-05T22:26:57.507+07:00,3.343,97018,32989,0
1783265217507036300,2026-07-05T22:26:57.507+07:00,3.343,97002,32959,0
1783265217507036300,2026-07-05T22:26:57.507+07:00,3.343,96920,32914,0
1783265217543993500,2026-07-05T22:26:57.543+07:00,3.380,96888,32876,0
1783265217543993500,2026-07-05T22:26:57.543+07:00,3.380,96871,32861,0
1783265217543993500,2026-07-05T22:26:57.543+07:00,3.380,96855,32816,0
1783265217543993500,2026-07-05T22:26:57.543+07:00,3.380,96757,32771,0
1783265217543993500,2026-07-05T22:26:57.543+07:00,3.380,96839,32824,0
1783265217543993500,2026-07-05T22:26:57.543+07:00,3.380,96871,32891,0
1783265217543993500,2026-07-05T22:26:57.543+07:00,3.380,96855,32914,0
1783265217543993500,2026-07-05T22:26:57.543+07:00,3.380,96822,32854,0
1783265217543993500,2026-07-05T22:26:57.543+07:00,3.380,96822,32809,0
1783265217543993500,2026-07-05T22:26:57.543+07:00,3.380,96806,32816,0
1783265217543993500,2026-07-05T22:26:57.543+07:00,3.380,96790,32809,0
1783265217543993500,2026-07-05T22:26:57.543+07:00,3.380,96725,32734,0
1783265217543993500,2026-07-05T22:26:57.543+07:00,3.380,96806,32816,0
1783265217543993500,2026-07-05T22:26:57.543+07:00,3.380,96871,32891,0
1783265217543993500,2026-07-05T22:26:57.543+07:00,3.380,96871,32891,0
1783265217543993500,2026-07-05T22:26:57.543+07:00,3.380,96839,32854,0
1783265217543993500,2026-07-05T22:26:57.543+07:00,3.380,96839,32831,0
1783265217583711700,2026-07-05T22:26:57.583+07:00,3.420,96855,32801,0
1783265217583711700,2026-07-05T22:26:57.583+07:00,3.420,96839,32809,0
1783265217583711700,2026-07-05T22:26:57.583+07:00,3.420,96757,32757,0
1783265217583711700,2026-07-05T22:26:57.583+07:00,3.420,96871,32846,0
1783265217583711700,2026-07-05T22:26:57.583+07:00,3.420,96920,32914,0
1783265217583711700,2026-07-05T22:26:57.583+07:00,3.420,96904,32921,0
1783265217583711700,2026-07-05T22:26:57.583+07:00,3.420,96888,32891,0
1783265217583711700,2026-07-05T22:26:57.583+07:00,3.420,96953,32891,0
1783265217583711700,2026-07-05T22:26:57.583+07:00,3.420,96937,32891,0
1783265217583711700,2026-07-05T22:26:57.583+07:00,3.420,96904,32869,0
1783265217583711700,2026-07-05T22:26:57.583+07:00,3.420,96888,32839,0
1783265217583711700,2026-07-05T22:26:57.583+07:00,3.420,97002,32929,0
1783265217583711700,2026-07-05T22:26:57.583+07:00,3.420,97067,33035,0
1783265217583711700,2026-07-05T22:26:57.583+07:00,3.420,97165,33027,0
1783265217583711700,2026-07-05T22:26:57.583+07:00,3.420,97116,33012,0
1783265217623995600,2026-07-05T22:26:57.623+07:00,3.460,97165,32989,0
1783265217623995600,2026-07-05T22:26:57.623+07:00,3.460,97149,33042,0
1783265217623995600,2026-07-05T22:26:57.623+07:00,3.460,97198,33012,0
1783265217623995600,2026-07-05T22:26:57.623+07:00,3.460,97149,32989,0
1783265217623995600,2026-07-05T22:26:57.623+07:00,3.460,97264,33080,0
1783265217623995600,2026-07-05T22:26:57.623+07:00,3.460,97346,33210,0
1783265217623995600,2026-07-05T22:26:57.623+07:00,3.460,97363,33187,0
1783265217623995600,2026-07-05T22:26:57.623+07:00,3.460,97396,33217,0
1783265217623995600,2026-07-05T22:26:57.623+07:00,3.460,97428,33187,0
1783265217623995600,2026-07-05T22:26:57.623+07:00,3.460,97445,33195,0
1783265217623995600,2026-07-05T22:26:57.623+07:00,3.460,97494,33217,0
1783265217623995600,2026-07-05T22:26:57.623+07:00,3.460,97461,33187,0
1783265217623995600,2026-07-05T22:26:57.623+07:00,3.460,97577,33279,0
1783265217623995600,2026-07-05T22:26:57.623+07:00,3.460,97660,33387,0
1783265217623995600,2026-07-05T22:26:57.623+07:00,3.460,97726,33426,0
1783265217623995600,2026-07-05T22:26:57.623+07:00,3.460,97693,33395,0
1783265217623995600,2026-07-05T22:26:57.623+07:00,3.460,97743,33371,0
1783265217667794400,2026-07-05T22:26:57.667+07:00,3.504,97743,33410,0
1783265217667794400,2026-07-05T22:26:57.667+07:00,3.504,97759,33418,0
1783265217667794400,2026-07-05T22:26:57.667+07:00,3.504,97726,33364,0
1783265217667794400,2026-07-05T22:26:57.667+07:00,3.504,97842,33496,0
1783265217667794400,2026-07-05T22:26:57.667+07:00,3.504,97925,33550,0
1783265217667794400,2026-07-05T22:26:57.667+07:00,3.504,98025,33558,0
1783265217667794400,2026-07-05T22:26:57.667+07:00,3.504,97975,33550,0
1783265217667794400,2026-07-05T22:26:57.667+07:00,3.504,98042,33574,0
1783265217667794400,2026-07-05T22:26:57.667+07:00,3.504,98042,33574,0
1783265217667794400,2026-07-05T22:26:57.667+07:00,3.504,98059,33582,0
1783265217667794400,2026-07-05T22:26:57.667+07:00,3.504,98009,33535,0
1783265217667794400,2026-07-05T22:26:57.667+07:00,3.504,98126,33644,0
1783265217667794400,2026-07-05T22:26:57.667+07:00,3.504,98226,33747,0
1783265217667794400,2026-07-05T22:26:57.667+07:00,3.504,98293,33739,0
1783265217667794400,2026-07-05T22:26:57.667+07:00,3.504,98276,33723,0
1783265217667794400,2026-07-05T22:26:57.667+07:00,3.504,98276,33731,0
1783265217667794400,2026-07-05T22:26:57.667+07:00,3.504,98327,33755,0
1783265217710619700,2026-07-05T22:26:57.710+07:00,3.547,98327,33771,0
1783265217710619700,2026-07-05T22:26:57.710+07:00,3.547,98293,33723,0
1783265217710619700,2026-07-05T22:26:57.710+07:00,3.547,98411,33818,0
1783265217710619700,2026-07-05T22:26:57.710+07:00,3.547,98478,33866,0
1783265217710619700,2026-07-05T22:26:57.710+07:00,3.547,98478,33842,0
1783265217710619700,2026-07-05T22:26:57.710+07:00,3.547,98478,33842,0
1783265217710619700,2026-07-05T22:26:57.710+07:00,3.547,98528,33850,0
1783265217710619700,2026-07-05T22:26:57.710+07:00,3.547,98528,33874,0
1783265217710619700,2026-07-05T22:26:57.710+07:00,3.547,98545,33850,0
1783265217710619700,2026-07-05T22:26:57.710+07:00,3.547,98478,33818,0
1783265217710619700,2026-07-05T22:26:57.710+07:00,3.547,98545,33962,0
1783265217710619700,2026-07-05T22:26:57.710+07:00,3.547,98663,33994,0
1783265217710619700,2026-07-05T22:26:57.710+07:00,3.547,98714,34002,0
1783265217713729200,2026-07-05T22:26:57.713+07:00,3.550,98680,33930,0
1783265217713729200,2026-07-05T22:26:57.713+07:00,3.550,98680,33954,0
1783265217713729200,2026-07-05T22:26:57.713+07:00,3.550,98697,33954,0
1783265217713729200,2026-07-05T22:26:57.713+07:00,3.550,98714,33970,0
1783265217755633700,2026-07-05T22:26:57.755+07:00,3.592,98630,33930,0
1783265217755633700,2026-07-05T22:26:57.755+07:00,3.592,98748,34026,0
1783265217755633700,2026-07-05T22:26:57.755+07:00,3.592,98850,34090,0
1783265217755633700,2026-07-05T22:26:57.755+07:00,3.592,98867,34026,0
1783265217755633700,2026-07-05T22:26:57.755+07:00,3.592,98833,34018,0
1783265217755633700,2026-07-05T22:26:57.755+07:00,3.592,98884,34050,0
1783265217755633700,2026-07-05T22:26:57.755+07:00,3.592,98850,34074,0
1783265217755633700,2026-07-05T22:26:57.755+07:00,3.592,98850,34066,0
1783265217755633700,2026-07-05T22:26:57.755+07:00,3.592,98799,34018,0
1783265217755633700,2026-07-05T22:26:57.755+07:00,3.592,98918,34131,0
1783265217755633700,2026-07-05T22:26:57.755+07:00,3.592,99003,34155,0
1783265217755633700,2026-07-05T22:26:57.755+07:00,3.592,98986,34212,0
1783265217755633700,2026-07-05T22:26:57.755+07:00,3.592,98969,34220,0
1783265217755633700,2026-07-05T22:26:57.755+07:00,3.592,99003,34131,0
1783265217755633700,2026-07-05T22:26:57.755+07:00,3.592,99003,34139,0
1783265217755633700,2026-07-05T22:26:57.755+07:00,3.592,98986,34131,0
1783265217756250400,2026-07-05T22:26:57.756+07:00,3.592,98952,34139,0
1783265217795369800,2026-07-05T22:26:57.795+07:00,3.631,99003,34220,0
1783265217795369800,2026-07-05T22:26:57.795+07:00,3.631,99122,34220,0
1783265217795369800,2026-07-05T22:26:57.795+07:00,3.631,99105,34318,0
1783265217795369800,2026-07-05T22:26:57.795+07:00,3.631,99088,34285,0
1783265217795369800,2026-07-05T22:26:57.795+07:00,3.631,99088,34188,0
1783265217795369800,2026-07-05T22:26:57.795+07:00,3.631,99122,34220,0
1783265217795369800,2026-07-05T22:26:57.795+07:00,3.631,99105,34244,0
1783265217795369800,2026-07-05T22:26:57.795+07:00,3.631,99071,34188,0
1783265217795369800,2026-07-05T22:26:57.795+07:00,3.631,99156,34285,0
1783265217795369800,2026-07-05T22:26:57.795+07:00,3.631,99293,34342,0
1783265217795369800,2026-07-05T22:26:57.795+07:00,3.631,99259,34400,0
1783265217795369800,2026-07-05T22:26:57.795+07:00,3.631,99207,34392,0
1783265217795369800,2026-07-05T22:26:57.795+07:00,3.631,99259,34253,0
1783265217795369800,2026-07-05T22:26:57.795+07:00,3.631,99241,34293,0
1783265217795369800,2026-07-05T22:26:57.795+07:00,3.631,99259,34302,0
1783265217795369800,2026-07-05T22:26:57.795+07:00,3.631,99207,34277,0
1783265217837949900,2026-07-05T22:26:57.837+07:00,3.674,99293,34367,0
1783265217837949900,2026-07-05T22:26:57.837+07:00,3.674,99430,34524,0
1783265217837949900,2026-07-05T22:26:57.837+07:00,3.674,99430,34491,0
1783265217837949900,2026-07-05T22:26:57.837+07:00,3.674,99396,34507,0
1783265217837949900,2026-07-05T22:26:57.837+07:00,3.674,99430,34449,0
1783265217837949900,2026-07-05T22:26:57.837+07:00,3.674,99413,34367,0
1783265217837949900,2026-07-05T22:26:57.837+07:00,3.674,99430,34400,0
1783265217837949900,2026-07-05T22:26:57.837+07:00,3.674,99378,34342,0
1783265217837949900,2026-07-05T22:26:57.837+07:00,3.674,99464,34491,0
1783265217837949900,2026-07-05T22:26:57.837+07:00,3.674,99619,34607,0
1783265217837949900,2026-07-05T22:26:57.837+07:00,3.674,99585,34615,0
1783265217837949900,2026-07-05T22:26:57.837+07:00,3.674,99567,34582,0
1783265217837949900,2026-07-05T22:26:57.837+07:00,3.674,99602,34590,0
1783265217837949900,2026-07-05T22:26:57.837+07:00,3.674,99567,34573,0
1783265217837949900,2026-07-05T22:26:57.837+07:00,3.674,99585,34458,0
1783265217837949900,2026-07-05T22:26:57.837+07:00,3.674,99567,34474,0
1783265217837949900,2026-07-05T22:26:57.837+07:00,3.674,99619,34582,0
1783265217879425300,2026-07-05T22:26:57.879+07:00,3.715,99740,34707,0
1783265217879425300,2026-07-05T22:26:57.879+07:00,3.715,99757,34723,0
1783265217879425300,2026-07-05T22:26:57.879+07:00,3.715,99757,34698,0
1783265217879425300,2026-07-05T22:26:57.879+07:00,3.715,99774,34698,0
1783265217879425300,2026-07-05T22:26:57.879+07:00,3.715,99740,34707,0
1783265217879425300,2026-07-05T22:26:57.879+07:00,3.715,99774,34715,0
1783265217879425300,2026-07-05T22:26:57.879+07:00,3.715,99705,34590,0
1783265217879425300,2026-07-05T22:26:57.879+07:00,3.715,99878,34648,0
1783265217879425300,2026-07-05T22:26:57.879+07:00,3.715,99895,34841,0
1783265217879425300,2026-07-05T22:26:57.879+07:00,3.715,99982,34833,0
1783265217879425300,2026-07-05T22:26:57.879+07:00,3.715,99947,34816,0
1783265217879425300,2026-07-05T22:26:57.879+07:00,3.715,99982,34816,0
1783265217879425300,2026-07-05T22:26:57.879+07:00,3.715,99965,34849,0
1783265217879425300,2026-07-05T22:26:57.879+07:00,3.715,100034,34833,0
1783265217879425300,2026-07-05T22:26:57.879+07:00,3.715,99982,34774,0
1783265217879425300,2026-07-05T22:26:57.879+07:00,3.715,100017,34883,0
1783265217879425300,2026-07-05T22:26:57.879+07:00,3.715,100156,34993,0
1783265217916161500,2026-07-05T22:26:57.916+07:00,3.752,100208,34993,0
1783265217916161500,2026-07-05T22:26:57.916+07:00,3.752,100191,34968,0
1783265217916161500,2026-07-05T22:26:57.916+07:00,3.752,100208,35010,0
1783265217916161500,2026-07-05T22:26:57.916+07:00,3.752,100208,34976,0
1783265217916161500,2026-07-05T22:26:57.916+07:00,3.752,100261,34985,0
1783265217916161500,2026-07-05T22:26:57.916+07:00,3.752,100208,34934,0
1783265217916161500,2026-07-05T22:26:57.916+07:00,3.752,100278,35053,0
1783265217916161500,2026-07-05T22:26:57.916+07:00,3.752,100400,35104,0
1783265217916161500,2026-07-05T22:26:57.916+07:00,3.752,100435,35156,0
1783265217916161500,2026-07-05T22:26:57.916+07:00,3.752,100453,35130,0
1783265217916161500,2026-07-05T22:26:57.916+07:00,3.752,100488,35139,0
1783265217916161500,2026-07-05T22:26:57.916+07:00,3.752,100506,35173,0
1783265217916161500,2026-07-05T22:26:57.916+07:00,3.752,100470,35190,0
1783265217916161500,2026-07-05T22:26:57.916+07:00,3.752,100453,35121,0
1783265217916161500,2026-07-05T22:26:57.916+07:00,3.752,100558,35225,0
1783265217916161500,2026-07-05T22:26:57.916+07:00,3.752,100664,35285,0
1783265217916161500,2026-07-05T22:26:57.916+07:00,3.752,100734,35294,0
1783265217963820100,2026-07-05T22:26:57.963+07:00,3.800,100716,35311,0
1783265217963820100,2026-07-05T22:26:57.963+07:00,3.800,100716,35363,0
1783265217963820100,2026-07-05T22:26:57.963+07:00,3.800,100734,35328,0
1783265217963820100,2026-07-05T22:26:57.963+07:00,3.800,100769,35320,0
1783265217963820100,2026-07-05T22:26:57.963+07:00,3.800,100699,35268,0
1783265217963820100,2026-07-05T22:26:57.963+07:00,3.800,100769,35354,0
1783265217963820100,2026-07-05T22:26:57.963+07:00,3.800,100840,35424,0
1783265217963820100,2026-07-05T22:26:57.963+07:00,3.800,100875,35406,0
1783265217963820100,2026-07-05T22:26:57.963+07:00,3.800,100857,35372,0
1783265217963820100,2026-07-05T22:26:57.963+07:00,3.800,100840,35389,0
1783265217963820100,2026-07-05T22:26:57.963+07:00,3.800,100769,35372,0
1783265217963820100,2026-07-05T22:26:57.963+07:00,3.800,100734,35311,0
1783265217963820100,2026-07-05T22:26:57.963+07:00,3.800,100576,35164,0
1783265217963820100,2026-07-05T22:26:57.963+07:00,3.800,100576,35216,0
1783265217963820100,2026-07-05T22:26:57.963+07:00,3.800,100506,35207,0
1783265217963820100,2026-07-05T22:26:57.963+07:00,3.800,100435,35147,0
1783265217963820100,2026-07-05T22:26:57.963+07:00,3.800,100226,34985,0
1783265217993859300,2026-07-05T22:26:57.993+07:00,3.830,100069,34917,0
1783265217993859300,2026-07-05T22:26:57.993+07:00,3.830,99861,34774,0
1783265217993859300,2026-07-05T22:26:57.993+07:00,3.830,99671,34665,0
1783265217993859300,2026-07-05T22:26:57.993+07:00,3.830,99378,34359,0
1783265217993859300,2026-07-05T22:26:57.993+07:00,3.830,99241,34367,0
1783265217993859300,2026-07-05T22:26:57.993+07:00,3.830,99071,34253,0
1783265217993859300,2026-07-05T22:26:57.993+07:00,3.830,98952,34188,0
1783265217993859300,2026-07-05T22:26:57.993+07:00,3.830,98714,33938,0
1783265217993859300,2026-07-05T22:26:57.993+07:00,3.830,98478,33874,0
1783265217993859300,2026-07-05T22:26:57.993+07:00,3.830,98243,33747,0
1783265217993859300,2026-07-05T22:26:57.993+07:00,3.830,98042,33613,0
1783265217993859300,2026-07-05T22:26:57.993+07:00,3.830,97776,33402,0
1783265217993859300,2026-07-05T22:26:57.993+07:00,3.830,97660,33356,0
1783265217993859300,2026-07-05T22:26:57.993+07:00,3.830,97494,33333,0
1783265217993859300,2026-07-05T22:26:57.993+07:00,3.830,97346,33195,0
1783265218043964400,2026-07-05T22:26:58.043+07:00,3.880,97198,33042,0
1783265218043964400,2026-07-05T22:26:58.043+07:00,3.880,96969,32936,0
1783265218043964400,2026-07-05T22:26:58.043+07:00,3.880,96806,32786,0
1783265218043964400,2026-07-05T22:26:58.043+07:00,3.880,96628,32682,0
1783265218043964400,2026-07-05T22:26:58.043+07:00,3.880,96433,32527,0
1783265218043964400,2026-07-05T22:26:58.043+07:00,3.880,96369,32505,0
1783265218043964400,2026-07-05T22:26:58.043+07:00,3.880,96272,32535,0
1783265218043964400,2026-07-05T22:26:58.043+07:00,3.880,96224,32447,0
1783265218043964400,2026-07-05T22:26:58.043+07:00,3.880,96112,32345,0
1783265218043964400,2026-07-05T22:26:58.043+07:00,3.880,95952,32265,0
1783265218043964400,2026-07-05T22:26:58.043+07:00,3.880,95824,32200,0
1783265218043964400,2026-07-05T22:26:58.043+07:00,3.880,95776,32157,0
1783265218043964400,2026-07-05T22:26:58.043+07:00,3.880,95633,32021,0
1783265218043964400,2026-07-05T22:26:58.043+07:00,3.880,95633,32071,0
1783265218043964400,2026-07-05T22:26:58.043+07:00,3.880,95617,32099,0
1783265218043964400,2026-07-05T22:26:58.043+07:00,3.880,95633,32078,0
1783265218043964400,2026-07-05T22:26:58.043+07:00,3.880,95649,32042,0
1783265218085593600,2026-07-05T22:26:58.085+07:00,3.922,95522,32028,0
1783265218085593600,2026-07-05T22:26:58.085+07:00,3.922,95506,32007,0
1783265218085593600,2026-07-05T22:26:58.085+07:00,3.922,95506,31964,0
1783265218085593600,2026-07-05T22:26:58.085+07:00,3.922,95443,31886,0
1783265218085593600,2026-07-05T22:26:58.085+07:00,3.922,95506,31964,0
1783265218085593600,2026-07-05T22:26:58.085+07:00,3.922,95569,32064,0
1783265218085593600,2026-07-05T22:26:58.085+07:00,3.922,95649,32049,0
1783265218085593600,2026-07-05T22:26:58.085+07:00,3.922,95728,32028,0
1783265218085593600,2026-07-05T22:26:58.085+07:00,3.922,95633,32071,0
1783265218085593600,2026-07-05T22:26:58.085+07:00,3.922,95617,32028,0
1783265218085593600,2026-07-05T22:26:58.085+07:00,3.922,95649,32071,0
1783265218085593600,2026-07-05T22:26:58.085+07:00,3.922,95633,31992,0
1783265218085593600,2026-07-05T22:26:58.085+07:00,3.922,95712,32085,0
1783265218085593600,2026-07-05T22:26:58.085+07:00,3.922,95840,32214,0
1783265218085593600,2026-07-05T22:26:58.085+07:00,3.922,95888,32200,0
1783265218085593600,2026-07-05T22:26:58.085+07:00,3.922,95968,32193,0
1783265218085593600,2026-07-05T22:26:58.085+07:00,3.922,95920,32243,0
1783265218085593600,2026-07-05T22:26:58.085+07:00,3.922,95936,32243,0
1783265218129151600,2026-07-05T22:26:58.129+07:00,3.965,96016,32265,0
1783265218129151600,2026-07-05T22:26:58.129+07:00,3.965,95952,32207,0
1783265218129151600,2026-07-05T22:26:58.129+07:00,3.965,96048,32294,0
1783265218129151600,2026-07-05T22:26:58.129+07:00,3.965,96128,32432,0
1783265218129151600,2026-07-05T22:26:58.129+07:00,3.965,96240,32432,0
1783265218129151600,2026-07-05T22:26:58.129+07:00,3.965,96337,32403,0
1783265218129151600,2026-07-05T22:26:58.129+07:00,3.965,96240,32447,0
1783265218129151600,2026-07-05T22:26:58.129+07:00,3.965,96288,32439,0
1783265218129151600,2026-07-05T22:26:58.129+07:00,3.965,96304,32447,0
1783265218129151600,2026-07-05T22:26:58.129+07:00,3.965,96256,32417,0
1783265218129151600,2026-07-05T22:26:58.129+07:00,3.965,96353,32483,0
1783265218129151600,2026-07-05T22:26:58.129+07:00,3.965,96433,32623,0
1783265218129151600,2026-07-05T22:26:58.129+07:00,3.965,96482,32601,0
1783265218129151600,2026-07-05T22:26:58.129+07:00,3.965,96579,32601,0
1783265218129151600,2026-07-05T22:26:58.129+07:00,3.965,96514,32586,0
1783265218129151600,2026-07-05T22:26:58.129+07:00,3.965,96482,32593,0
1783265218129151600,2026-07-05T22:26:58.129+07:00,3.965,96547,32616,0
1783265218174022400,2026-07-05T22:26:58.174+07:00,4.010,96498,32542,0
1783265218174022400,2026-07-05T22:26:58.174+07:00,4.010,96563,32623,0
1783265218174022400,2026-07-05T22:26:58.174+07:00,4.010,96628,32764,0
1783265218174022400,2026-07-05T22:26:58.174+07:00,4.010,96725,32749,0
1783265218174022400,2026-07-05T22:26:58.174+07:00,4.010,96855,32734,0
1783265218174022400,2026-07-05T22:26:58.174+07:00,4.010,96774,32749,0
1783265218174022400,2026-07-05T22:26:58.174+07:00,4.010,96774,32742,0
1783265218174022400,2026-07-05T22:26:58.174+07:00,4.010,96806,32779,0
1783265218174022400,2026-07-05T22:26:58.174+07:00,4.010,96725,32734,0
1783265218174022400,2026-07-05T22:26:58.174+07:00,4.010,96839,32831,0
1783265218174022400,2026-07-05T22:26:58.174+07:00,4.010,96937,32944,0
1783265218174022400,2026-07-05T22:26:58.174+07:00,4.010,97035,32951,0
1783265218174022400,2026-07-05T22:26:58.174+07:00,4.010,97133,32921,0
1783265218174022400,2026-07-05T22:26:58.174+07:00,4.010,97051,32959,0
1783265218174022400,2026-07-05T22:26:58.174+07:00,4.010,97084,32967,0
1783265218174022400,2026-07-05T22:26:58.174+07:00,4.010,97116,32951,0
1783265218174022400,2026-07-05T22:26:58.174+07:00,4.010,97051,32936,0
1783265218210293900,2026-07-05T22:26:58.210+07:00,4.046,97165,33027,0
1783265218210293900,2026-07-05T22:26:58.210+07:00,4.046,97248,33141,0
1783265218210293900,2026-07-05T22:26:58.210+07:00,4.046,97346,33141,0
1783265218210293900,2026-07-05T22:26:58.210+07:00,4.046,97428,33103,0
1783265218210293900,2026-07-05T22:26:58.210+07:00,4.046,97363,33141,0
1783265218210293900,2026-07-05T22:26:58.210+07:00,4.046,97346,33095,0
1783265218210293900,2026-07-05T22:26:58.210+07:00,4.046,97313,33095,0
1783265218210293900,2026-07-05T22:26:58.210+07:00,4.046,97248,33065,0
1783265218210293900,2026-07-05T22:26:58.210+07:00,4.046,97313,33080,0
1783265218210293900,2026-07-05T22:26:58.210+07:00,4.046,97379,33217,0
1783265218210293900,2026-07-05T22:26:58.210+07:00,4.046,97412,33172,0
1783265218210293900,2026-07-05T22:26:58.210+07:00,4.046,97461,33133,0
1783265218210293900,2026-07-05T22:26:58.210+07:00,4.046,97379,33133,0
1783265218210293900,2026-07-05T22:26:58.210+07:00,4.046,97346,33073,0
1783265218210293900,2026-07-05T22:26:58.210+07:00,4.046,97330,33126,0
1783265218254524900,2026-07-05T22:26:58.254+07:00,4.091,97231,33035,0
1783265218254524900,2026-07-05T22:26:58.254+07:00,4.091,97248,33065,0
1783265218254524900,2026-07-05T22:26:58.254+07:00,4.091,97313,33164,0
1783265218254524900,2026-07-05T22:26:58.254+07:00,4.091,97346,33126,0
1783265218254524900,2026-07-05T22:26:58.254+07:00,4.091,97363,33095,0
1783265218254524900,2026-07-05T22:26:58.254+07:00,4.091,97198,33080,0
1783265218254524900,2026-07-05T22:26:58.254+07:00,4.091,97231,33042,0
1783265218254524900,2026-07-05T22:26:58.254+07:00,4.091,97149,33027,0
1783265218254524900,2026-07-05T22:26:58.254+07:00,4.091,97051,32929,0
1783265218254524900,2026-07-05T22:26:58.254+07:00,4.091,97100,32989,0
1783265218254524900,2026-07-05T22:26:58.254+07:00,4.091,97133,33057,0
1783265218254524900,2026-07-05T22:26:58.254+07:00,4.091,97198,33019,0
1783265218254524900,2026-07-05T22:26:58.254+07:00,4.091,97215,32989,0
1783265218254524900,2026-07-05T22:26:58.254+07:00,4.091,97067,32967,0
1783265218254524900,2026-07-05T22:26:58.254+07:00,4.091,97051,32929,0
1783265218254524900,2026-07-05T22:26:58.254+07:00,4.091,97035,32929,0
1783265218254524900,2026-07-05T22:26:58.254+07:00,4.091,96920,32861,0
1783265218291466100,2026-07-05T22:26:58.291+07:00,4.127,96953,32884,0
1783265218291466100,2026-07-05T22:26:58.291+07:00,4.127,97018,32959,0
1783265218291466100,2026-07-05T22:26:58.291+07:00,4.127,97116,33012,0
1783265218291466100,2026-07-05T22:26:58.291+07:00,4.127,97018,32899,0
1783265218291466100,2026-07-05T22:26:58.291+07:00,4.127,97002,32906,0
1783265218291466100,2026-07-05T22:26:58.291+07:00,4.127,97002,32891,0
1783265218291466100,2026-07-05T22:26:58.291+07:00,4.127,96969,32891,0
1783265218291466100,2026-07-05T22:26:58.291+07:00,4.127,96920,32809,0
1783265218291466100,2026-07-05T22:26:58.291+07:00,4.127,96969,32876,0
1783265218291466100,2026-07-05T22:26:58.291+07:00,4.127,97002,32914,0
1783265218291466100,2026-07-05T22:26:58.291+07:00,4.127,97051,32974,0
1783265218291466100,2026-07-05T22:26:58.291+07:00,4.127,97149,32929,0
1783265218291466100,2026-07-05T22:26:58.291+07:00,4.127,97067,32959,0
1783265218291466100,2026-07-05T22:26:58.291+07:00,4.127,97051,32936,0
1783265218291466100,2026-07-05T22:26:58.291+07:00,4.127,97051,32944,0
1783265218334065800,2026-07-05T22:26:58.334+07:00,4.170,97002,32876,0
1783265218334065800,2026-07-05T22:26:58.334+07:00,4.170,97035,32944,0
1783265218334065800,2026-07-05T22:26:58.334+07:00,4.170,97149,32997,0
1783265218334065800,2026-07-05T22:26:58.334+07:00,4.170,97215,33057,0
1783265218334065800,2026-07-05T22:26:58.334+07:00,4.170,97297,33004,0
1783265218334065800,2026-07-05T22:26:58.334+07:00,4.170,97198,33065,0
1783265218334065800,2026-07-05T22:26:58.334+07:00,4.170,97182,33050,0
1783265218334065800,2026-07-05T22:26:58.334+07:00,4.170,97231,33027,0
1783265218334065800,2026-07-05T22:26:58.334+07:00,4.170,97182,32982,0
1783265218334065800,2026-07-05T22:26:58.334+07:00,4.170,97248,33065,0
1783265218334065800,2026-07-05T22:26:58.334+07:00,4.170,97363,33126,0
1783265218334065800,2026-07-05T22:26:58.334+07:00,4.170,97461,33164,0
1783265218334065800,2026-07-05T22:26:58.334+07:00,4.170,97544,33179,0
1783265218334065800,2026-07-05T22:26:58.334+07:00,4.170,97461,33202,0
1783265218334065800,2026-07-05T22:26:58.334+07:00,4.170,97478,33195,0
1783265218334065800,2026-07-05T22:26:58.334+07:00,4.170,97494,33172,0
1783265218334065800,2026-07-05T22:26:58.334+07:00,4.170,97461,33172,0
1783265218377538500,2026-07-05T22:26:58.377+07:00,4.214,97544,33248,0
1783265218377538500,2026-07-05T22:26:58.377+07:00,4.214,97627,33310,0
1783265218377538500,2026-07-05T22:26:58.377+07:00,4.214,97726,33379,0
1783265218377538500,2026-07-05T22:26:58.377+07:00,4.214,97809,33356,0
1783265218377538500,2026-07-05T22:26:58.377+07:00,4.214,97759,33387,0
1783265218377538500,2026-07-05T22:26:58.377+07:00,4.214,97809,33410,0
1783265218377538500,2026-07-05T22:26:58.377+07:00,4.214,97792,33379,0
1783265218377538500,2026-07-05T22:26:58.377+07:00,4.214,97776,33371,0
1783265218377538500,2026-07-05T22:26:58.377+07:00,4.214,97875,33426,0
1783265218377538500,2026-07-05T22:26:58.377+07:00,4.214,97925,33488,0
1783265218377538500,2026-07-05T22:26:58.377+07:00,4.214,98059,33542,0
1783265218377538500,2026-07-05T22:26:58.377+07:00,4.214,98126,33558,0
1783265218377538500,2026-07-05T22:26:58.377+07:00,4.214,98075,33574,0
1783265218377538500,2026-07-05T22:26:58.377+07:00,4.214,98059,33589,0
1783265218377538500,2026-07-05T22:26:58.377+07:00,4.214,98142,33582,0
1783265218377538500,2026-07-05T22:26:58.377+07:00,4.214,98126,33574,0
1783265218377538500,2026-07-05T22:26:58.377+07:00,4.214,98159,33629,0
1783265218377538500,2026-07-05T22:26:58.377+07:00,4.214,98276,33707,0
1783265218413843700,2026-07-05T22:26:58.413+07:00,4.250,98394,33747,0
1783265218413843700,2026-07-05T22:26:58.413+07:00,4.250,98478,33794,0
1783265218413843700,2026-07-05T22:26:58.413+07:00,4.250,98394,33723,0
1783265218413843700,2026-07-05T22:26:58.413+07:00,4.250,98427,33771,0
1783265218413843700,2026-07-05T22:26:58.413+07:00,4.250,98411,33771,0
1783265218413843700,2026-07-05T22:26:58.413+07:00,4.250,98411,33731,0
1783265218413843700,2026-07-05T22:26:58.413+07:00,4.250,98478,33826,0
1783265218413843700,2026-07-05T22:26:58.413+07:00,4.250,98528,33858,0
1783265218413843700,2026-07-05T22:26:58.413+07:00,4.250,98663,33898,0
1783265218413843700,2026-07-05T22:26:58.413+07:00,4.250,98731,33978,0
1783265218413843700,2026-07-05T22:26:58.413+07:00,4.250,98680,33906,0
1783265218413843700,2026-07-05T22:26:58.413+07:00,4.250,98680,33946,0
1783265218413843700,2026-07-05T22:26:58.413+07:00,4.250,98714,33962,0
1783265218413843700,2026-07-05T22:26:58.413+07:00,4.250,98697,33898,0
1783265218413843700,2026-07-05T22:26:58.413+07:00,4.250,98731,33994,0
1783265218458075000,2026-07-05T22:26:58.458+07:00,4.294,98833,34010,0
1783265218458075000,2026-07-05T22:26:58.458+07:00,4.294,98935,34074,0
1783265218458075000,2026-07-05T22:26:58.458+07:00,4.294,98969,34098,0
1783265218458075000,2026-07-05T22:26:58.458+07:00,4.294,98901,34058,0
1783265218458075000,2026-07-05T22:26:58.458+07:00,4.294,98901,34058,0
1783265218458075000,2026-07-05T22:26:58.458+07:00,4.294,98918,34098,0
1783265218458075000,2026-07-05T22:26:58.458+07:00,4.294,98935,34042,0
1783265218458075000,2026-07-05T22:26:58.458+07:00,4.294,98969,34131,0
1783265218458075000,2026-07-05T22:26:58.458+07:00,4.294,99003,34115,0
1783265218458075000,2026-07-05T22:26:58.458+07:00,4.294,99139,34261,0
1783265218458075000,2026-07-05T22:26:58.458+07:00,4.294,99207,34318,0
1783265218458075000,2026-07-05T22:26:58.458+07:00,4.294,99071,34163,0
1783265218458075000,2026-07-05T22:26:58.458+07:00,4.294,99088,34171,0
1783265218458075000,2026-07-05T22:26:58.458+07:00,4.294,99105,34171,0
1783265218458075000,2026-07-05T22:26:58.458+07:00,4.294,99088,34115,0
1783265218458075000,2026-07-05T22:26:58.458+07:00,4.294,99139,34269,0
1783265218458075000,2026-07-05T22:26:58.458+07:00,4.294,99224,34261,0
