host_timestamp_ns,host_timestamp_iso,elapsed_s,red,infrared,background
1783266266449042300,2026-07-05T22:44:26.449+07:00,0.085,662309,682975,0
1783266266449042301,2026-07-05T22:44:26.449+07:00,0.085,1150274,1150274,0
1783266266449042302,2026-07-05T22:44:26.449+07:00,0.085,1150561,1150274,0
1783266266449042303,2026-07-05T22:44:26.449+07:00,0.085,1150561,1150561,0
1783266266449042304,2026-07-05T22:44:26.449+07:00,0.085,1150274,1150561,0
1783266266449042305,2026-07-05T22:44:26.449+07:00,0.085,1149700,1150274,0
1783266266449042306,2026-07-05T22:44:26.449+07:00,0.085,1149987,1150274,0
1783266266449042307,2026-07-05T22:44:26.449+07:00,0.085,1150274,1150274,0
1783266266449042308,2026-07-05T22:44:26.449+07:00,0.085,1149987,1150274,0
1783266266449042309,2026-07-05T22:44:26.449+07:00,0.085,1149987,1150274,0
1783266266449042310,2026-07-05T22:44:26.449+07:00,0.085,1149987,1150561,0
1783266266449042311,2026-07-05T22:44:26.449+07:00,0.085,1150274,1150274,0
1783266266449042312,2026-07-05T22:44:26.449+07:00,0.085,1150561,1150274,0
1783266266449042313,2026-07-05T22:44:26.449+07:00,0.085,1150274,1150561,0
1783266266449042314,2026-07-05T22:44:26.449+07:00,0.085,1150274,1150561,0
1783266266449042315,2026-07-05T22:44:26.449+07:00,0.085,1150561,1150274,0
1783266266449042316,2026-07-05T22:44:26.449+07:00,0.085,1150561,1150561,0
1783266266487431317,2026-07-05T22:44:26.487+07:00,0.123,1150274,1150274,0
1783266266487431318,2026-07-05T22:44:26.487+07:00,0.123,1149987,1150274,0
1783266266487431319,2026-07-05T22:44:26.487+07:00,0.123,1150274,1150274,0
1783266266487431320,2026-07-05T22:44:26.487+07:00,0.123,1150274,1150561,0
1783266266487431321,2026-07-05T22:44:26.487+07:00,0.123,1150274,1150274,0
1783266266487431322,2026-07-05T22:44:26.487+07:00,0.123,1150274,1150274,0
1783266266487431323,2026-07-05T22:44:26.487+07:00,0.123,1150561,1149987,0
1783266266487431324,2026-07-05T22:44:26.487+07:00,0.123,1150274,1150561,0
1783266266487431325,2026-07-05T22:44:26.487+07:00,0.123,1149987,1149987,0
1783266266487431326,2026-07-05T22:44:26.487+07:00,0.123,1150274,1150274,0
1783266266487431327,2026-07-05T22:44:26.487+07:00,0.123,1149987,1150274,0
1783266266487431328,2026-07-05T22:44:26.487+07:00,0.123,1150274,1150274,0
1783266266487431329,2026-07-05T22:44:26.487+07:00,0.123,1149987,1150561,0
1783266266487431330,2026-07-05T22:44:26.487+07:00,0.123,1150274,1150561,0
1783266266487431331,2026-07-05T22:44:26.487+07:00,0.123,1150274,1150274,0
1783266266487431332,2026-07-05T22:44:26.487+07:00,0.123,1150274,1150274,0
1783266266487431333,2026-07-05T22:44:26.487+07:00,0.123,1150274,1150561,0
1783266266529262034,2026-07-05T22:44:26.529+07:00,0.165,1150274,1150274,0
1783266266529262035,2026-07-05T22:44:26.529+07:00,0.165,1150274,1150274,0
1783266266529262036,2026-07-05T22:44:26.529+07:00,0.165,1150561,1150274,0
1783266266529262037,2026-07-05T22:44:26.529+07:00,0.165,1150274,1149987,0
1783266266529262038,2026-07-05T22:44:26.529+07:00,0.165,1150274,1150274,0
1783266266529262039,2026-07-05T22:44:26.529+07:00,0.165,1150274,1150274,0
1783266266529262040,2026-07-05T22:44:26.529+07:00,0.165,1149987,1150274,0
1783266266529262041,2026-07-05T22:44:26.529+07:00,0.165,1150274,1150561,0
1783266266529262042,2026-07-05T22:44:26.529+07:00,0.165,1150274,1150274,0
1783266266529262043,2026-07-05T22:44:26.529+07:00,0.165,1150274,1150274,0
1783266266529262044,2026-07-05T22:44:26.529+07:00,0.165,1150274,1150274,0
1783266266529262045,2026-07-05T22:44:26.529+07:00,0.165,1150274,1150274,0
1783266266529262046,2026-07-05T22:44:26.529+07:00,0.165,1150561,1150274,0
1783266266529262047,2026-07-05T22:44:26.529+07:00,0.165,1150561,1150274,0
1783266266529262048,2026-07-05T22:44:26.529+07:00,0.165,1150561,1150561,0
1783266266529262049,2026-07-05T22:44:26.529+07:00,0.165,1150274,1150561,0
1783266266529262050,2026-07-05T22:44:26.529+07:00,0.165,1150561,1149987,0
1783266266572001251,2026-07-05T22:44:26.572+07:00,0.208,1150274,1150274,0
1783266266572001252,2026-07-05T22:44:26.572+07:00,0.208,1150274,1149987,0
1783266266572001253,2026-07-05T22:44:26.572+07:00,0.208,1150274,1150274,0
1783266266572001254,2026-07-05T22:44:26.572+07:00,0.208,1149987,1150561,0
1783266266572001255,2026-07-05T22:44:26.572+07:00,0.208,1150561,1150561,0
1783266266572001256,2026-07-05T22:44:26.572+07:00,0.208,1150274,1149987,0
1783266266572001257,2026-07-05T22:44:26.572+07:00,0.208,1149987,1150274,0
1783266266572001258,2026-07-05T22:44:26.572+07:00,0.208,1150274,1150274,0
1783266266572001259,2026-07-05T22:44:26.572+07:00,0.208,1150274,1150274,0
1783266266572001260,2026-07-05T22:44:26.572+07:00,0.208,1149987,1149987,0
1783266266572001261,2026-07-05T22:44:26.572+07:00,0.208,1149987,1149987,0
1783266266572001262,2026-07-05T22:44:26.572+07:00,0.208,1149987,1150274,0
1783266266572001263,2026-07-05T22:44:26.572+07:00,0.208,1150274,1150274,0
1783266266572001264,2026-07-05T22:44:26.572+07:00,0.208,1150274,1150274,0
1783266266572001265,2026-07-05T22:44:26.572+07:00,0.208,1149987,1149987,0
1783266266572001266,2026-07-05T22:44:26.572+07:00,0.208,1150274,1150274,0
1783266266572001267,2026-07-05T22:44:26.572+07:00,0.208,1150274,1150274,0
1783266266608939668,2026-07-05T22:44:26.608+07:00,0.245,1150274,1149987,0
1783266266608939669,2026-07-05T22:44:26.608+07:00,0.245,1150274,1150561,0
1783266266608939670,2026-07-05T22:44:26.608+07:00,0.245,1150561,1150274,0
1783266266608939671,2026-07-05T22:44:26.608+07:00,0.245,1149987,1150274,0
1783266266608939672,2026-07-05T22:44:26.608+07:00,0.245,1150274,1149987,0
1783266266608939673,2026-07-05T22:44:26.608+07:00,0.245,1149987,1150274,0
1783266266608939674,2026-07-05T22:44:26.608+07:00,0.245,1149987,1149987,0
1783266266608939675,2026-07-05T22:44:26.608+07:00,0.245,1149987,1149987,0
1783266266608939676,2026-07-05T22:44:26.608+07:00,0.245,1149987,1150274,0
1783266266608939677,2026-07-05T22:44:26.608+07:00,0.245,1149987,1149987,0
1783266266608939678,2026-07-05T22:44:26.608+07:00,0.245,1149987,1150274,0
1783266266608939679,2026-07-05T22:44:26.608+07:00,0.245,1149987,1149987,0
1783266266608939680,2026-07-05T22:44:26.608+07:00,0.245,1149987,1149987,0
1783266266608939681,2026-07-05T22:44:26.608+07:00,0.245,1149987,1149987,0
1783266266608939682,2026-07-05T22:44:26.608+07:00,0.245,1149987,1149987,0
1783266266650738483,2026-07-05T22:44:26.650+07:00,0.286,1149987,1149987,0
1783266266650738484,2026-07-05T22:44:26.650+07:00,0.286,1150274,1149987,0
1783266266650738485,2026-07-05T22:44:26.650+07:00,0.286,1149987,1150274,0
1783266266650738486,2026-07-05T22:44:26.650+07:00,0.286,1150274,1150274,0
1783266266650738487,2026-07-05T22:44:26.650+07:00,0.286,1149987,1150274,0
1783266266650738488,2026-07-05T22:44:26.650+07:00,0.286,1149987,1150274,0
1783266266650738489,2026-07-05T22:44:26.650+07:00,0.286,1149987,1149987,0
1783266266650738490,2026-07-05T22:44:26.650+07:00,0.286,1150274,1150274,0
1783266266650738491,2026-07-05T22:44:26.650+07:00,0.286,1149987,1150274,0
1783266266650738492,2026-07-05T22:44:26.650+07:00,0.286,1150274,1149987,0
1783266266650738493,2026-07-05T22:44:26.650+07:00,0.286,1150274,1149987,0
1783266266650738494,2026-07-05T22:44:26.650+07:00,0.286,1150274,1149987,0
1783266266650738495,2026-07-05T22:44:26.650+07:00,0.286,1150274,1150561,0
1783266266650738496,2026-07-05T22:44:26.650+07:00,0.286,1150274,1149987,0
1783266266650738497,2026-07-05T22:44:26.650+07:00,0.286,1150274,1150274,0
1783266266650738498,2026-07-05T22:44:26.650+07:00,0.286,1149987,1149987,0
1783266266650738499,2026-07-05T22:44:26.650+07:00,0.286,1149987,1150274,0
1783266266695147800,2026-07-05T22:44:26.695+07:00,0.331,1150274,1150561,0
1783266266695147801,2026-07-05T22:44:26.695+07:00,0.331,1149987,1150274,0
1783266266695147802,2026-07-05T22:44:26.695+07:00,0.331,1149987,1150274,0
1783266266695147803,2026-07-05T22:44:26.695+07:00,0.331,1150274,1149987,0
1783266266695147804,2026-07-05T22:44:26.695+07:00,0.331,1149987,1149987,0
1783266266695147805,2026-07-05T22:44:26.695+07:00,0.331,1150274,1150274,0
1783266266695147806,2026-07-05T22:44:26.695+07:00,0.331,1150274,1150274,0
1783266266695147807,2026-07-05T22:44:26.695+07:00,0.331,1149987,1150274,0
1783266266695147808,2026-07-05T22:44:26.695+07:00,0.331,1149987,1150274,0
1783266266695147809,2026-07-05T22:44:26.695+07:00,0.331,1150274,1150274,0
1783266266695147810,2026-07-05T22:44:26.695+07:00,0.331,1149987,1078382,0
1783266266695147811,2026-07-05T22:44:26.695+07:00,0.331,1149987,1150274,0
1783266266695147812,2026-07-05T22:44:26.695+07:00,0.331,1150274,1150274,0
1783266266695147813,2026-07-05T22:44:26.695+07:00,0.331,1150274,1150274,0
1783266266695147814,2026-07-05T22:44:26.695+07:00,0.331,1150274,1150561,0
1783266266695147815,2026-07-05T22:44:26.695+07:00,0.331,1149987,1149987,0
1783266266695147816,2026-07-05T22:44:26.695+07:00,0.331,1150274,1150274,0
1783266266728946117,2026-07-05T22:44:26.728+07:00,0.365,1150274,1150274,0
1783266266728946118,2026-07-05T22:44:26.728+07:00,0.365,1150274,1150274,0
1783266266728946119,2026-07-05T22:44:26.728+07:00,0.365,1150274,1150274,0
1783266266728946120,2026-07-05T22:44:26.728+07:00,0.365,1149987,1150274,0
1783266266728946121,2026-07-05T22:44:26.728+07:00,0.365,1150561,1150274,0
1783266266728946122,2026-07-05T22:44:26.728+07:00,0.365,1149987,1150561,0
1783266266728946123,2026-07-05T22:44:26.728+07:00,0.365,1149987,1150274,0
1783266266728946124,2026-07-05T22:44:26.728+07:00,0.365,1150274,1150274,0
1783266266728946125,2026-07-05T22:44:26.728+07:00,0.365,1149987,1149987,0
1783266266728946126,2026-07-05T22:44:26.728+07:00,0.365,1149987,1150274,0
1783266266728946127,2026-07-05T22:44:26.728+07:00,0.365,1149987,1150274,0
1783266266728946128,2026-07-05T22:44:26.728+07:00,0.365,1149987,1150274,0
1783266266728946129,2026-07-05T22:44:26.728+07:00,0.365,1149987,1150274,0
1783266266728946130,2026-07-05T22:44:26.728+07:00,0.365,1149987,1149987,0
1783266266728946131,2026-07-05T22:44:26.728+07:00,0.365,1149987,1150274,0
1783266266728946132,2026-07-05T22:44:26.728+07:00,0.365,1150274,1150274,0
1783266266728946133,2026-07-05T22:44:26.728+07:00,0.365,1149987,1150274,0
1783266266780733734,2026-07-05T22:44:26.780+07:00,0.416,1149987,1150274,0
1783266266780733735,2026-07-05T22:44:26.780+07:00,0.416,1149987,1150274,0
1783266266780733736,2026-07-05T22:44:26.780+07:00,0.416,1149987,1150274,0
1783266266780733737,2026-07-05T22:44:26.780+07:00,0.416,1150274,1150561,0
1783266266780733738,2026-07-05T22:44:26.780+07:00,0.416,1150274,1150274,0
1783266266780733739,2026-07-05T22:44:26.780+07:00,0.416,1150274,1150274,0
1783266266780733740,2026-07-05T22:44:26.780+07:00,0.416,1150274,1150561,0
1783266266780733741,2026-07-05T22:44:26.780+07:00,0.416,1150274,1149987,0
1783266266780733742,2026-07-05T22:44:26.780+07:00,0.416,1150274,1150274,0
1783266266780733743,2026-07-05T22:44:26.780+07:00,0.416,1149987,1150274,0
1783266266780733744,2026-07-05T22:44:26.780+07:00,0.416,1150274,1150274,0
1783266266780733745,2026-07-05T22:44:26.780+07:00,0.416,1150274,1150274,0
1783266266780733746,2026-07-05T22:44:26.780+07:00,0.416,1150274,1150274,0
1783266266780733747,2026-07-05T22:44:26.780+07:00,0.416,1149987,1150274,0
1783266266780733748,2026-07-05T22:44:26.780+07:00,0.416,1149987,1078651,0
1783266266780733749,2026-07-05T22:44:26.780+07:00,0.416,1149987,1150274,0
1783266266780733750,2026-07-05T22:44:26.780+07:00,0.416,1150274,1078113,0
1783266266818831751,2026-07-05T22:44:26.818+07:00,0.455,1150274,1150274,0
1783266266818831752,2026-07-05T22:44:26.818+07:00,0.455,1149987,1078382,0
1783266266818831753,2026-07-05T22:44:26.818+07:00,0.455,1150274,1149987,0
1783266266818831754,2026-07-05T22:44:26.818+07:00,0.455,1149987,1078382,0
1783266266818831755,2026-07-05T22:44:26.818+07:00,0.455,1149987,1150274,0
1783266266818831756,2026-07-05T22:44:26.818+07:00,0.455,1150274,1078651,0
1783266266818831757,2026-07-05T22:44:26.818+07:00,0.455,1149987,1149987,0
1783266266818831758,2026-07-05T22:44:26.818+07:00,0.455,1150274,1078651,0
1783266266818831759,2026-07-05T22:44:26.818+07:00,0.455,1149987,1150274,0
1783266266818831760,2026-07-05T22:44:26.818+07:00,0.455,1150274,1150274,0
1783266266818831761,2026-07-05T22:44:26.818+07:00,0.455,1150274,1150274,0
1783266266818831762,2026-07-05T22:44:26.818+07:00,0.455,1150274,1149127,0
1783266266818831763,2026-07-05T22:44:26.818+07:00,0.455,1149987,1101075,0
1783266266818831764,2026-07-05T22:44:26.818+07:00,0.455,1150274,1044234,0
1783266266818831765,2026-07-05T22:44:26.818+07:00,0.455,1150274,993103,0
1783266266818831766,2026-07-05T22:44:26.818+07:00,0.455,1150274,945147,0
1783266266862858667,2026-07-05T22:44:26.862+07:00,0.499,1150274,897196,0
1783266266862858668,2026-07-05T22:44:26.862+07:00,0.499,1150274,856081,0
1783266266862858669,2026-07-05T22:44:26.862+07:00,0.499,1149987,815286,0
1783266266862858670,2026-07-05T22:44:26.862+07:00,0.499,1149987,777805,0
1783266266862858671,2026-07-05T22:44:26.862+07:00,0.499,1149987,739841,0
1783266266862858672,2026-07-05T22:44:26.862+07:00,0.499,1150274,710409,0
1783266266862858673,2026-07-05T22:44:26.862+07:00,0.499,1150274,681495,0
1783266266862858674,2026-07-05T22:44:26.862+07:00,0.499,1149987,654992,877
1783266266862858675,2026-07-05T22:44:26.862+07:00,0.499,1149987,628820,0
1783266266862858676,2026-07-05T22:44:26.862+07:00,0.499,1150274,606741,0
1783266266862858677,2026-07-05T22:44:26.862+07:00,0.499,1150561,586823,0
1783266266862858678,2026-07-05T22:44:26.862+07:00,0.499,1150274,569451,0
1783266266862858679,2026-07-05T22:44:26.862+07:00,0.499,1150274,552120,0
1783266266862858680,2026-07-05T22:44:26.862+07:00,0.499,1146839,538192,0
1783266266862858681,2026-07-05T22:44:26.862+07:00,0.499,1123628,528198,0
1783266266862858682,2026-07-05T22:44:26.862+07:00,0.499,1107426,521149,0
1783266266862858683,2026-07-05T22:44:26.862+07:00,0.499,1095057,514170,0
1783266266902166984,2026-07-05T22:44:26.902+07:00,0.538,1084745,509960,0
1783266266902166985,2026-07-05T22:44:26.902+07:00,0.538,1078113,506930,0
1783266266902166986,2026-07-05T22:44:26.902+07:00,0.538,1075697,505928,0
1783266266902166987,2026-07-05T22:44:26.902+07:00,0.538,1075965,506484,0
1783266266902166988,2026-07-05T22:44:26.902+07:00,0.538,1078382,507488,0
1783266266902166989,2026-07-05T22:44:26.902+07:00,0.538,1022129,510186,0
1783266266902166990,2026-07-05T22:44:26.902+07:00,0.538,1088589,512569,0
1783266266902166991,2026-07-05T22:44:26.902+07:00,0.538,1096881,516476,0
1783266266902166992,2026-07-05T22:44:26.902+07:00,0.538,1106894,520207,0
1783266266902166993,2026-07-05T22:44:26.902+07:00,0.538,1119805,528804,0
1783266266902166994,2026-07-05T22:44:26.902+07:00,0.538,1134975,536063,0
1783266266902166995,2026-07-05T22:44:26.902+07:00,0.538,1149987,544809,0
1783266266902166996,2026-07-05T22:44:26.902+07:00,0.538,1150274,554379,0
1783266266902166997,2026-07-05T22:44:26.902+07:00,0.538,1150274,563876,0
1783266266902166998,2026-07-05T22:44:26.902+07:00,0.538,0,0,0
1783266266902166999,2026-07-05T22:44:26.902+07:00,0.538,0,0,0
1783266266902167000,2026-07-05T22:44:26.902+07:00,0.538,0,0,0
1783266266947981601,2026-07-05T22:44:26.947+07:00,0.584,0,0,0
1783266266947981602,2026-07-05T22:44:26.947+07:00,0.584,0,0,0
1783266266947981603,2026-07-05T22:44:26.947+07:00,0.584,0,0,0
1783266266947981604,2026-07-05T22:44:26.947+07:00,0.584,0,0,0
1783266266947981605,2026-07-05T22:44:26.947+07:00,0.584,0,0,0
1783266266947981606,2026-07-05T22:44:26.947+07:00,0.584,0,0,0
1783266266947981607,2026-07-05T22:44:26.947+07:00,0.584,0,0,0
1783266266947981608,2026-07-05T22:44:26.947+07:00,0.584,0,0,0
1783266266947981609,2026-07-05T22:44:26.947+07:00,0.584,0,0,0
1783266266947981610,2026-07-05T22:44:26.947+07:00,0.584,0,0,0
1783266266947981611,2026-07-05T22:44:26.947+07:00,0.584,0,0,0
1783266266947981612,2026-07-05T22:44:26.947+07:00,0.584,0,0,0
1783266266947981613,2026-07-05T22:44:26.947+07:00,0.584,0,0,0
1783266266947981614,2026-07-05T22:44:26.947+07:00,0.584,0,0,0
1783266266947981615,2026-07-05T22:44:26.947+07:00,0.584,0,0,0
1783266266947981616,2026-07-05T22:44:26.947+07:00,0.584,0,0,0
1783266266947981617,2026-07-05T22:44:26.947+07:00,0.584,0,0,0
1783266266989471018,2026-07-05T22:44:26.989+07:00,0.625,0,0,0
1783266266989471019,2026-07-05T22:44:26.989+07:00,0.625,0,0,0
1783266266989471020,2026-07-05T22:44:26.989+07:00,0.625,0,0,0
1783266266989471021,2026-07-05T22:44:26.989+07:00,0.625,0,0,0
1783266266989471022,2026-07-05T22:44:26.989+07:00,0.625,0,0,0
1783266266989471023,2026-07-05T22:44:26.989+07:00,0.625,0,0,0
1783266266989471024,2026-07-05T22:44:26.989+07:00,0.625,0,0,0
1783266266989471025,2026-07-05T22:44:26.989+07:00,0.625,0,0,0
1783266266989471026,2026-07-05T22:44:26.989+07:00,0.625,0,0,0
1783266266989471027,2026-07-05T22:44:26.989+07:00,0.625,0,0,0
1783266266989471028,2026-07-05T22:44:26.989+07:00,0.625,0,0,0
1783266266989471029,2026-07-05T22:44:26.989+07:00,0.625,0,0,0
1783266266989471030,2026-07-05T22:44:26.989+07:00,0.625,0,0,0
1783266266989471031,2026-07-05T22:44:26.989+07:00,0.625,0,0,0
1783266266989471032,2026-07-05T22:44:26.989+07:00,0.625,0,0,0
1783266266989471033,2026-07-05T22:44:26.989+07:00,0.625,0,0,0
1783266266989471034,2026-07-05T22:44:26.989+07:00,0.625,0,0,0
1783266267026513435,2026-07-05T22:44:27.026+07:00,0.662,0,0,0
1783266267026513436,2026-07-05T22:44:27.026+07:00,0.662,0,0,0
1783266267026513437,2026-07-05T22:44:27.026+07:00,0.662,0,0,0
1783266267026513438,2026-07-05T22:44:27.026+07:00,0.662,39361,16639,0
1783266267026513439,2026-07-05T22:44:27.026+07:00,0.662,39045,16337,0
1783266267026513440,2026-07-05T22:44:27.026+07:00,0.662,39010,16933,0
1783266267026513441,2026-07-05T22:44:27.026+07:00,0.662,39045,17029,0
1783266267026513442,2026-07-05T22:44:27.026+07:00,0.662,39229,17187,0
1783266267026513443,2026-07-05T22:44:27.026+07:00,0.662,39749,17475,0
1783266267026513444,2026-07-05T22:44:27.026+07:00,0.662,40290,17755,0
1783266267026513445,2026-07-05T22:44:27.026+07:00,0.662,40901,18039,0
1783266267026513446,2026-07-05T22:44:27.026+07:00,0.662,41426,18230,0
1783266267026513447,2026-07-05T22:44:27.026+07:00,0.662,41945,18436,0
1783266267026513448,2026-07-05T22:44:27.026+07:00,0.662,42440,18617,0
1783266267026513449,2026-07-05T22:44:27.026+07:00,0.662,42985,18871,0
1783266267069034050,2026-07-05T22:44:27.069+07:00,0.705,43458,19040,0
1783266267069034051,2026-07-05T22:44:27.069+07:00,0.705,44077,19320,0
1783266267069034052,2026-07-05T22:44:27.069+07:00,0.705,44651,19597,0
1783266267069034053,2026-07-05T22:44:27.069+07:00,0.705,45211,19776,0
1783266267069034054,2026-07-05T22:44:27.069+07:00,0.705,45728,19970,0
1783266267069034055,2026-07-05T22:44:27.069+07:00,0.705,46317,20198,0
1783266267069034056,2026-07-05T22:44:27.069+07:00,0.705,46875,20404,0
1783266267069034057,2026-07-05T22:44:27.069+07:00,0.705,47446,20722,0
1783266267069034058,2026-07-05T22:44:27.069+07:00,0.705,47960,20884,0
1783266267069034059,2026-07-05T22:44:27.069+07:00,0.705,48542,21139,0
1783266267069034060,2026-07-05T22:44:27.069+07:00,0.705,49121,21393,0
1783266267069034061,2026-07-05T22:44:27.069+07:00,0.705,49706,21585,0
1783266267069034062,2026-07-05T22:44:27.069+07:00,0.705,50270,21801,0
1783266267069034063,2026-07-05T22:44:27.069+07:00,0.705,50811,22014,0
1783266267069034064,2026-07-05T22:44:27.069+07:00,0.705,51364,22235,0
1783266267069034065,2026-07-05T22:44:27.069+07:00,0.705,51901,22436,0
1783266267069034066,2026-07-05T22:44:27.069+07:00,0.705,52411,22627,0
1783266267108741067,2026-07-05T22:44:27.108+07:00,0.744,52970,22900,0
1783266267108741068,2026-07-05T22:44:27.108+07:00,0.744,53462,23177,0
1783266267108741069,2026-07-05T22:44:27.108+07:00,0.744,53851,23346,0
1783266267108741070,2026-07-05T22:44:27.108+07:00,0.744,54176,23533,0
1783266267108741071,2026-07-05T22:44:27.108+07:00,0.744,54473,23699,0
1783266267108741072,2026-07-05T22:44:27.108+07:00,0.744,54773,23848,0
1783266267108741073,2026-07-05T22:44:27.108+07:00,0.744,55045,24008,0
1783266267108741074,2026-07-05T22:44:27.108+07:00,0.744,55267,24120,0
1783266267108741075,2026-07-05T22:44:27.108+07:00,0.744,55544,24312,0
1783266267108741076,2026-07-05T22:44:27.108+07:00,0.744,55781,24489,0
1783266267108741077,2026-07-05T22:44:27.108+07:00,0.744,55987,24585,0
1783266267108741078,2026-07-05T22:44:27.108+07:00,0.744,56085,24670,0
1783266267108741079,2026-07-05T22:44:27.108+07:00,0.744,56206,24695,0
1783266267108741080,2026-07-05T22:44:27.108+07:00,0.744,56304,24746,0
1783266267108741081,2026-07-05T22:44:27.108+07:00,0.744,56360,24772,0
1783266267108741082,2026-07-05T22:44:27.108+07:00,0.744,56349,24750,0
1783266267149303283,2026-07-05T22:44:27.149+07:00,0.785,56360,24789,0
1783266267149303284,2026-07-05T22:44:27.149+07:00,0.785,56371,24831,0
1783266267149303285,2026-07-05T22:44:27.149+07:00,0.785,56404,24784,0
1783266267149303286,2026-07-05T22:44:27.149+07:00,0.785,56327,24733,0
1783266267149303287,2026-07-05T22:44:27.149+07:00,0.785,56282,24636,0
1783266267149303288,2026-07-05T22:44:27.149+07:00,0.785,56173,24552,0
1783266267149303289,2026-07-05T22:44:27.149+07:00,0.785,56074,24410,0
1783266267149303290,2026-07-05T22:44:27.149+07:00,0.785,55868,24238,0
1783266267149303291,2026-07-05T22:44:27.149+07:00,0.785,55684,24124,0
1783266267149303292,2026-07-05T22:44:27.149+07:00,0.785,55544,23988,0
1783266267149303293,2026-07-05T22:44:27.149+07:00,0.785,55278,23766,0
1783266267149303294,2026-07-05T22:44:27.149+07:00,0.785,55014,23517,0
1783266267149303295,2026-07-05T22:44:27.149+07:00,0.785,54700,23252,0
1783266267149303296,2026-07-05T22:44:27.149+07:00,0.785,54349,22970,0
1783266267149303297,2026-07-05T22:44:27.149+07:00,0.785,53962,22673,0
1783266267149303298,2026-07-05T22:44:27.149+07:00,0.785,53581,22356,0
1783266267149303299,2026-07-05T22:44:27.149+07:00,0.785,53215,22089,0
1783266267189864000,2026-07-05T22:44:27.189+07:00,0.826,52844,21831,0
1783266267189864001,2026-07-05T22:44:27.189+07:00,0.826,52382,21482,0
1783266267189864002,2026-07-05T22:44:27.189+07:00,0.826,51891,21136,0
1783266267189864003,2026-07-05T22:44:27.189+07:00,0.826,51428,20752,0
1783266267189864004,2026-07-05T22:44:27.189+07:00,0.826,50901,20422,0
1783266267189864005,2026-07-05T22:44:27.189+07:00,0.826,50367,20064,0
1783266267189864006,2026-07-05T22:44:27.189+07:00,0.826,49749,19696,0
1783266267189864007,2026-07-05T22:44:27.189+07:00,0.826,49222,19399,0
1783266267189864008,2026-07-05T22:44:27.189+07:00,0.826,48673,18984,0
1783266267189864009,2026-07-05T22:44:27.189+07:00,0.826,48064,18698,0
1783266267189864010,2026-07-05T22:44:27.189+07:00,0.826,47438,18351,0
1783266267189864011,2026-07-05T22:44:27.189+07:00,0.826,46791,17977,0
1783266267189864012,2026-07-05T22:44:27.189+07:00,0.826,46139,17660,0
1783266267189864013,2026-07-05T22:44:27.189+07:00,0.826,45476,17332,0
1783266267189864014,2026-07-05T22:44:27.189+07:00,0.826,44845,17021,0
1783266267189864015,2026-07-05T22:44:27.189+07:00,0.826,44389,16834,0
1783266267189864016,2026-07-05T22:44:27.189+07:00,0.826,43982,16639,0
1783266267228763417,2026-07-05T22:44:27.228+07:00,0.864,43497,16412,0
1783266267228763418,2026-07-05T22:44:27.228+07:00,0.864,43049,16172,0
1783266267228763419,2026-07-05T22:44:27.228+07:00,0.864,42654,15950,0
1783266267228763420,2026-07-05T22:44:27.228+07:00,0.864,42296,15786,0
1783266267228763421,2026-07-05T22:44:27.228+07:00,0.864,41970,15584,0
1783266267228763422,2026-07-05T22:44:27.228+07:00,0.864,41594,15417,0
1783266267228763423,2026-07-05T22:44:27.228+07:00,0.864,41325,15322,0
1783266267228763424,2026-07-05T22:44:27.228+07:00,0.864,41072,15215,0
1783266267228763425,2026-07-05T22:44:27.228+07:00,0.864,40793,15065,0
1783266267228763426,2026-07-05T22:44:27.228+07:00,0.864,40500,14928,0
1783266267228763427,2026-07-05T22:44:27.228+07:00,0.864,40257,14802,0
1783266267228763428,2026-07-05T22:44:27.228+07:00,0.864,40038,14699,0
1783266267228763429,2026-07-05T22:44:27.228+07:00,0.864,39811,14583,0
1783266267228763430,2026-07-05T22:44:27.228+07:00,0.864,39598,14446,0
1783266267228763431,2026-07-05T22:44:27.228+07:00,0.864,39444,14374,0
1783266267228763432,2026-07-05T22:44:27.228+07:00,0.864,39279,14328,0
1783266267278069333,2026-07-05T22:44:27.278+07:00,0.914,39130,14234,0
1783266267278069334,2026-07-05T22:44:27.278+07:00,0.914,38932,14128,0
1783266267278069335,2026-07-05T22:44:27.278+07:00,0.914,38758,14026,0
1783266267278069336,2026-07-05T22:44:27.278+07:00,0.914,38578,13918,0
1783266267278069337,2026-07-05T22:44:27.278+07:00,0.914,38379,13822,0
1783266267278069338,2026-07-05T22:44:27.278+07:00,0.914,38149,13654,0
1783266267278069339,2026-07-05T22:44:27.278+07:00,0.914,37947,13564,0
1783266267278069340,2026-07-05T22:44:27.278+07:00,0.914,37696,13400,0
1783266267278069341,2026-07-05T22:44:27.278+07:00,0.914,37363,13174,0
1783266267278069342,2026-07-05T22:44:27.278+07:00,0.914,37056,12940,0
1783266267278069343,2026-07-05T22:44:27.278+07:00,0.914,36759,12691,0
1783266267278069344,2026-07-05T22:44:27.278+07:00,0.914,36492,12471,0
1783266267278069345,2026-07-05T22:44:27.278+07:00,0.914,36186,12230,0
1783266267278069346,2026-07-05T22:44:27.278+07:00,0.914,35820,11936,0
1783266267278069347,2026-07-05T22:44:27.278+07:00,0.914,35476,11720,0
1783266267278069348,2026-07-05T22:44:27.278+07:00,0.914,35147,11532,0
1783266267278069349,2026-07-05T22:44:27.278+07:00,0.914,34833,11331,0
1783266267318702650,2026-07-05T22:44:27.318+07:00,0.954,34524,11145,0
1783266267318702651,2026-07-05T22:44:27.318+07:00,0.954,34236,10977,0
1783266267318702652,2026-07-05T22:44:27.318+07:00,0.954,34042,10861,0
1783266267318702653,2026-07-05T22:44:27.318+07:00,0.954,33850,10746,0
1783266267318702654,2026-07-05T22:44:27.318+07:00,0.954,33731,10658,0
1783266267318702655,2026-07-05T22:44:27.318+07:00,0.954,33629,10655,0
1783266267318702656,2026-07-05T22:44:27.318+07:00,0.954,33582,10641,0
1783266267318702657,2026-07-05T22:44:27.318+07:00,0.954,33496,10580,0
1783266267318702658,2026-07-05T22:44:27.318+07:00,0.954,33371,10529,0
1783266267318702659,2026-07-05T22:44:27.318+07:00,0.954,33310,10481,0
1783266267318702660,2026-07-05T22:44:27.318+07:00,0.954,33187,10415,0
1783266267318702661,2026-07-05T22:44:27.318+07:00,0.954,33172,10394,0
1783266267318702662,2026-07-05T22:44:27.318+07:00,0.954,33118,10353,0
1783266267318702663,2026-07-05T22:44:27.318+07:00,0.954,33149,10380,0
1783266267318702664,2026-07-05T22:44:27.318+07:00,0.954,33187,10415,0
1783266267318702665,2026-07-05T22:44:27.318+07:00,0.954,33217,10428,0
1783266267318702666,2026-07-05T22:44:27.318+07:00,0.954,33264,10406,0
1783266267358804867,2026-07-05T22:44:27.358+07:00,0.995,33371,10412,0
1783266267358804868,2026-07-05T22:44:27.358+07:00,0.995,33496,10442,0
1783266267358804869,2026-07-05T22:44:27.358+07:00,0.995,33660,10475,0
1783266267358804870,2026-07-05T22:44:27.358+07:00,0.995,33794,10495,0
1783266267358804871,2026-07-05T22:44:27.358+07:00,0.995,34010,10599,0
1783266267358804872,2026-07-05T22:44:27.358+07:00,0.995,34302,10693,0
1783266267358804873,2026-07-05T22:44:27.358+07:00,0.995,34590,10767,0
1783266267358804874,2026-07-05T22:44:27.358+07:00,0.995,34892,10892,0
1783266267358804875,2026-07-05T22:44:27.358+07:00,0.995,35285,10982,0
1783266267358804876,2026-07-05T22:44:27.358+07:00,0.995,35661,11085,0
1783266267358804877,2026-07-05T22:44:27.358+07:00,0.995,36114,11225,0
1783266267358804878,2026-07-05T22:44:27.358+07:00,0.995,36529,11343,0
1783266267358804879,2026-07-05T22:44:27.358+07:00,0.995,37024,11536,0
1783266267358804880,2026-07-05T22:44:27.358+07:00,0.995,37539,11753,0
1783266267358804881,2026-07-05T22:44:27.358+07:00,0.995,38034,11902,0
1783266267358804882,2026-07-05T22:44:27.358+07:00,0.995,38516,12066,0
1783266267358804883,2026-07-05T22:44:27.358+07:00,0.995,38989,12211,0
1783266267399666384,2026-07-05T22:44:27.399+07:00,1.035,39466,12388,0
1783266267399666385,2026-07-05T22:44:27.399+07:00,1.035,39977,12567,0
1783266267399666386,2026-07-05T22:44:27.399+07:00,1.035,40464,12738,0
1783266267399666387,2026-07-05T22:44:27.399+07:00,1.035,41017,12989,0
1783266267399666388,2026-07-05T22:44:27.399+07:00,1.035,41714,13274,0
1783266267399666389,2026-07-05T22:44:27.399+07:00,1.035,42303,13500,0
1783266267399666390,2026-07-05T22:44:27.399+07:00,1.035,42882,13737,0
1783266267399666391,2026-07-05T22:44:27.399+07:00,1.035,43478,13958,0
1783266267399666392,2026-07-05T22:44:27.399+07:00,1.035,44110,14234,0
1783266267399666393,2026-07-05T22:44:27.399+07:00,1.035,44776,14498,0
1783266267399666394,2026-07-05T22:44:27.399+07:00,1.035,45390,14763,0
1783266267399666395,2026-07-05T22:44:27.399+07:00,1.035,46057,15103,0
1783266267399666396,2026-07-05T22:44:27.399+07:00,1.035,46730,15427,0
1783266267399666397,2026-07-05T22:44:27.399+07:00,1.035,47360,15744,0
1783266267399666398,2026-07-05T22:44:27.399+07:00,1.035,47968,16010,0
1783266267438806299,2026-07-05T22:44:27.438+07:00,1.075,48517,16271,0
1783266267438806300,2026-07-05T22:44:27.438+07:00,1.075,49054,16536,0
1783266267438806301,2026-07-05T22:44:27.438+07:00,1.075,49586,16849,0
1783266267438806302,2026-07-05T22:44:27.438+07:00,1.075,50008,16977,0
1783266267438806303,2026-07-05T22:44:27.438+07:00,1.075,50446,17278,0
1783266267438806304,2026-07-05T22:44:27.438+07:00,1.075,50919,17522,0
1783266267438806305,2026-07-05T22:44:27.438+07:00,1.075,51300,17751,0
1783266267438806306,2026-07-05T22:44:27.438+07:00,1.075,51668,17959,0
1783266267438806307,2026-07-05T22:44:27.438+07:00,1.075,52032,18215,0
1783266267438806308,2026-07-05T22:44:27.438+07:00,1.075,52392,18408,0
1783266267438806309,2026-07-05T22:44:27.438+07:00,1.075,52756,18588,0
1783266267438806310,2026-07-05T22:44:27.438+07:00,1.075,53097,18782,0
1783266267438806311,2026-07-05T22:44:27.438+07:00,1.075,53531,19010,0
1783266267438806312,2026-07-05T22:44:27.438+07:00,1.075,53962,19176,0
1783266267438806313,2026-07-05T22:44:27.438+07:00,1.075,54319,19334,0
1783266267438806314,2026-07-05T22:44:27.438+07:00,1.075,54732,19558,0
1783266267438806315,2026-07-05T22:44:27.438+07:00,1.075,55130,19700,0
1783266267479041416,2026-07-05T22:44:27.479+07:00,1.115,55598,19762,0
1783266267479041417,2026-07-05T22:44:27.479+07:00,1.115,56074,19882,0
1783266267479041418,2026-07-05T22:44:27.479+07:00,1.115,56526,20209,0
1783266267479041419,2026-07-05T22:44:27.479+07:00,1.115,57097,20983,0
1783266267479041420,2026-07-05T22:44:27.479+07:00,1.115,57703,21298,0
1783266267479041421,2026-07-05T22:44:27.479+07:00,1.115,58240,21582,0
1783266267479041422,2026-07-05T22:44:27.479+07:00,1.115,58775,21824,0
1783266267479041423,2026-07-05T22:44:27.479+07:00,1.115,59430,22075,0
1783266267479041424,2026-07-05T22:44:27.479+07:00,1.115,60000,22329,0
1783266267479041425,2026-07-05T22:44:27.479+07:00,1.115,60606,22552,0
1783266267479041426,2026-07-05T22:44:27.479+07:00,1.115,61107,22748,0
1783266267479041427,2026-07-05T22:44:27.479+07:00,1.115,61670,22999,0
1783266267479041428,2026-07-05T22:44:27.479+07:00,1.115,62189,23263,0
1783266267479041429,2026-07-05T22:44:27.479+07:00,1.115,62704,23456,0
1783266267479041430,2026-07-05T22:44:27.479+07:00,1.115,63074,23579,0
1783266267479041431,2026-07-05T22:44:27.479+07:00,1.115,63492,23754,0
1783266267479041432,2026-07-05T22:44:27.479+07:00,1.115,63886,23896,0
1783266267523765133,2026-07-05T22:44:27.523+07:00,1.159,64228,24028,0
1783266267523765134,2026-07-05T22:44:27.523+07:00,1.159,64472,24108,0
1783266267523765135,2026-07-05T22:44:27.523+07:00,1.159,64879,24312,0
1783266267523765136,2026-07-05T22:44:27.523+07:00,1.159,65232,24489,0
1783266267523765137,2026-07-05T22:44:27.523+07:00,1.159,65484,24585,0
1783266267523765138,2026-07-05T22:44:27.523+07:00,1.159,65738,24682,0
1783266267523765139,2026-07-05T22:44:27.523+07:00,1.159,65979,24793,0
1783266267523765140,2026-07-05T22:44:27.523+07:00,1.159,66237,24887,0
1783266267523765141,2026-07-05T22:44:27.523+07:00,1.159,66435,24982,0
1783266267523765142,2026-07-05T22:44:27.523+07:00,1.159,66620,25056,0
1783266267523765143,2026-07-05T22:44:27.523+07:00,1.159,66898,25210,0
1783266267523765144,2026-07-05T22:44:27.523+07:00,1.159,67148,25352,0
1783266267523765145,2026-07-05T22:44:27.523+07:00,1.159,67368,25441,0
1783266267523765146,2026-07-05T22:44:27.523+07:00,1.159,67542,25504,0
1783266267523765147,2026-07-05T22:44:27.523+07:00,1.159,67764,25600,0
1783266267523765148,2026-07-05T22:44:27.523+07:00,1.159,68020,25691,0
1783266267523765149,2026-07-05T22:44:27.523+07:00,1.159,68230,25764,0
1783266267570759050,2026-07-05T22:44:27.570+07:00,1.206,68392,25815,0
1783266267570759051,2026-07-05T22:44:27.570+07:00,1.206,68702,25997,0
1783266267570759052,2026-07-05T22:44:27.570+07:00,1.206,68982,26115,0
1783266267570759053,2026-07-05T22:44:27.570+07:00,1.206,69280,26205,0
1783266267570759054,2026-07-05T22:44:27.570+07:00,1.206,69531,26306,0
1783266267570759055,2026-07-05T22:44:27.570+07:00,1.206,69784,26397,0
1783266267570759056,2026-07-05T22:44:27.570+07:00,1.206,70107,26494,0
1783266267570759057,2026-07-05T22:44:27.570+07:00,1.206,70398,26582,0
1783266267570759058,2026-07-05T22:44:27.570+07:00,1.206,70744,26666,0
1783266267570759059,2026-07-05T22:44:27.570+07:00,1.206,71146,26825,0
1783266267570759060,2026-07-05T22:44:27.570+07:00,1.206,71499,27006,0
1783266267570759061,2026-07-05T22:44:27.570+07:00,1.206,71838,27082,0
1783266267570759062,2026-07-05T22:44:27.570+07:00,1.206,72120,27174,0
1783266267570759063,2026-07-05T22:44:27.570+07:00,1.206,72434,27210,0
1783266267570759064,2026-07-05T22:44:27.570+07:00,1.206,72678,27283,0
1783266267570759065,2026-07-05T22:44:27.570+07:00,1.206,72911,27340,0
1783266267570759066,2026-07-05T22:44:27.570+07:00,1.206,73108,27376,0
1783266267609202567,2026-07-05T22:44:27.609+07:00,1.245,73357,27507,0
1783266267609202568,2026-07-05T22:44:27.609+07:00,1.245,73594,27602,0
1783266267609202569,2026-07-05T22:44:27.609+07:00,1.245,73795,27623,0
1783266267609202570,2026-07-05T22:44:27.609+07:00,1.245,73972,27639,0
1783266267609202571,2026-07-05T22:44:27.609+07:00,1.245,74188,27671,0
1783266267609202572,2026-07-05T22:44:27.609+07:00,1.245,74392,27729,0
1783266267609202573,2026-07-05T22:44:27.609+07:00,1.245,74572,27745,0
1783266267609202574,2026-07-05T22:44:27.609+07:00,1.245,74650,27734,0
1783266267609202575,2026-07-05T22:44:27.609+07:00,1.245,74805,27815,0
1783266267609202576,2026-07-05T22:44:27.609+07:00,1.245,74934,27879,0
1783266267609202577,2026-07-05T22:44:27.609+07:00,1.245,75026,27869,0
1783266267609202578,2026-07-05T22:44:27.609+07:00,1.245,75182,27901,0
1783266267609202579,2026-07-05T22:44:27.609+07:00,1.245,75340,27944,0
1783266267609202580,2026-07-05T22:44:27.609+07:00,1.245,75550,28021,0
1783266267609202581,2026-07-05T22:44:27.609+07:00,1.245,75802,28075,0
1783266267609202582,2026-07-05T22:44:27.609+07:00,1.245,75976,28152,0
1783266267652952183,2026-07-05T22:44:27.652+07:00,1.289,76244,28307,0
1783266267652952184,2026-07-05T22:44:27.652+07:00,1.289,76446,28407,0
1783266267652952185,2026-07-05T22:44:27.652+07:00,1.289,76609,28464,0
1783266267652952186,2026-07-05T22:44:27.652+07:00,1.289,76677,28497,0
1783266267652952187,2026-07-05T22:44:27.652+07:00,1.289,76759,28520,0
1783266267652952188,2026-07-05T22:44:27.652+07:00,1.289,76854,28577,0
1783266267652952189,2026-07-05T22:44:27.652+07:00,1.289,76936,28605,0
1783266267652952190,2026-07-05T22:44:27.652+07:00,1.289,76964,28633,0
1783266267652952191,2026-07-05T22:44:27.652+07:00,1.289,77170,28782,0
1783266267652952192,2026-07-05T22:44:27.652+07:00,1.289,77322,28892,0
1783266267652952193,2026-07-05T22:44:27.652+07:00,1.289,77488,28962,0
1783266267652952194,2026-07-05T22:44:27.652+07:00,1.289,77572,29014,0
1783266267652952195,2026-07-05T22:44:27.652+07:00,1.289,77683,29061,0
1783266267652952196,2026-07-05T22:44:27.652+07:00,1.289,77753,29096,0
1783266267652952197,2026-07-05T22:44:27.652+07:00,1.289,77809,29120,0
1783266267652952198,2026-07-05T22:44:27.652+07:00,1.289,77823,29114,0
1783266267652952199,2026-07-05T22:44:27.652+07:00,1.289,77922,29203,0
1783266267694514300,2026-07-05T22:44:27.694+07:00,1.330,78020,29268,0
1783266267694514301,2026-07-05T22:44:27.694+07:00,1.330,78048,29274,0
1783266267694514302,2026-07-05T22:44:27.694+07:00,1.330,78076,29280,0
1783266267694514303,2026-07-05T22:44:27.694+07:00,1.330,78119,29232,0
1783266267694514304,2026-07-05T22:44:27.694+07:00,1.330,78105,29220,0
1783266267694514305,2026-07-05T22:44:27.694+07:00,1.330,78062,29191,0
1783266267694514306,2026-07-05T22:44:27.694+07:00,1.330,78006,29149,0
1783266267694514307,2026-07-05T22:44:27.694+07:00,1.330,78034,29167,0
1783266267694514308,2026-07-05T22:44:27.694+07:00,1.330,78048,29179,0
1783266267694514309,2026-07-05T22:44:27.694+07:00,1.330,78020,29120,0
1783266267694514310,2026-07-05T22:44:27.694+07:00,1.330,77978,29067,0
1783266267694514311,2026-07-05T22:44:27.694+07:00,1.330,77865,28968,0
1783266267694514312,2026-07-05T22:44:27.694+07:00,1.330,77837,28915,0
1783266267694514313,2026-07-05T22:44:27.694+07:00,1.330,77739,28846,0
1783266267694514314,2026-07-05T22:44:27.694+07:00,1.330,77641,28742,0
1783266267694514315,2026-07-05T22:44:27.694+07:00,1.330,77628,28742,0
1783266267694514316,2026-07-05T22:44:27.694+07:00,1.330,77600,28725,0
1783266267732107017,2026-07-05T22:44:27.732+07:00,1.368,77502,28639,0
1783266267732107018,2026-07-05T22:44:27.732+07:00,1.368,77405,28560,0
1783266267732107019,2026-07-05T22:44:27.732+07:00,1.368,77322,28475,0
1783266267732107020,2026-07-05T22:44:27.732+07:00,1.368,77225,28379,0
1783266267732107021,2026-07-05T22:44:27.732+07:00,1.368,77142,28301,0
1783266267732107022,2026-07-05T22:44:27.732+07:00,1.368,76991,28213,0
1783266267732107023,2026-07-05T22:44:27.732+07:00,1.368,76923,28180,0
1783266267732107024,2026-07-05T22:44:27.732+07:00,1.368,76895,28180,0
1783266267732107025,2026-07-05T22:44:27.732+07:00,1.368,76840,28119,0
1783266267732107026,2026-07-05T22:44:27.732+07:00,1.368,76731,28059,0
1783266267732107027,2026-07-05T22:44:27.732+07:00,1.368,76595,27950,0
1783266267732107028,2026-07-05T22:44:27.732+07:00,1.368,76446,27858,0
1783266267732107029,2026-07-05T22:44:27.732+07:00,1.368,76352,27761,0
1783266267732107030,2026-07-05T22:44:27.732+07:00,1.368,76163,27655,0
1783266267732107031,2026-07-05T22:44:27.732+07:00,1.368,76083,27633,0
1783266267732107032,2026-07-05T22:44:27.732+07:00,1.368,76029,27617,0
1783266267732107033,2026-07-05T22:44:27.732+07:00,1.368,75936,27554,0
1783266267779778734,2026-07-05T22:44:27.779+07:00,1.416,75736,27459,0
1783266267779778735,2026-07-05T22:44:27.779+07:00,1.416,75643,27355,0
1783266267779778736,2026-07-05T22:44:27.779+07:00,1.416,75484,27293,0
1783266267779778737,2026-07-05T22:44:27.779+07:00,1.416,75340,27185,0
1783266267779778738,2026-07-05T22:44:27.779+07:00,1.416,75169,27093,0
1783266267779778739,2026-07-05T22:44:27.779+07:00,1.416,75078,27072,0
1783266267779778740,2026-07-05T22:44:27.779+07:00,1.416,75026,27042,0
1783266267779778741,2026-07-05T22:44:27.779+07:00,1.416,74870,26956,0
1783266267779778742,2026-07-05T22:44:27.779+07:00,1.416,74740,26890,0
1783266267779778743,2026-07-05T22:44:27.779+07:00,1.416,74637,26805,0
1783266267779778744,2026-07-05T22:44:27.779+07:00,1.416,74457,26735,0
1783266267779778745,2026-07-05T22:44:27.779+07:00,1.416,74367,26651,0
1783266267779778746,2026-07-05T22:44:27.779+07:00,1.416,74226,26548,0
1783266267779778747,2026-07-05T22:44:27.779+07:00,1.416,74175,26573,0
1783266267779778748,2026-07-05T22:44:27.779+07:00,1.416,74150,26578,0
1783266267779778749,2026-07-05T22:44:27.779+07:00,1.416,74023,26543,0
1783266267779778750,2026-07-05T22:44:27.779+07:00,1.416,73959,26509,0
1783266267811488551,2026-07-05T22:44:27.811+07:00,1.447,73972,26485,0
1783266267811488552,2026-07-05T22:44:27.811+07:00,1.447,73972,26455,0
1783266267811488553,2026-07-05T22:44:27.811+07:00,1.447,73972,26441,0
1783266267811488554,2026-07-05T22:44:27.811+07:00,1.447,73871,26402,0
1783266267811488555,2026-07-05T22:44:27.811+07:00,1.447,73896,26426,0
1783266267811488556,2026-07-05T22:44:27.811+07:00,1.447,73921,26465,0
1783266267811488557,2026-07-05T22:44:27.811+07:00,1.447,73871,26436,0
1783266267811488558,2026-07-05T22:44:27.811+07:00,1.447,73846,26426,0
1783266267811488559,2026-07-05T22:44:27.811+07:00,1.447,73884,26407,0
1783266267811488560,2026-07-05T22:44:27.811+07:00,1.447,73808,26363,0
1783266267811488561,2026-07-05T22:44:27.811+07:00,1.447,73669,26310,0
1783266267811488562,2026-07-05T22:44:27.811+07:00,1.447,73569,26200,0
1783266267811488563,2026-07-05T22:44:27.811+07:00,1.447,73544,26224,0
1783266267811488564,2026-07-05T22:44:27.811+07:00,1.447,73481,26239,0
1783266267811488565,2026-07-05T22:44:27.811+07:00,1.447,73444,26181,0
1783266267858818066,2026-07-05T22:44:27.858+07:00,1.495,73307,26139,0
1783266267858818067,2026-07-05T22:44:27.858+07:00,1.495,73232,26063,0
1783266267858818068,2026-07-05T22:44:27.858+07:00,1.495,73158,26030,0
1783266267858818069,2026-07-05T22:44:27.858+07:00,1.495,73096,25978,0
1783266267858818070,2026-07-05T22:44:27.858+07:00,1.495,72960,25899,0
1783266267858818071,2026-07-05T22:44:27.858+07:00,1.495,72985,25950,0
1783266267858818072,2026-07-05T22:44:27.858+07:00,1.495,72997,25988,0
1783266267858818073,2026-07-05T22:44:27.858+07:00,1.495,73022,25983,0
1783266267858818074,2026-07-05T22:44:27.858+07:00,1.495,72997,25978,0
1783266267858818075,2026-07-05T22:44:27.858+07:00,1.495,73047,25964,0
1783266267858818076,2026-07-05T22:44:27.858+07:00,1.495,73022,25988,0
1783266267858818077,2026-07-05T22:44:27.858+07:00,1.495,73071,25983,0
1783266267858818078,2026-07-05T22:44:27.858+07:00,1.495,73059,25941,0
1783266267858818079,2026-07-05T22:44:27.858+07:00,1.495,73170,26035,0
1783266267858818080,2026-07-05T22:44:27.858+07:00,1.495,73257,26105,0
1783266267858818081,2026-07-05T22:44:27.858+07:00,1.495,73282,26143,0
1783266267858818082,2026-07-05T22:44:27.858+07:00,1.495,73282,26124,0
1783266267902809883,2026-07-05T22:44:27.902+07:00,1.539,73332,26134,0
1783266267902809884,2026-07-05T22:44:27.902+07:00,1.539,73332,26129,0
1783266267902809885,2026-07-05T22:44:27.902+07:00,1.539,73344,26129,0
1783266267902809886,2026-07-05T22:44:27.902+07:00,1.539,73319,26120,0
1783266267902809887,2026-07-05T22:44:27.902+07:00,1.539,73406,26186,0
1783266267902809888,2026-07-05T22:44:27.902+07:00,1.539,73519,26262,0
1783266267902809889,2026-07-05T22:44:27.902+07:00,1.539,73519,26272,0
1783266267902809890,2026-07-05T22:44:27.902+07:00,1.539,73544,26258,0
1783266267902809891,2026-07-05T22:44:27.902+07:00,1.539,73556,26258,0
1783266267902809892,2026-07-05T22:44:27.902+07:00,1.539,73569,26277,0
1783266267902809893,2026-07-05T22:44:27.902+07:00,1.539,73632,26282,0
1783266267902809894,2026-07-05T22:44:27.902+07:00,1.539,73607,26258,0
1783266267902809895,2026-07-05T22:44:27.902+07:00,1.539,73694,26339,0
1783266267902809896,2026-07-05T22:44:27.902+07:00,1.539,73833,26417,0
1783266267902809897,2026-07-05T22:44:27.902+07:00,1.539,73808,26417,0
1783266267902809898,2026-07-05T22:44:27.902+07:00,1.539,73858,26412,0
1783266267902809899,2026-07-05T22:44:27.902+07:00,1.539,73858,26402,0
1783266267945413300,2026-07-05T22:44:27.945+07:00,1.581,73858,26426,0
1783266267945413301,2026-07-05T22:44:27.945+07:00,1.581,73858,26388,0
1783266267945413302,2026-07-05T22:44:27.945+07:00,1.581,73846,26388,0
1783266267945413303,2026-07-05T22:44:27.945+07:00,1.581,73896,26436,0
1783266267945413304,2026-07-05T22:44:27.945+07:00,1.581,73947,26460,0
1783266267945413305,2026-07-05T22:44:27.945+07:00,1.581,73947,26465,0
1783266267945413306,2026-07-05T22:44:27.945+07:00,1.581,73909,26441,0
1783266267945413307,2026-07-05T22:44:27.945+07:00,1.581,73921,26436,0
1783266267945413308,2026-07-05T22:44:27.945+07:00,1.581,73896,26426,0
1783266267945413309,2026-07-05T22:44:27.945+07:00,1.581,73833,26359,0
1783266267945413310,2026-07-05T22:44:27.945+07:00,1.581,73770,26315,0
1783266267945413311,2026-07-05T22:44:27.945+07:00,1.581,73795,26349,0
1783266267945413312,2026-07-05T22:44:27.945+07:00,1.581,73871,26412,0
1783266267945413313,2026-07-05T22:44:27.945+07:00,1.581,73833,26397,0
1783266267945413314,2026-07-05T22:44:27.945+07:00,1.581,73808,26392,0
1783266267945413315,2026-07-05T22:44:27.945+07:00,1.581,73795,26344,0
1783266267945413316,2026-07-05T22:44:27.945+07:00,1.581,73783,26344,0
1783266267986287517,2026-07-05T22:44:27.986+07:00,1.622,73720,26286,0
1783266267986287518,2026-07-05T22:44:27.986+07:00,1.622,73644,26248,0
1783266267986287519,2026-07-05T22:44:27.986+07:00,1.622,73669,26277,0
1783266267986287520,2026-07-05T22:44:27.986+07:00,1.622,73707,26320,0
1783266267986287521,2026-07-05T22:44:27.986+07:00,1.622,73694,26291,0
1783266267986287522,2026-07-05T22:44:27.986+07:00,1.622,73632,26248,0
1783266267986287523,2026-07-05T22:44:27.986+07:00,1.622,73607,26210,0
1783266267986287524,2026-07-05T22:44:27.986+07:00,1.622,73619,26186,0
1783266267986287525,2026-07-05T22:44:27.986+07:00,1.622,73569,26153,0
1783266267986287526,2026-07-05T22:44:27.986+07:00,1.622,73469,26072,0
1783266267986287527,2026-07-05T22:44:27.986+07:00,1.622,73481,26134,0
1783266267986287528,2026-07-05T22:44:27.986+07:00,1.622,73506,26153,0
1783266267986287529,2026-07-05T22:44:27.986+07:00,1.622,73444,26115,0
1783266267986287530,2026-07-05T22:44:27.986+07:00,1.622,73382,26072,0
1783266267986287531,2026-07-05T22:44:27.986+07:00,1.622,73332,26035,0
1783266267986287532,2026-07-05T22:44:27.986+07:00,1.622,73270,25997,0
1783266267986287533,2026-07-05T22:44:27.986+07:00,1.622,73232,25969,0
1783266267986287534,2026-07-05T22:44:27.986+07:00,1.622,73121,25899,0
1783266268023499635,2026-07-05T22:44:28.023+07:00,1.659,73183,25978,0
1783266268023499636,2026-07-05T22:44:28.023+07:00,1.659,73220,26039,0
1783266268023499637,2026-07-05T22:44:28.023+07:00,1.659,73170,26011,0
1783266268023499638,2026-07-05T22:44:28.023+07:00,1.659,73084,25992,0
1783266268023499639,2026-07-05T22:44:28.023+07:00,1.659,72997,25927,0
1783266268023499640,2026-07-05T22:44:28.023+07:00,1.659,72923,25876,0
1783266268023499641,2026-07-05T22:44:28.023+07:00,1.659,72813,25848,0
1783266268023499642,2026-07-05T22:44:28.023+07:00,1.659,72788,25806,0
1783266268023499643,2026-07-05T22:44:28.023+07:00,1.659,72800,25876,0
1783266268023499644,2026-07-05T22:44:28.023+07:00,1.659,72874,25945,0
1783266268023499645,2026-07-05T22:44:28.023+07:00,1.659,72886,25950,0
1783266268023499646,2026-07-05T22:44:28.023+07:00,1.659,72874,25941,0
1783266268023499647,2026-07-05T22:44:28.023+07:00,1.659,72800,25885,0
1783266268023499648,2026-07-05T22:44:28.023+07:00,1.659,72764,25866,0
1783266268023499649,2026-07-05T22:44:28.023+07:00,1.659,72702,25834,0
1783266268069104050,2026-07-05T22:44:28.069+07:00,1.705,72556,25764,0
1783266268069104051,2026-07-05T22:44:28.069+07:00,1.705,72653,25801,0
1783266268069104052,2026-07-05T22:44:28.069+07:00,1.705,72678,25871,0
1783266268069104053,2026-07-05T22:44:28.069+07:00,1.705,72678,25857,0
1783266268069104054,2026-07-05T22:44:28.069+07:00,1.705,72727,25852,0
1783266268069104055,2026-07-05T22:44:28.069+07:00,1.705,72776,25876,0
1783266268069104056,2026-07-05T22:44:28.069+07:00,1.705,72837,25899,0
1783266268069104057,2026-07-05T22:44:28.069+07:00,1.705,72923,25941,0
1783266268069104058,2026-07-05T22:44:28.069+07:00,1.705,72911,25955,0
1783266268069104059,2026-07-05T22:44:28.069+07:00,1.705,73047,26077,0
1783266268069104060,2026-07-05T22:44:28.069+07:00,1.705,73183,26148,0
1783266268069104061,2026-07-05T22:44:28.069+07:00,1.705,73282,26191,0
1783266268069104062,2026-07-05T22:44:28.069+07:00,1.705,73357,26224,0
1783266268069104063,2026-07-05T22:44:28.069+07:00,1.705,73406,26253,0
1783266268069104064,2026-07-05T22:44:28.069+07:00,1.705,73506,26286,0
1783266268069104065,2026-07-05T22:44:28.069+07:00,1.705,73569,26301,0
1783266268069104066,2026-07-05T22:44:28.069+07:00,1.705,73607,26339,0
1783266268109077167,2026-07-05T22:44:28.109+07:00,1.745,73783,26455,0
1783266268109077168,2026-07-05T22:44:28.109+07:00,1.745,73959,26538,0
1783266268109077169,2026-07-05T22:44:28.109+07:00,1.745,74010,26592,0
1783266268109077170,2026-07-05T22:44:28.109+07:00,1.745,74086,26607,0
1783266268109077171,2026-07-05T22:44:28.109+07:00,1.745,74226,26651,0
1783266268109077172,2026-07-05T22:44:28.109+07:00,1.745,74265,26691,0
1783266268109077173,2026-07-05T22:44:28.109+07:00,1.745,74354,26721,0
1783266268109077174,2026-07-05T22:44:28.109+07:00,1.745,74380,26721,0
1783266268109077175,2026-07-05T22:44:28.109+07:00,1.745,74495,26830,0
1783266268109077176,2026-07-05T22:44:28.109+07:00,1.745,74662,26920,0
1783266268109077177,2026-07-05T22:44:28.109+07:00,1.745,74727,26951,0
1783266268109077178,2026-07-05T22:44:28.109+07:00,1.745,74792,26976,0
1783266268109077179,2026-07-05T22:44:28.109+07:00,1.745,74857,27006,0
1783266268109077180,2026-07-05T22:44:28.109+07:00,1.745,74960,27032,0
1783266268109077181,2026-07-05T22:44:28.109+07:00,1.745,75052,27067,0
1783266268109077182,2026-07-05T22:44:28.109+07:00,1.745,75117,27093,0
1783266268151500583,2026-07-05T22:44:28.151+07:00,1.787,75313,27221,0
1783266268151500584,2026-07-05T22:44:28.151+07:00,1.787,75445,27381,0
1783266268151500585,2026-07-05T22:44:28.151+07:00,1.787,75656,27454,0
1783266268151500586,2026-07-05T22:44:28.151+07:00,1.787,75736,27512,0
1783266268151500587,2026-07-05T22:44:28.151+07:00,1.787,75922,27591,0
1783266268151500588,2026-07-05T22:44:28.151+07:00,1.787,76109,27692,0
1783266268151500589,2026-07-05T22:44:28.151+07:00,1.787,76298,27767,0
1783266268151500590,2026-07-05T22:44:28.151+07:00,1.787,76406,27815,0
1783266268151500591,2026-07-05T22:44:28.151+07:00,1.787,76650,27999,0
1783266268151500592,2026-07-05T22:44:28.151+07:00,1.787,76923,28141,0
1783266268151500593,2026-07-05T22:44:28.151+07:00,1.787,77115,28224,0
1783266268151500594,2026-07-05T22:44:28.151+07:00,1.787,77225,28324,0
1783266268151500595,2026-07-05T22:44:28.151+07:00,1.787,77391,28374,0
1783266268151500596,2026-07-05T22:44:28.151+07:00,1.787,77544,28458,0
1783266268151500597,2026-07-05T22:44:28.151+07:00,1.787,77669,28520,0
1783266268151500598,2026-07-05T22:44:28.151+07:00,1.787,77725,28548,0
1783266268151500599,2026-07-05T22:44:28.151+07:00,1.787,77908,28668,0
1783266268190228200,2026-07-05T22:44:28.190+07:00,1.826,78006,28776,0
1783266268190228201,2026-07-05T22:44:28.190+07:00,1.826,78119,28817,0
1783266268190228202,2026-07-05T22:44:28.190+07:00,1.826,78161,28851,0
1783266268190228203,2026-07-05T22:44:28.190+07:00,1.826,78246,28869,0
1783266268190228204,2026-07-05T22:44:28.190+07:00,1.826,78303,28921,0
1783266268190228205,2026-07-05T22:44:28.190+07:00,1.826,78346,28909,0
1783266268190228206,2026-07-05T22:44:28.190+07:00,1.826,78388,28904,0
1783266268190228207,2026-07-05T22:44:28.190+07:00,1.826,78502,29003,0
1783266268190228208,2026-07-05T22:44:28.190+07:00,1.826,78602,29102,0
1783266268190228209,2026-07-05T22:44:28.190+07:00,1.826,78659,29114,0
1783266268190228210,2026-07-05T22:44:28.190+07:00,1.826,78688,29138,0
1783266268190228211,2026-07-05T22:44:28.190+07:00,1.826,78760,29143,0
1783266268190228212,2026-07-05T22:44:28.190+07:00,1.826,78788,29173,0
1783266268190228213,2026-07-05T22:44:28.190+07:00,1.826,78817,29173,0
1783266268190228214,2026-07-05T22:44:28.190+07:00,1.826,78774,29143,0
1783266268190228215,2026-07-05T22:44:28.190+07:00,1.826,78889,29214,0
1783266268190228216,2026-07-05T22:44:28.190+07:00,1.826,78961,29304,0
1783266268228878317,2026-07-05T22:44:28.228+07:00,1.865,79005,29321,0
1783266268228878318,2026-07-05T22:44:28.228+07:00,1.865,79005,29327,0
1783266268228878319,2026-07-05T22:44:28.228+07:00,1.865,79048,29309,0
1783266268228878320,2026-07-05T22:44:28.228+07:00,1.865,79077,29321,0
1783266268228878321,2026-07-05T22:44:28.228+07:00,1.865,79135,29327,0
1783266268228878322,2026-07-05T22:44:28.228+07:00,1.865,79077,29292,0
1783266268228878323,2026-07-05T22:44:28.228+07:00,1.865,79149,29387,0
1783266268228878324,2026-07-05T22:44:28.228+07:00,1.865,79222,29441,0
1783266268228878325,2026-07-05T22:44:28.228+07:00,1.865,79251,29441,0
1783266268228878326,2026-07-05T22:44:28.228+07:00,1.865,79222,29453,0
1783266268228878327,2026-07-05T22:44:28.228+07:00,1.865,79309,29441,0
1783266268228878328,2026-07-05T22:44:28.228+07:00,1.865,79324,29447,0
1783266268228878329,2026-07-05T22:44:28.228+07:00,1.865,79324,29447,0
1783266268228878330,2026-07-05T22:44:28.228+07:00,1.865,79309,29429,0
1783266268228878331,2026-07-05T22:44:28.228+07:00,1.865,79397,29508,0
1783266268274740632,2026-07-05T22:44:28.274+07:00,1.910,79484,29562,0
1783266268274740633,2026-07-05T22:44:28.274+07:00,1.910,79514,29580,0
1783266268274740634,2026-07-05T22:44:28.274+07:00,1.910,79514,29574,0
1783266268274740635,2026-07-05T22:44:28.274+07:00,1.910,79543,29568,0
1783266268274740636,2026-07-05T22:44:28.274+07:00,1.910,79616,29593,0
1783266268274740637,2026-07-05T22:44:28.274+07:00,1.910,79646,29617,0
1783266268274740638,2026-07-05T22:44:28.274+07:00,1.910,79675,29623,0
1783266268274740639,2026-07-05T22:44:28.274+07:00,1.910,79852,29727,0
1783266268274740640,2026-07-05T22:44:28.274+07:00,1.910,80014,29832,0
1783266268274740641,2026-07-05T22:44:28.274+07:00,1.910,80103,29900,0
1783266268274740642,2026-07-05T22:44:28.274+07:00,1.910,80289,29962,0
1783266268274740643,2026-07-05T22:44:28.274+07:00,1.910,80446,30006,0
1783266268274740644,2026-07-05T22:44:28.274+07:00,1.910,80559,30050,0
1783266268274740645,2026-07-05T22:44:28.274+07:00,1.910,80706,30112,0
1783266268274740646,2026-07-05T22:44:28.274+07:00,1.910,80774,30150,0
1783266268274740647,2026-07-05T22:44:28.274+07:00,1.910,81046,30296,0
1783266268274740648,2026-07-05T22:44:28.274+07:00,1.910,81252,30450,0
1783266268317989549,2026-07-05T22:44:28.317+07:00,1.954,81413,30547,0
1783266268317989550,2026-07-05T22:44:28.317+07:00,1.954,81540,30605,0
1783266268317989551,2026-07-05T22:44:28.317+07:00,1.954,81725,30690,0
1783266268317989552,2026-07-05T22:44:28.317+07:00,1.954,81853,30775,0
1783266268317989553,2026-07-05T22:44:28.317+07:00,1.954,81981,30802,0
1783266268317989554,2026-07-05T22:44:28.317+07:00,1.954,82039,30848,0
1783266268317989555,2026-07-05T22:44:28.317+07:00,1.954,82180,30981,0
1783266268317989556,2026-07-05T22:44:28.317+07:00,1.954,82309,31067,0
1783266268317989557,2026-07-05T22:44:28.317+07:00,1.954,82368,31088,0
1783266268317989558,2026-07-05T22:44:28.317+07:00,1.954,82379,31128,0
1783266268317989559,2026-07-05T22:44:28.317+07:00,1.954,82415,31148,0
1783266268317989560,2026-07-05T22:44:28.317+07:00,1.954,82403,31175,0
1783266268317989561,2026-07-05T22:44:28.317+07:00,1.954,82379,31135,0
1783266268317989562,2026-07-05T22:44:28.317+07:00,1.954,82285,31128,0
1783266268317989563,2026-07-05T22:44:28.317+07:00,1.954,82332,31189,0
1783266268317989564,2026-07-05T22:44:28.317+07:00,1.954,82415,31222,0
1783266268317989565,2026-07-05T22:44:28.317+07:00,1.954,82368,31236,0
1783266268359114166,2026-07-05T22:44:28.359+07:00,1.995,82356,31263,0
1783266268359114167,2026-07-05T22:44:28.359+07:00,1.995,82356,31209,0
1783266268359114168,2026-07-05T22:44:28.359+07:00,1.995,82356,31229,0
1783266268359114169,2026-07-05T22:44:28.359+07:00,1.995,82356,31222,0
1783266268359114170,2026-07-05T22:44:28.359+07:00,1.995,82285,31202,0
1783266268359114171,2026-07-05T22:44:28.359+07:00,1.995,82391,31256,0
1783266268359114172,2026-07-05T22:44:28.359+07:00,1.995,82438,31331,0
1783266268359114173,2026-07-05T22:44:28.359+07:00,1.995,82462,31338,0
1783266268359114174,2026-07-05T22:44:28.359+07:00,1.995,82415,31331,0
1783266268359114175,2026-07-05T22:44:28.359+07:00,1.995,82450,31317,0
1783266268359114176,2026-07-05T22:44:28.359+07:00,1.995,82474,31345,0
1783266268359114177,2026-07-05T22:44:28.359+07:00,1.995,82521,31345,0
1783266268359114178,2026-07-05T22:44:28.359+07:00,1.995,82474,31331,0
1783266268359114179,2026-07-05T22:44:28.359+07:00,1.995,82568,31393,0
1783266268359114180,2026-07-05T22:44:28.359+07:00,1.995,82687,31461,0
1783266268359114181,2026-07-05T22:44:28.359+07:00,1.995,82675,31468,0
1783266268359114182,2026-07-05T22:44:28.359+07:00,1.995,82687,31489,0
1783266268398869583,2026-07-05T22:44:28.398+07:00,2.035,82722,31447,0
1783266268398869584,2026-07-05T22:44:28.398+07:00,2.035,82758,31454,0
1783266268398869585,2026-07-05T22:44:28.398+07:00,2.035,82746,31447,0
1783266268398869586,2026-07-05T22:44:28.398+07:00,2.035,82722,31406,0
1783266268398869587,2026-07-05T22:44:28.398+07:00,2.035,82782,31509,0
1783266268398869588,2026-07-05T22:44:28.398+07:00,2.035,82901,31558,0
1783266268398869589,2026-07-05T22:44:28.398+07:00,2.035,82853,31558,0
1783266268398869590,2026-07-05T22:44:28.398+07:00,2.035,82818,31509,0
1783266268398869591,2026-07-05T22:44:28.398+07:00,2.035,82806,31475,0
1783266268398869592,2026-07-05T22:44:28.398+07:00,2.035,82782,31489,0
1783266268398869593,2026-07-05T22:44:28.398+07:00,2.035,82770,31454,0
1783266268398869594,2026-07-05T22:44:28.398+07:00,2.035,82639,31399,0
1783266268398869595,2026-07-05T22:44:28.398+07:00,2.035,82675,31454,0
1783266268398869596,2026-07-05T22:44:28.398+07:00,2.035,82722,31502,0
1783266268398869597,2026-07-05T22:44:28.398+07:00,2.035,82806,31530,0
1783266268398869598,2026-07-05T22:44:28.398+07:00,2.035,82937,31578,0
1783266268439744399,2026-07-05T22:44:28.439+07:00,2.075,83092,31613,0
1783266268439744400,2026-07-05T22:44:28.439+07:00,2.075,83021,31585,0
1783266268439744401,2026-07-05T22:44:28.439+07:00,2.075,82913,31523,0
1783266268439744402,2026-07-05T22:44:28.439+07:00,2.075,82770,31475,0
1783266268439744403,2026-07-05T22:44:28.439+07:00,2.075,82782,31496,0
1783266268439744404,2026-07-05T22:44:28.439+07:00,2.075,82734,31509,0
1783266268439744405,2026-07-05T22:44:28.439+07:00,2.075,82663,31496,0
1783266268439744406,2026-07-05T22:44:28.439+07:00,2.075,82639,31475,0
1783266268439744407,2026-07-05T22:44:28.439+07:00,2.075,82639,31454,0
1783266268439744408,2026-07-05T22:44:28.439+07:00,2.075,82651,31434,0
1783266268439744409,2026-07-05T22:44:28.439+07:00,2.075,82722,31427,0
1783266268439744410,2026-07-05T22:44:28.439+07:00,2.075,82616,31379,0
1783266268439744411,2026-07-05T22:44:28.439+07:00,2.075,82663,31406,0
1783266268439744412,2026-07-05T22:44:28.439+07:00,2.075,82699,31441,0
1783266268439744413,2026-07-05T22:44:28.439+07:00,2.075,82604,31386,0
1783266268439744414,2026-07-05T22:44:28.439+07:00,2.075,82521,31324,0
1783266268439744415,2026-07-05T22:44:28.439+07:00,2.075,82427,31243,0
1783266268482882416,2026-07-05T22:44:28.482+07:00,2.119,82344,31162,0
1783266268482882417,2026-07-05T22:44:28.482+07:00,2.119,82250,31101,0
1783266268482882418,2026-07-05T22:44:28.482+07:00,2.119,82133,30974,0
1783266268482882419,2026-07-05T22:44:28.482+07:00,2.119,82121,30981,0
1783266268482882420,2026-07-05T22:44:28.482+07:00,2.119,82121,30941,0
1783266268482882421,2026-07-05T22:44:28.482+07:00,2.119,82027,30881,0
1783266268482882422,2026-07-05T22:44:28.482+07:00,2.119,81957,30808,0
1783266268482882423,2026-07-05T22:44:28.482+07:00,2.119,81864,30710,0
1783266268482882424,2026-07-05T22:44:28.482+07:00,2.119,81806,30638,0
1783266268482882425,2026-07-05T22:44:28.482+07:00,2.119,81690,30514,0
1783266268482882426,2026-07-05T22:44:28.482+07:00,2.119,81551,30398,0
1783266268482882427,2026-07-05T22:44:28.482+07:00,2.119,81551,30373,0
1783266268482882428,2026-07-05T22:44:28.482+07:00,2.119,81482,30322,0
1783266268482882429,2026-07-05T22:44:28.482+07:00,2.119,81332,30214,0
1783266268482882430,2026-07-05T22:44:28.482+07:00,2.119,81195,30125,0
1783266268482882431,2026-07-05T22:44:28.482+07:00,2.119,81081,30012,0
1783266268482882432,2026-07-05T22:44:28.482+07:00,2.119,80967,29900,0
1783266268527704733,2026-07-05T22:44:28.527+07:00,2.163,80853,29782,0
1783266268527704734,2026-07-05T22:44:28.527+07:00,2.163,80672,29654,0
1783266268527704735,2026-07-05T22:44:28.527+07:00,2.163,80627,29623,0
1783266268527704736,2026-07-05T22:44:28.527+07:00,2.163,80593,29599,0
1783266268527704737,2026-07-05T22:44:28.527+07:00,2.163,80435,29484,0
1783266268527704738,2026-07-05T22:44:28.527+07:00,2.163,80256,29387,0
1783266268527704739,2026-07-05T22:44:28.527+07:00,2.163,80111,29274,0
1783266268527704740,2026-07-05T22:44:28.527+07:00,2.163,80000,29155,0
1783266268527704741,2026-07-05T22:44:28.527+07:00,2.163,79844,29055,0
1783266268527704742,2026-07-05T22:44:28.527+07:00,2.163,79657,28985,0
1783266268527704743,2026-07-05T22:44:28.527+07:00,2.163,79543,28933,0
1783266268527704744,2026-07-05T22:44:28.527+07:00,2.163,79470,28956,0
1783266268527704745,2026-07-05T22:44:28.527+07:00,2.163,79353,28846,0
1783266268527704746,2026-07-05T22:44:28.527+07:00,2.163,79251,28800,0
1783266268527704747,2026-07-05T22:44:28.527+07:00,2.163,79106,28731,0
1783266268527704748,2026-07-05T22:44:28.527+07:00,2.163,79034,28696,0
1783266268527704749,2026-07-05T22:44:28.527+07:00,2.163,78976,28656,0
1783266268569214550,2026-07-05T22:44:28.569+07:00,2.205,78904,28565,0
1783266268569214551,2026-07-05T22:44:28.569+07:00,2.205,78904,28588,0
1783266268569214552,2026-07-05T22:44:28.569+07:00,2.205,78875,28651,0
1783266268569214553,2026-07-05T22:44:28.569+07:00,2.205,78860,28622,0
1783266268569214554,2026-07-05T22:44:28.569+07:00,2.205,78832,28611,0
1783266268569214555,2026-07-05T22:44:28.569+07:00,2.205,78788,28571,0
1783266268569214556,2026-07-05T22:44:28.569+07:00,2.205,78846,28565,0
1783266268569214557,2026-07-05T22:44:28.569+07:00,2.205,78832,28565,0
1783266268569214558,2026-07-05T22:44:28.569+07:00,2.205,78846,28577,0
1783266268569214559,2026-07-05T22:44:28.569+07:00,2.205,78961,28622,0
1783266268569214560,2026-07-05T22:44:28.569+07:00,2.205,79091,28719,0
1783266268569214561,2026-07-05T22:44:28.569+07:00,2.205,79149,28736,0
1783266268569214562,2026-07-05T22:44:28.569+07:00,2.205,79193,28748,0
1783266268569214563,2026-07-05T22:44:28.569+07:00,2.205,79266,28753,0
1783266268569214564,2026-07-05T22:44:28.569+07:00,2.205,79353,28759,0
1783266268569214565,2026-07-05T22:44:28.569+07:00,2.205,79367,28753,0
1783266268569214566,2026-07-05T22:44:28.569+07:00,2.205,79382,28736,0
1783266268607258467,2026-07-05T22:44:28.607+07:00,2.243,79440,28800,0
1783266268607258468,2026-07-05T22:44:28.607+07:00,2.243,79572,28875,0
1783266268607258469,2026-07-05T22:44:28.607+07:00,2.243,79514,28869,0
1783266268607258470,2026-07-05T22:44:28.607+07:00,2.243,79558,28863,0
1783266268607258471,2026-07-05T22:44:28.607+07:00,2.243,79601,28851,0
1783266268607258472,2026-07-05T22:44:28.607+07:00,2.243,79587,28817,0
1783266268607258473,2026-07-05T22:44:28.607+07:00,2.243,79601,28788,0
1783266268607258474,2026-07-05T22:44:28.607+07:00,2.243,79499,28731,0
1783266268607258475,2026-07-05T22:44:28.607+07:00,2.243,79572,28788,0
1783266268607258476,2026-07-05T22:44:28.607+07:00,2.243,79587,28823,0
1783266268607258477,2026-07-05T22:44:28.607+07:00,2.243,79558,28759,0
1783266268607258478,2026-07-05T22:44:28.607+07:00,2.243,79484,28731,0
1783266268607258479,2026-07-05T22:44:28.607+07:00,2.243,79440,28668,0
1783266268607258480,2026-07-05T22:44:28.607+07:00,2.243,79367,28628,0
1783266268607258481,2026-07-05T22:44:28.607+07:00,2.243,79324,28577,0
1783266268648780582,2026-07-05T22:44:28.648+07:00,2.285,79178,28520,0
1783266268648780583,2026-07-05T22:44:28.648+07:00,2.285,79193,28531,0
1783266268648780584,2026-07-05T22:44:28.648+07:00,2.285,79193,28565,0
1783266268648780585,2026-07-05T22:44:28.648+07:00,2.285,79193,28531,0
1783266268648780586,2026-07-05T22:44:28.648+07:00,2.285,79106,28475,0
1783266268648780587,2026-07-05T22:44:28.648+07:00,2.285,79091,28430,0
1783266268648780588,2026-07-05T22:44:28.648+07:00,2.285,79062,28396,0
1783266268648780589,2026-07-05T22:44:28.648+07:00,2.285,79005,28346,0
1783266268648780590,2026-07-05T22:44:28.648+07:00,2.285,78860,28240,0
1783266268648780591,2026-07-05T22:44:28.648+07:00,2.285,78904,28318,0
1783266268648780592,2026-07-05T22:44:28.648+07:00,2.285,78889,28329,0
1783266268648780593,2026-07-05T22:44:28.648+07:00,2.285,78875,28296,0
1783266268648780594,2026-07-05T22:44:28.648+07:00,2.285,78846,28268,0
1783266268648780595,2026-07-05T22:44:28.648+07:00,2.285,78803,28218,0
1783266268648780596,2026-07-05T22:44:28.648+07:00,2.285,78832,28246,0
1783266268648780597,2026-07-05T22:44:28.648+07:00,2.285,78875,28213,0
1783266268648780598,2026-07-05T22:44:28.648+07:00,2.285,78918,28213,0
1783266268690925999,2026-07-05T22:44:28.690+07:00,2.327,79019,28279,0
1783266268690926000,2026-07-05T22:44:28.690+07:00,2.327,79062,28340,0
1783266268690926001,2026-07-05T22:44:28.690+07:00,2.327,79077,28301,0
1783266268690926002,2026-07-05T22:44:28.690+07:00,2.327,79034,28251,0
1783266268690926003,2026-07-05T22:44:28.690+07:00,2.327,78990,28213,0
1783266268690926004,2026-07-05T22:44:28.690+07:00,2.327,79005,28185,0
1783266268690926005,2026-07-05T22:44:28.690+07:00,2.327,78947,28103,0
1783266268690926006,2026-07-05T22:44:28.690+07:00,2.327,78889,28037,0
1783266268690926007,2026-07-05T22:44:28.690+07:00,2.327,78889,28048,0
1783266268690926008,2026-07-05T22:44:28.690+07:00,2.327,78889,28026,0
1783266268690926009,2026-07-05T22:44:28.690+07:00,2.327,78817,27988,0
1783266268690926010,2026-07-05T22:44:28.690+07:00,2.327,78774,27923,0
1783266268690926011,2026-07-05T22:44:28.690+07:00,2.327,78745,27879,0
1783266268690926012,2026-07-05T22:44:28.690+07:00,2.327,78745,27842,0
1783266268690926013,2026-07-05T22:44:28.690+07:00,2.327,78745,27788,0
1783266268690926014,2026-07-05T22:44:28.690+07:00,2.327,78659,27713,0
1783266268690926015,2026-07-05T22:44:28.690+07:00,2.327,78788,27767,0
1783266268731041216,2026-07-05T22:44:28.731+07:00,2.367,78860,27831,0
1783266268731041217,2026-07-05T22:44:28.731+07:00,2.367,78875,27793,0
1783266268731041218,2026-07-05T22:44:28.731+07:00,2.367,78904,27788,0
1783266268731041219,2026-07-05T22:44:28.731+07:00,2.367,79005,27777,0
1783266268731041220,2026-07-05T22:44:28.731+07:00,2.367,79106,27793,0
1783266268731041221,2026-07-05T22:44:28.731+07:00,2.367,79178,27767,0
1783266268731041222,2026-07-05T22:44:28.731+07:00,2.367,79193,27751,0
1783266268731041223,2026-07-05T22:44:28.731+07:00,2.367,79324,27815,0
1783266268731041224,2026-07-05T22:44:28.731+07:00,2.367,79455,27879,0
1783266268731041225,2026-07-05T22:44:28.731+07:00,2.367,79631,27912,0
1783266268731041226,2026-07-05T22:44:28.731+07:00,2.367,79690,27950,0
1783266268731041227,2026-07-05T22:44:28.731+07:00,2.367,79881,27950,0
1783266268731041228,2026-07-05T22:44:28.731+07:00,2.367,80059,28010,0
1783266268731041229,2026-07-05T22:44:28.731+07:00,2.367,80163,28031,0
1783266268731041230,2026-07-05T22:44:28.731+07:00,2.367,80390,28059,0
1783266268731041231,2026-07-05T22:44:28.731+07:00,2.367,80627,28185,0
1783266268731041232,2026-07-05T22:44:28.731+07:00,2.367,80808,28268,0
1783266268776517233,2026-07-05T22:44:28.776+07:00,2.412,80876,28263,0
1783266268776517234,2026-07-05T22:44:28.776+07:00,2.412,81001,28263,0
1783266268776517235,2026-07-05T22:44:28.776+07:00,2.412,81138,28307,0
1783266268776517236,2026-07-05T22:44:28.776+07:00,2.412,81287,28374,0
1783266268776517237,2026-07-05T22:44:28.776+07:00,2.412,81471,28419,0
1783266268776517238,2026-07-05T22:44:28.776+07:00,2.412,81621,28464,0
1783266268776517239,2026-07-05T22:44:28.776+07:00,2.412,81841,28571,0
1783266268776517240,2026-07-05T22:44:28.776+07:00,2.412,82016,28668,0
1783266268776517241,2026-07-05T22:44:28.776+07:00,2.412,82098,28725,0
1783266268776517242,2026-07-05T22:44:28.776+07:00,2.412,82238,28765,0
1783266268776517243,2026-07-05T22:44:28.776+07:00,2.412,82344,28800,0
1783266268776517244,2026-07-05T22:44:28.776+07:00,2.412,82438,28828,0
1783266268776517245,2026-07-05T22:44:28.776+07:00,2.412,82521,28857,0
1783266268776517246,2026-07-05T22:44:28.776+07:00,2.412,82556,28851,0
1783266268776517247,2026-07-05T22:44:28.776+07:00,2.412,82699,28944,0
1783266268776517248,2026-07-05T22:44:28.776+07:00,2.412,82830,29026,0
1783266268776517249,2026-07-05T22:44:28.776+07:00,2.412,82925,29043,0
1783266268811133250,2026-07-05T22:44:28.811+07:00,2.447,82973,29090,0
1783266268811133251,2026-07-05T22:44:28.811+07:00,2.447,83021,29085,0
1783266268811133252,2026-07-05T22:44:28.811+07:00,2.447,83116,29132,0
1783266268811133253,2026-07-05T22:44:28.811+07:00,2.447,83140,29138,0
1783266268811133254,2026-07-05T22:44:28.811+07:00,2.447,83188,29143,0
1783266268811133255,2026-07-05T22:44:28.811+07:00,2.447,83285,29220,0
1783266268811133256,2026-07-05T22:44:28.811+07:00,2.447,83393,29298,0
1783266268811133257,2026-07-05T22:44:28.811+07:00,2.447,83429,29339,0
1783266268811133258,2026-07-05T22:44:28.811+07:00,2.447,83417,29333,0
1783266268811133259,2026-07-05T22:44:28.811+07:00,2.447,83417,29315,0
1783266268811133260,2026-07-05T22:44:28.811+07:00,2.447,83466,29345,0
1783266268811133261,2026-07-05T22:44:28.811+07:00,2.447,83490,29345,0
1783266268811133262,2026-07-05T22:44:28.811+07:00,2.447,83466,29333,0
1783266268811133263,2026-07-05T22:44:28.811+07:00,2.447,83599,29405,0
1783266268811133264,2026-07-05T22:44:28.811+07:00,2.447,83696,29477,0
1783266268811133265,2026-07-05T22:44:28.811+07:00,2.447,83720,29484,0
1783266268859052466,2026-07-05T22:44:28.859+07:00,2.495,83757,29538,0
1783266268859052467,2026-07-05T22:44:28.859+07:00,2.495,83867,29532,0
1783266268859052468,2026-07-05T22:44:28.859+07:00,2.495,83928,29599,0
1783266268859052469,2026-07-05T22:44:28.859+07:00,2.495,83989,29623,0
1783266268859052470,2026-07-05T22:44:28.859+07:00,2.495,84063,29654,0
1783266268859052471,2026-07-05T22:44:28.859+07:00,2.495,84259,29758,0
1783266268859052472,2026-07-05T22:44:28.859+07:00,2.495,84432,29900,0
1783266268859052473,2026-07-05T22:44:28.859+07:00,2.495,84544,29918,0
1783266268859052474,2026-07-05T22:44:28.859+07:00,2.495,84606,29968,0
1783266268859052475,2026-07-05T22:44:28.859+07:00,2.495,84705,30012,0
1783266268859052476,2026-07-05T22:44:28.859+07:00,2.495,84818,30050,0
1783266268859052477,2026-07-05T22:44:28.859+07:00,2.495,84918,30094,0
1783266268859052478,2026-07-05T22:44:28.859+07:00,2.495,84930,30112,0
1783266268859052479,2026-07-05T22:44:28.859+07:00,2.495,85118,30239,0
1783266268859052480,2026-07-05T22:44:28.859+07:00,2.495,85295,30334,0
1783266268859052481,2026-07-05T22:44:28.859+07:00,2.495,85383,30398,0
1783266268859052482,2026-07-05T22:44:28.859+07:00,2.495,85472,30411,0
1783266268902691183,2026-07-05T22:44:28.902+07:00,2.538,85548,30437,0
1783266268902691184,2026-07-05T22:44:28.902+07:00,2.538,85637,30508,0
1783266268902691185,2026-07-05T22:44:28.902+07:00,2.538,85727,30521,0
1783266268902691186,2026-07-05T22:44:28.902+07:00,2.538,85778,30521,0
1783266268902691187,2026-07-05T22:44:28.902+07:00,2.538,85918,30625,0
1783266268902691188,2026-07-05T22:44:28.902+07:00,2.538,86034,30710,0
1783266268902691189,2026-07-05T22:44:28.902+07:00,2.538,86150,30742,0
1783266268902691190,2026-07-05T22:44:28.902+07:00,2.538,86175,30762,0
1783266268902691191,2026-07-05T22:44:28.902+07:00,2.538,86214,30762,0
1783266268902691192,2026-07-05T22:44:28.902+07:00,2.538,86292,30788,0
1783266268902691193,2026-07-05T22:44:28.902+07:00,2.538,86330,30802,0
1783266268902691194,2026-07-05T22:44:28.902+07:00,2.538,86408,30802,0
1783266268902691195,2026-07-05T22:44:28.902+07:00,2.538,86551,30921,0
1783266268902691196,2026-07-05T22:44:28.902+07:00,2.538,86694,31007,0
1783266268902691197,2026-07-05T22:44:28.902+07:00,2.538,86760,31034,0
1783266268902691198,2026-07-05T22:44:28.902+07:00,2.538,86851,31074,0
1783266268902691199,2026-07-05T22:44:28.902+07:00,2.538,86917,31074,0
1783266268943954500,2026-07-05T22:44:28.943+07:00,2.580,86982,31121,0
1783266268943954501,2026-07-05T22:44:28.943+07:00,2.580,87048,31155,0
1783266268943954502,2026-07-05T22:44:28.943+07:00,2.580,87061,31121,0
1783266268943954503,2026-07-05T22:44:28.943+07:00,2.580,87127,31209,0
1783266268943954504,2026-07-05T22:44:28.943+07:00,2.580,87259,31277,0
1783266268943954505,2026-07-05T22:44:28.943+07:00,2.580,87272,31283,0
1783266268943954506,2026-07-05T22:44:28.943+07:00,2.580,87285,31297,0
1783266268943954507,2026-07-05T22:44:28.943+07:00,2.580,87299,31283,0
1783266268943954508,2026-07-05T22:44:28.943+07:00,2.580,87325,31304,0
1783266268943954509,2026-07-05T22:44:28.943+07:00,2.580,87365,31277,0
1783266268943954510,2026-07-05T22:44:28.943+07:00,2.580,87299,31270,0
1783266268943954511,2026-07-05T22:44:28.943+07:00,2.580,87365,31338,0
1783266268943954512,2026-07-05T22:44:28.943+07:00,2.580,87431,31393,0
1783266268943954513,2026-07-05T22:44:28.943+07:00,2.580,87458,31420,0
1783266268943954514,2026-07-05T22:44:28.943+07:00,2.580,87391,31352,0
1783266268943954515,2026-07-05T22:44:28.943+07:00,2.580,87405,31365,0
1783266268943954516,2026-07-05T22:44:28.943+07:00,2.580,87391,31386,0
1783266268985845917,2026-07-05T22:44:28.985+07:00,2.622,87352,31358,0
1783266268985845918,2026-07-05T22:44:28.985+07:00,2.622,87259,31311,0
1783266268985845919,2026-07-05T22:44:28.985+07:00,2.622,87312,31358,0
1783266268985845920,2026-07-05T22:44:28.985+07:00,2.622,87338,31420,0
1783266268985845921,2026-07-05T22:44:28.985+07:00,2.622,87285,31372,0
1783266268985845922,2026-07-05T22:44:28.985+07:00,2.622,87167,31317,0
1783266268985845923,2026-07-05T22:44:28.985+07:00,2.622,87114,31304,0
1783266268985845924,2026-07-05T22:44:28.985+07:00,2.622,87022,31297,0
1783266268985845925,2026-07-05T22:44:28.985+07:00,2.622,86995,31270,0
1783266268985845926,2026-07-05T22:44:28.985+07:00,2.622,86825,31209,0
1783266268985845927,2026-07-05T22:44:28.985+07:00,2.622,86890,31270,0
1783266268985845928,2026-07-05T22:44:28.985+07:00,2.622,86930,31345,0
1783266268985845929,2026-07-05T22:44:28.985+07:00,2.622,86930,31365,0
1783266268985845930,2026-07-05T22:44:28.985+07:00,2.622,86890,31352,0
1783266268985845931,2026-07-05T22:44:28.985+07:00,2.622,86904,31338,0
1783266268985845932,2026-07-05T22:44:28.985+07:00,2.622,86825,31365,0
1783266268985845933,2026-07-05T22:44:28.985+07:00,2.622,86851,31331,0
1783266269024054034,2026-07-05T22:44:29.024+07:00,2.660,86812,31311,0
1783266269024054035,2026-07-05T22:44:29.024+07:00,2.660,86825,31393,0
1783266269024054036,2026-07-05T22:44:29.024+07:00,2.660,86786,31427,0
1783266269024054037,2026-07-05T22:44:29.024+07:00,2.660,86694,31399,0
1783266269024054038,2026-07-05T22:44:29.024+07:00,2.660,86681,31420,0
1783266269024054039,2026-07-05T22:44:29.024+07:00,2.660,86786,31475,0
1783266269024054040,2026-07-05T22:44:29.024+07:00,2.660,86930,31578,0
1783266269024054041,2026-07-05T22:44:29.024+07:00,2.660,87233,31718,0
1783266269024054042,2026-07-05T22:44:29.024+07:00,2.660,87458,31809,0
1783266269024054043,2026-07-05T22:44:29.024+07:00,2.660,87778,32007,0
1783266269024054044,2026-07-05T22:44:29.024+07:00,2.660,88033,32150,0
1783266269024054045,2026-07-05T22:44:29.024+07:00,2.660,88235,32279,0
1783266269024054046,2026-07-05T22:44:29.024+07:00,2.660,88520,32403,0
1783266269024054047,2026-07-05T22:44:29.024+07:00,2.660,88724,32520,0
1783266269024054048,2026-07-05T22:44:29.024+07:00,2.660,88916,32645,0
1783266269063887949,2026-07-05T22:44:29.063+07:00,2.700,89095,32727,0
1783266269063887950,2026-07-05T22:44:29.063+07:00,2.700,89246,32809,0
1783266269063887951,2026-07-05T22:44:29.063+07:00,2.700,89440,32974,0
1783266269063887952,2026-07-05T22:44:29.063+07:00,2.700,89607,33103,0
1783266269063887953,2026-07-05T22:44:29.063+07:00,2.700,89747,33217,0
1783266269063887954,2026-07-05T22:44:29.063+07:00,2.700,89943,33325,0
1783266269063887955,2026-07-05T22:44:29.063+07:00,2.700,90183,33433,0
1783266269063887956,2026-07-05T22:44:29.063+07:00,2.700,90338,33574,0
1783266269063887957,2026-07-05T22:44:29.063+07:00,2.700,90494,33684,0
1783266269063887958,2026-07-05T22:44:29.063+07:00,2.700,90665,33763,0
1783266269063887959,2026-07-05T22:44:29.063+07:00,2.700,90952,33946,0
1783266269063887960,2026-07-05T22:44:29.063+07:00,2.700,91153,34123,0
1783266269063887961,2026-07-05T22:44:29.063+07:00,2.700,91356,34261,0
1783266269063887962,2026-07-05T22:44:29.063+07:00,2.700,91559,34359,0
1783266269063887963,2026-07-05T22:44:29.063+07:00,2.700,91719,34474,0
1783266269063887964,2026-07-05T22:44:29.063+07:00,2.700,91954,34598,0
1783266269063887965,2026-07-05T22:44:29.063+07:00,2.700,92160,34707,0
1783266269106736666,2026-07-05T22:44:29.106+07:00,2.742,92322,34816,0
1783266269106736667,2026-07-05T22:44:29.106+07:00,2.742,92589,35002,0
1783266269106736668,2026-07-05T22:44:29.106+07:00,2.742,92873,35182,0
1783266269106736669,2026-07-05T22:44:29.106+07:00,2.742,93053,35294,0
1783266269106736670,2026-07-05T22:44:29.106+07:00,2.742,93264,35406,0
1783266269106736671,2026-07-05T22:44:29.106+07:00,2.742,93476,35502,0
1783266269106736672,2026-07-05T22:44:29.106+07:00,2.742,93673,35617,0
1783266269106736673,2026-07-05T22:44:29.106+07:00,2.742,93887,35714,0
1783266269106736674,2026-07-05T22:44:29.106+07:00,2.742,94040,35820,0
1783266269106736675,2026-07-05T22:44:29.106+07:00,2.742,94287,35973,0
1783266269106736676,2026-07-05T22:44:29.106+07:00,2.742,94519,36150,0
1783266269106736677,2026-07-05T22:44:29.106+07:00,2.742,94627,36186,0
1783266269106736678,2026-07-05T22:44:29.106+07:00,2.742,94768,36259,0
1783266269106736679,2026-07-05T22:44:29.106+07:00,2.742,94908,36253,0
1783266269106736680,2026-07-05T22:44:29.106+07:00,2.742,94986,36320,0
1783266269106736681,2026-07-05T22:44:29.106+07:00,2.742,95143,36345,0
1783266269150196582,2026-07-05T22:44:29.150+07:00,2.786,95222,36394,0
1783266269150196583,2026-07-05T22:44:29.150+07:00,2.786,95427,36517,0
1783266269150196584,2026-07-05T22:44:29.150+07:00,2.786,95617,36616,0
1783266269150196585,2026-07-05T22:44:29.150+07:00,2.786,95744,36641,0
1783266269150196586,2026-07-05T22:44:29.150+07:00,2.786,95840,36715,0
1783266269150196587,2026-07-05T22:44:29.150+07:00,2.786,95968,36747,0
1783266269150196588,2026-07-05T22:44:29.150+07:00,2.786,96048,36759,0
1783266269150196589,2026-07-05T22:44:29.150+07:00,2.786,96192,36791,0
1783266269150196590,2026-07-05T22:44:29.150+07:00,2.786,96208,36791,0
1783266269150196591,2026-07-05T22:44:29.150+07:00,2.786,96401,36891,0
1783266269150196592,2026-07-05T22:44:29.150+07:00,2.786,96530,36998,0
1783266269150196593,2026-07-05T22:44:29.150+07:00,2.786,96611,36986,0
1783266269150196594,2026-07-05T22:44:29.150+07:00,2.786,96644,37024,0
1783266269150196595,2026-07-05T22:44:29.150+07:00,2.786,96741,37017,0
1783266269150196596,2026-07-05T22:44:29.150+07:00,2.786,96806,37049,0
1783266269150196597,2026-07-05T22:44:29.150+07:00,2.786,96904,37075,0
1783266269150196598,2026-07-05T22:44:29.150+07:00,2.786,96920,37056,0
1783266269192329099,2026-07-05T22:44:29.192+07:00,2.828,97035,37145,0
1783266269192329100,2026-07-05T22:44:29.192+07:00,2.828,97116,37209,0
1783266269192329101,2026-07-05T22:44:29.192+07:00,2.828,97149,37196,0
1783266269192329102,2026-07-05T22:44:29.192+07:00,2.828,97149,37196,0
1783266269192329103,2026-07-05T22:44:29.192+07:00,2.828,97198,37170,0
1783266269192329104,2026-07-05T22:44:29.192+07:00,2.828,97215,37209,0
1783266269192329105,2026-07-05T22:44:29.192+07:00,2.828,97280,37202,0
1783266269192329106,2026-07-05T22:44:29.192+07:00,2.828,97264,37177,0
1783266269192329107,2026-07-05T22:44:29.192+07:00,2.828,97363,37273,0
1783266269192329108,2026-07-05T22:44:29.192+07:00,2.828,97478,37325,0
1783266269192329109,2026-07-05T22:44:29.192+07:00,2.828,97494,37331,0
1783266269192329110,2026-07-05T22:44:29.192+07:00,2.828,97511,37344,0
1783266269192329111,2026-07-05T22:44:29.192+07:00,2.828,97544,37344,0
1783266269192329112,2026-07-05T22:44:29.192+07:00,2.828,97560,37331,0
1783266269192329113,2026-07-05T22:44:29.192+07:00,2.828,97544,37331,0
1783266269192329114,2026-07-05T22:44:29.192+07:00,2.828,97594,37318,0
1783266269192329115,2026-07-05T22:44:29.192+07:00,2.828,97676,37396,0
1783266269232209116,2026-07-05T22:44:29.232+07:00,2.868,97743,37441,0
1783266269232209117,2026-07-05T22:44:29.232+07:00,2.868,97759,37409,0
1783266269232209118,2026-07-05T22:44:29.232+07:00,2.868,97709,37389,0
1783266269232209119,2026-07-05T22:44:29.232+07:00,2.868,97726,37370,0
1783266269232209120,2026-07-05T22:44:29.232+07:00,2.868,97693,37337,0
1783266269232209121,2026-07-05T22:44:29.232+07:00,2.868,97693,37286,0
1783266269232209122,2026-07-05T22:44:29.232+07:00,2.868,97577,37241,0
1783266269232209123,2026-07-05T22:44:29.232+07:00,2.868,97643,37273,0
1783266269232209124,2026-07-05T22:44:29.232+07:00,2.868,97643,37267,0
1783266269232209125,2026-07-05T22:44:29.232+07:00,2.868,97594,37215,0
1783266269232209126,2026-07-05T22:44:29.232+07:00,2.868,97494,37151,0
1783266269232209127,2026-07-05T22:44:29.232+07:00,2.868,97428,37043,0
1783266269232209128,2026-07-05T22:44:29.232+07:00,2.868,97346,36992,0
1783266269232209129,2026-07-05T22:44:29.232+07:00,2.868,97280,36897,0
1783266269232209130,2026-07-05T22:44:29.232+07:00,2.868,97149,36803,0
1783266269232209131,2026-07-05T22:44:29.232+07:00,2.868,97165,36778,0
1783266269268969432,2026-07-05T22:44:29.268+07:00,2.905,97133,36772,0
1783266269268969433,2026-07-05T22:44:29.268+07:00,2.905,97035,36691,0
1783266269268969434,2026-07-05T22:44:29.268+07:00,2.905,96937,36572,0
1783266269268969435,2026-07-05T22:44:29.268+07:00,2.905,96822,36486,0
1783266269268969436,2026-07-05T22:44:29.268+07:00,2.905,96725,36388,0
1783266269268969437,2026-07-05T22:44:29.268+07:00,2.905,96660,36284,0
1783266269268969438,2026-07-05T22:44:29.268+07:00,2.905,96530,36180,0
1783266269268969439,2026-07-05T22:44:29.268+07:00,2.905,96514,36156,0
1783266269268969440,2026-07-05T22:44:29.268+07:00,2.905,96482,36132,0
1783266269268969441,2026-07-05T22:44:29.268+07:00,2.905,96417,36054,0
1783266269268969442,2026-07-05T22:44:29.268+07:00,2.905,96288,35937,0
1783266269268969443,2026-07-05T22:44:29.268+07:00,2.905,96208,35901,0
1783266269268969444,2026-07-05T22:44:29.268+07:00,2.905,96144,35776,0
1783266269268969445,2026-07-05T22:44:29.268+07:00,2.905,96048,35732,0
1783266269268969446,2026-07-05T22:44:29.268+07:00,2.905,95936,35625,0
1783266269268969447,2026-07-05T22:44:29.268+07:00,2.905,95968,35661,0
1783266269268969448,2026-07-05T22:44:29.268+07:00,2.905,95968,35617,0
1783266269310732749,2026-07-05T22:44:29.310+07:00,2.946,95904,35573,0
1783266269310732750,2026-07-05T22:44:29.310+07:00,2.946,95824,35520,0
1783266269310732751,2026-07-05T22:44:29.310+07:00,2.946,95808,35459,0
1783266269310732752,2026-07-05T22:44:29.310+07:00,2.946,95776,35415,0
1783266269310732753,2026-07-05T22:44:29.310+07:00,2.946,95744,35328,0
1783266269310732754,2026-07-05T22:44:29.310+07:00,2.946,95633,35285,0
1783266269310732755,2026-07-05T22:44:29.310+07:00,2.946,95665,35302,0
1783266269310732756,2026-07-05T22:44:29.310+07:00,2.946,95760,35337,0
1783266269310732757,2026-07-05T22:44:29.310+07:00,2.946,95696,35311,0
1783266269310732758,2026-07-05T22:44:29.310+07:00,2.946,95665,35276,0
1783266269310732759,2026-07-05T22:44:29.310+07:00,2.946,95665,35225,0
1783266269310732760,2026-07-05T22:44:29.310+07:00,2.946,95617,35207,0
1783266269310732761,2026-07-05T22:44:29.310+07:00,2.946,95569,35199,0
1783266269310732762,2026-07-05T22:44:29.310+07:00,2.946,95601,35130,0
1783266269310732763,2026-07-05T22:44:29.310+07:00,2.946,95649,35182,0
1783266269310732764,2026-07-05T22:44:29.310+07:00,2.946,95681,35216,0
1783266269310732765,2026-07-05T22:44:29.310+07:00,2.946,95681,35225,0
1783266269359164166,2026-07-05T22:44:29.359+07:00,2.995,95681,35199,0
1783266269359164167,2026-07-05T22:44:29.359+07:00,2.995,95681,35164,0
1783266269359164168,2026-07-05T22:44:29.359+07:00,2.995,95681,35173,0
1783266269359164169,2026-07-05T22:44:29.359+07:00,2.995,95712,35121,0
1783266269359164170,2026-07-05T22:44:29.359+07:00,2.995,95617,35113,0
1783266269359164171,2026-07-05T22:44:29.359+07:00,2.995,95728,35147,0
1783266269359164172,2026-07-05T22:44:29.359+07:00,2.995,95776,35199,0
1783266269359164173,2026-07-05T22:44:29.359+07:00,2.995,95824,35199,0
1783266269359164174,2026-07-05T22:44:29.359+07:00,2.995,95792,35199,0
1783266269359164175,2026-07-05T22:44:29.359+07:00,2.995,95760,35147,0
1783266269359164176,2026-07-05T22:44:29.359+07:00,2.995,95776,35164,0
1783266269359164177,2026-07-05T22:44:29.359+07:00,2.995,95776,35139,0
1783266269359164178,2026-07-05T22:44:29.359+07:00,2.995,95744,35121,0
1783266269359164179,2026-07-05T22:44:29.359+07:00,2.995,95760,35113,0
1783266269359164180,2026-07-05T22:44:29.359+07:00,2.995,95808,35190,0
1783266269359164181,2026-07-05T22:44:29.359+07:00,2.995,95808,35190,0
1783266269359164182,2026-07-05T22:44:29.359+07:00,2.995,95744,35147,0
1783266269390443583,2026-07-05T22:44:29.390+07:00,3.026,95665,35113,0
1783266269390443584,2026-07-05T22:44:29.390+07:00,3.026,95696,35096,0
1783266269390443585,2026-07-05T22:44:29.390+07:00,3.026,95633,35079,0
1783266269390443586,2026-07-05T22:44:29.390+07:00,3.026,95554,35027,0
1783266269390443587,2026-07-05T22:44:29.390+07:00,3.026,95585,35053,0
1783266269390443588,2026-07-05T22:44:29.390+07:00,3.026,95585,35104,0
1783266269390443589,2026-07-05T22:44:29.390+07:00,3.026,95569,35062,0
1783266269390443590,2026-07-05T22:44:29.390+07:00,3.026,95506,35036,0
1783266269390443591,2026-07-05T22:44:29.390+07:00,3.026,95459,34993,0
1783266269390443592,2026-07-05T22:44:29.390+07:00,3.026,95380,34985,0
1783266269390443593,2026-07-05T22:44:29.390+07:00,3.026,95395,34951,0
1783266269390443594,2026-07-05T22:44:29.390+07:00,3.026,95316,34917,0
1783266269390443595,2026-07-05T22:44:29.390+07:00,3.026,95364,35002,0
1783266269390443596,2026-07-05T22:44:29.390+07:00,3.026,95459,35019,0
1783266269390443597,2026-07-05T22:44:29.390+07:00,3.026,95427,35019,0
1783266269438745798,2026-07-05T22:44:29.438+07:00,3.074,95411,35027,0
1783266269438745799,2026-07-05T22:44:29.438+07:00,3.074,95443,34985,0
1783266269438745800,2026-07-05T22:44:29.438+07:00,3.074,95443,35019,0
1783266269438745801,2026-07-05T22:44:29.438+07:00,3.074,95459,35019,0
1783266269438745802,2026-07-05T22:44:29.438+07:00,3.074,95443,34985,0
1783266269438745803,2026-07-05T22:44:29.438+07:00,3.074,95506,35087,0
1783266269438745804,2026-07-05T22:44:29.438+07:00,3.074,95617,35139,0
1783266269438745805,2026-07-05T22:44:29.438+07:00,3.074,95633,35147,0
1783266269438745806,2026-07-05T22:44:29.438+07:00,3.074,95617,35164,0
1783266269438745807,2026-07-05T22:44:29.438+07:00,3.074,95665,35173,0
1783266269438745808,2026-07-05T22:44:29.438+07:00,3.074,95681,35182,0
1783266269438745809,2026-07-05T22:44:29.438+07:00,3.074,95696,35139,0
1783266269438745810,2026-07-05T22:44:29.438+07:00,3.074,95681,35139,0
1783266269438745811,2026-07-05T22:44:29.438+07:00,3.074,95760,35242,0
1783266269438745812,2026-07-05T22:44:29.438+07:00,3.074,95840,35302,0
1783266269438745813,2026-07-05T22:44:29.438+07:00,3.074,95824,35294,0
1783266269438745814,2026-07-05T22:44:29.438+07:00,3.074,95824,35276,0
1783266269479172115,2026-07-05T22:44:29.479+07:00,3.115,95840,35294,0
1783266269479172116,2026-07-05T22:44:29.479+07:00,3.115,95856,35285,0
1783266269479172117,2026-07-05T22:44:29.479+07:00,3.115,95840,35276,0
1783266269479172118,2026-07-05T22:44:29.479+07:00,3.115,95808,35259,0
1783266269479172119,2026-07-05T22:44:29.479+07:00,3.115,95904,35328,0
1783266269479172120,2026-07-05T22:44:29.479+07:00,3.115,95968,35380,0
1783266269479172121,2026-07-05T22:44:29.479+07:00,3.115,95952,35354,0
1783266269479172122,2026-07-05T22:44:29.479+07:00,3.115,95952,35380,0
1783266269479172123,2026-07-05T22:44:29.479+07:00,3.115,95936,35354,0
1783266269479172124,2026-07-05T22:44:29.479+07:00,3.115,95952,35346,0
1783266269479172125,2026-07-05T22:44:29.479+07:00,3.115,95888,35328,0
1783266269479172126,2026-07-05T22:44:29.479+07:00,3.115,95888,35294,0
1783266269479172127,2026-07-05T22:44:29.479+07:00,3.115,95904,35354,0
1783266269479172128,2026-07-05T22:44:29.479+07:00,3.115,95984,35380,0
1783266269479172129,2026-07-05T22:44:29.479+07:00,3.115,95968,35372,0
1783266269479172130,2026-07-05T22:44:29.479+07:00,3.115,95936,35354,0
1783266269479172131,2026-07-05T22:44:29.479+07:00,3.115,95920,35346,0
1783266269523572432,2026-07-05T22:44:29.523+07:00,3.159,95888,35346,0
1783266269523572433,2026-07-05T22:44:29.523+07:00,3.159,95856,35311,0
1783266269523572434,2026-07-05T22:44:29.523+07:00,3.159,95776,35259,0
1783266269523572435,2026-07-05T22:44:29.523+07:00,3.159,95856,35302,0
1783266269523572436,2026-07-05T22:44:29.523+07:00,3.159,95904,35354,0
1783266269523572437,2026-07-05T22:44:29.523+07:00,3.159,95904,35346,0
1783266269523572438,2026-07-05T22:44:29.523+07:00,3.159,95840,35311,0
1783266269523572439,2026-07-05T22:44:29.523+07:00,3.159,95856,35276,0
1783266269523572440,2026-07-05T22:44:29.523+07:00,3.159,95856,35285,0
1783266269523572441,2026-07-05T22:44:29.523+07:00,3.159,95824,35259,0
1783266269523572442,2026-07-05T22:44:29.523+07:00,3.159,95776,35259,0
1783266269523572443,2026-07-05T22:44:29.523+07:00,3.159,95808,35268,0
1783266269523572444,2026-07-05T22:44:29.523+07:00,3.159,95904,35337,0
1783266269523572445,2026-07-05T22:44:29.523+07:00,3.159,95888,35328,0
1783266269523572446,2026-07-05T22:44:29.523+07:00,3.159,95840,35311,0
1783266269523572447,2026-07-05T22:44:29.523+07:00,3.159,95888,35294,0
1783266269523572448,2026-07-05T22:44:29.523+07:00,3.159,95856,35268,0
1783266269563913549,2026-07-05T22:44:29.563+07:00,3.200,95872,35259,0
1783266269563913550,2026-07-05T22:44:29.563+07:00,3.200,95792,35225,0
1783266269563913551,2026-07-05T22:44:29.563+07:00,3.200,95824,35285,0
1783266269563913552,2026-07-05T22:44:29.563+07:00,3.200,95920,35346,0
1783266269563913553,2026-07-05T22:44:29.563+07:00,3.200,95888,35311,0
1783266269563913554,2026-07-05T22:44:29.563+07:00,3.200,95856,35285,0
1783266269563913555,2026-07-05T22:44:29.563+07:00,3.200,95872,35233,0
1783266269563913556,2026-07-05T22:44:29.563+07:00,3.200,95840,35233,0
1783266269563913557,2026-07-05T22:44:29.563+07:00,3.200,95808,35216,0
1783266269563913558,2026-07-05T22:44:29.563+07:00,3.200,95760,35207,0
1783266269563913559,2026-07-05T22:44:29.563+07:00,3.200,95808,35250,0
1783266269563913560,2026-07-05T22:44:29.563+07:00,3.200,95872,35311,0
1783266269563913561,2026-07-05T22:44:29.563+07:00,3.200,95840,35294,0
1783266269563913562,2026-07-05T22:44:29.563+07:00,3.200,95840,35233,0
1783266269563913563,2026-07-05T22:44:29.563+07:00,3.200,95792,35250,0
1783266269563913564,2026-07-05T22:44:29.563+07:00,3.200,95776,35216,0
1783266269563913565,2026-07-05T22:44:29.563+07:00,3.200,95776,35190,0
1783266269607229166,2026-07-05T22:44:29.607+07:00,3.243,95681,35156,0
1783266269607229167,2026-07-05T22:44:29.607+07:00,3.243,95776,35216,0
1783266269607229168,2026-07-05T22:44:29.607+07:00,3.243,95856,35294,0
1783266269607229169,2026-07-05T22:44:29.607+07:00,3.243,95824,35259,0
1783266269607229170,2026-07-05T22:44:29.607+07:00,3.243,95808,35259,0
1783266269607229171,2026-07-05T22:44:29.607+07:00,3.243,95792,35259,0
1783266269607229172,2026-07-05T22:44:29.607+07:00,3.243,95808,35242,0
1783266269607229173,2026-07-05T22:44:29.607+07:00,3.243,95792,35225,0
1783266269607229174,2026-07-05T22:44:29.607+07:00,3.243,95760,35199,0
1783266269607229175,2026-07-05T22:44:29.607+07:00,3.243,95824,35259,0
1783266269607229176,2026-07-05T22:44:29.607+07:00,3.243,95920,35311,0
1783266269607229177,2026-07-05T22:44:29.607+07:00,3.243,95888,35328,0
1783266269607229178,2026-07-05T22:44:29.607+07:00,3.243,95888,35311,0
1783266269607229179,2026-07-05T22:44:29.607+07:00,3.243,95904,35302,0
1783266269607229180,2026-07-05T22:44:29.607+07:00,3.243,95872,35276,0
1783266269607229181,2026-07-05T22:44:29.607+07:00,3.243,95888,35285,0
1783266269649019482,2026-07-05T22:44:29.649+07:00,3.285,95856,35276,0
1783266269649019483,2026-07-05T22:44:29.649+07:00,3.285,95968,35346,0
1783266269649019484,2026-07-05T22:44:29.649+07:00,3.285,95984,35424,0
1783266269649019485,2026-07-05T22:44:29.649+07:00,3.285,96016,35398,0
1783266269649019486,2026-07-05T22:44:29.649+07:00,3.285,95984,35398,0
1783266269649019487,2026-07-05T22:44:29.649+07:00,3.285,95968,35380,0
1783266269649019488,2026-07-05T22:44:29.649+07:00,3.285,96000,35380,0
1783266269649019489,2026-07-05T22:44:29.649+07:00,3.285,96016,35389,0
1783266269649019490,2026-07-05T22:44:29.649+07:00,3.285,95968,35354,0
1783266269649019491,2026-07-05T22:44:29.649+07:00,3.285,96064,35415,0
1783266269649019492,2026-07-05T22:44:29.649+07:00,3.285,96128,35476,0
1783266269649019493,2026-07-05T22:44:29.649+07:00,3.285,96112,35485,0
1783266269649019494,2026-07-05T22:44:29.649+07:00,3.285,96112,35459,0
1783266269649019495,2026-07-05T22:44:29.649+07:00,3.285,96096,35467,0
1783266269649019496,2026-07-05T22:44:29.649+07:00,3.285,96096,35441,0
1783266269649019497,2026-07-05T22:44:29.649+07:00,3.285,96112,35459,0
1783266269649019498,2026-07-05T22:44:29.649+07:00,3.285,96080,35424,0
1783266269691336399,2026-07-05T22:44:29.691+07:00,3.327,96128,35485,0
1783266269691336400,2026-07-05T22:44:29.691+07:00,3.327,96224,35573,0
1783266269691336401,2026-07-05T22:44:29.691+07:00,3.327,96192,35573,0
1783266269691336402,2026-07-05T22:44:29.691+07:00,3.327,96176,35564,0
1783266269691336403,2026-07-05T22:44:29.691+07:00,3.327,96224,35555,0
1783266269691336404,2026-07-05T22:44:29.691+07:00,3.327,96192,35555,0
1783266269691336405,2026-07-05T22:44:29.691+07:00,3.327,96192,35538,0
1783266269691336406,2026-07-05T22:44:29.691+07:00,3.327,96128,35520,0
1783266269691336407,2026-07-05T22:44:29.691+07:00,3.327,96224,35573,0
1783266269691336408,2026-07-05T22:44:29.691+07:00,3.327,96304,35634,0
1783266269691336409,2026-07-05T22:44:29.691+07:00,3.327,96288,35634,0
1783266269691336410,2026-07-05T22:44:29.691+07:00,3.327,96272,35634,0
1783266269691336411,2026-07-05T22:44:29.691+07:00,3.327,96288,35608,0
1783266269691336412,2026-07-05T22:44:29.691+07:00,3.327,96288,35625,0
1783266269691336413,2026-07-05T22:44:29.691+07:00,3.327,96272,35617,0
1783266269691336414,2026-07-05T22:44:29.691+07:00,3.327,96256,35599,0
1783266269691336415,2026-07-05T22:44:29.691+07:00,3.327,96304,35670,0
1783266269734300416,2026-07-05T22:44:29.734+07:00,3.370,96385,35749,0
1783266269734300417,2026-07-05T22:44:29.734+07:00,3.370,96385,35705,0
1783266269734300418,2026-07-05T22:44:29.734+07:00,3.370,96385,35687,0
1783266269734300419,2026-07-05T22:44:29.734+07:00,3.370,96385,35705,0
1783266269734300420,2026-07-05T22:44:29.734+07:00,3.370,96417,35723,0
1783266269734300421,2026-07-05T22:44:29.734+07:00,3.370,96417,35678,0
1783266269734300422,2026-07-05T22:44:29.734+07:00,3.370,96385,35696,0
1783266269734300423,2026-07-05T22:44:29.734+07:00,3.370,96450,35740,0
1783266269734300424,2026-07-05T22:44:29.734+07:00,3.370,96530,35820,0
1783266269734300425,2026-07-05T22:44:29.734+07:00,3.370,96514,35820,0
1783266269734300426,2026-07-05T22:44:29.734+07:00,3.370,96514,35803,0
1783266269734300427,2026-07-05T22:44:29.734+07:00,3.370,96514,35794,0
1783266269734300428,2026-07-05T22:44:29.734+07:00,3.370,96514,35776,0
1783266269734300429,2026-07-05T22:44:29.734+07:00,3.370,96514,35785,0
1783266269734300430,2026-07-05T22:44:29.734+07:00,3.370,96482,35749,0
1783266269734300431,2026-07-05T22:44:29.734+07:00,3.370,96547,35829,0
1783266269734300432,2026-07-05T22:44:29.734+07:00,3.370,96660,35901,0
1783266269772862933,2026-07-05T22:44:29.772+07:00,3.409,96660,35883,0
1783266269772862934,2026-07-05T22:44:29.772+07:00,3.409,96644,35901,0
1783266269772862935,2026-07-05T22:44:29.772+07:00,3.409,96692,35874,0
1783266269772862936,2026-07-05T22:44:29.772+07:00,3.409,96660,35892,0
1783266269772862937,2026-07-05T22:44:29.772+07:00,3.409,96692,35865,0
1783266269772862938,2026-07-05T22:44:29.772+07:00,3.409,96660,35874,0
1783266269772862939,2026-07-05T22:44:29.772+07:00,3.409,96709,35919,0
1783266269772862940,2026-07-05T22:44:29.772+07:00,3.409,96822,36048,0
1783266269772862941,2026-07-05T22:44:29.772+07:00,3.409,96806,36024,0
1783266269772862942,2026-07-05T22:44:29.772+07:00,3.409,96774,35973,0
1783266269772862943,2026-07-05T22:44:29.772+07:00,3.409,96806,35991,0
1783266269772862944,2026-07-05T22:44:29.772+07:00,3.409,96806,35964,0
1783266269772862945,2026-07-05T22:44:29.772+07:00,3.409,96806,35982,0
1783266269772862946,2026-07-05T22:44:29.772+07:00,3.409,96774,35964,0
1783266269772862947,2026-07-05T22:44:29.772+07:00,3.409,96855,36054,0
1783266269772862948,2026-07-05T22:44:29.772+07:00,3.409,96937,36114,0
1783266269772862949,2026-07-05T22:44:29.772+07:00,3.409,96937,36102,0
1783266269809130750,2026-07-05T22:44:29.809+07:00,3.445,96937,36108,0
1783266269809130751,2026-07-05T22:44:29.809+07:00,3.445,96920,36078,0
1783266269809130752,2026-07-05T22:44:29.809+07:00,3.445,96969,36072,0
1783266269809130753,2026-07-05T22:44:29.809+07:00,3.445,96953,36060,0
1783266269809130754,2026-07-05T22:44:29.809+07:00,3.445,96904,36042,0
1783266269809130755,2026-07-05T22:44:29.809+07:00,3.445,96986,36108,0
1783266269809130756,2026-07-05T22:44:29.809+07:00,3.445,97067,36174,0
1783266269809130757,2026-07-05T22:44:29.809+07:00,3.445,97116,36193,0
1783266269809130758,2026-07-05T22:44:29.809+07:00,3.445,97100,36168,0
1783266269809130759,2026-07-05T22:44:29.809+07:00,3.445,97084,36156,0
1783266269809130760,2026-07-05T22:44:29.809+07:00,3.445,97116,36156,0
1783266269809130761,2026-07-05T22:44:29.809+07:00,3.445,97100,36144,0
1783266269809130762,2026-07-05T22:44:29.809+07:00,3.445,97035,36138,0
1783266269809130763,2026-07-05T22:44:29.809+07:00,3.445,97165,36205,0
1783266269809130764,2026-07-05T22:44:29.809+07:00,3.445,97182,36259,0
1783266269857527065,2026-07-05T22:44:29.857+07:00,3.493,97198,36265,0
1783266269857527066,2026-07-05T22:44:29.857+07:00,3.493,97165,36229,0
1783266269857527067,2026-07-05T22:44:29.857+07:00,3.493,97198,36229,0
1783266269857527068,2026-07-05T22:44:29.857+07:00,3.493,97165,36235,0
1783266269857527069,2026-07-05T22:44:29.857+07:00,3.493,97165,36211,0
1783266269857527070,2026-07-05T22:44:29.857+07:00,3.493,97165,36199,0
1783266269857527071,2026-07-05T22:44:29.857+07:00,3.493,97198,36253,0
1783266269857527072,2026-07-05T22:44:29.857+07:00,3.493,97297,36308,0
1783266269857527073,2026-07-05T22:44:29.857+07:00,3.493,97248,36302,0
1783266269857527074,2026-07-05T22:44:29.857+07:00,3.493,97231,36302,0
1783266269857527075,2026-07-05T22:44:29.857+07:00,3.493,97248,36284,0
1783266269857527076,2026-07-05T22:44:29.857+07:00,3.493,97264,36296,0
1783266269857527077,2026-07-05T22:44:29.857+07:00,3.493,97231,36272,0
1783266269857527078,2026-07-05T22:44:29.857+07:00,3.493,97182,36247,0
1783266269857527079,2026-07-05T22:44:29.857+07:00,3.493,97297,36302,0
1783266269857527080,2026-07-05T22:44:29.857+07:00,3.493,97330,36357,0
1783266269857527081,2026-07-05T22:44:29.857+07:00,3.493,97346,36357,0
1783266269898983782,2026-07-05T22:44:29.898+07:00,3.535,97297,36345,0
1783266269898983783,2026-07-05T22:44:29.898+07:00,3.535,97313,36320,0
1783266269898983784,2026-07-05T22:44:29.898+07:00,3.535,97330,36333,0
1783266269898983785,2026-07-05T22:44:29.898+07:00,3.535,97330,36314,0
1783266269898983786,2026-07-05T22:44:29.898+07:00,3.535,97264,36308,0
1783266269898983787,2026-07-05T22:44:29.898+07:00,3.535,97363,36375,0
1783266269898983788,2026-07-05T22:44:29.898+07:00,3.535,97412,36455,0
1783266269898983789,2026-07-05T22:44:29.898+07:00,3.535,97445,36418,0
1783266269898983790,2026-07-05T22:44:29.898+07:00,3.535,97412,36437,0
1783266269898983791,2026-07-05T22:44:29.898+07:00,3.535,97428,36412,0
1783266269898983792,2026-07-05T22:44:29.898+07:00,3.535,97461,36388,0
1783266269898983793,2026-07-05T22:44:29.898+07:00,3.535,97428,36382,0
1783266269898983794,2026-07-05T22:44:29.898+07:00,3.535,97363,36400,0
1783266269898983795,2026-07-05T22:44:29.898+07:00,3.535,97461,36418,0
1783266269898983796,2026-07-05T22:44:29.898+07:00,3.535,97527,36486,0
1783266269898983797,2026-07-05T22:44:29.898+07:00,3.535,97494,36468,0
1783266269898983798,2026-07-05T22:44:29.898+07:00,3.535,97494,36449,0
1783266269939088499,2026-07-05T22:44:29.939+07:00,3.575,97494,36461,0
1783266269939088500,2026-07-05T22:44:29.939+07:00,3.575,97461,36437,0
1783266269939088501,2026-07-05T22:44:29.939+07:00,3.575,97494,36418,0
1783266269939088502,2026-07-05T22:44:29.939+07:00,3.575,97445,36406,0
1783266269939088503,2026-07-05T22:44:29.939+07:00,3.575,97511,36474,0
1783266269939088504,2026-07-05T22:44:29.939+07:00,3.575,97544,36511,0
1783266269939088505,2026-07-05T22:44:29.939+07:00,3.575,97577,36529,0
1783266269939088506,2026-07-05T22:44:29.939+07:00,3.575,97527,36517,0
1783266269939088507,2026-07-05T22:44:29.939+07:00,3.575,97560,36504,0
1783266269939088508,2026-07-05T22:44:29.939+07:00,3.575,97527,36468,0
1783266269939088509,2026-07-05T22:44:29.939+07:00,3.575,97544,36492,0
1783266269939088510,2026-07-05T22:44:29.939+07:00,3.575,97511,36455,0
1783266269939088511,2026-07-05T22:44:29.939+07:00,3.575,97577,36523,0
1783266269939088512,2026-07-05T22:44:29.939+07:00,3.575,97660,36597,0
1783266269939088513,2026-07-05T22:44:29.939+07:00,3.575,97660,36579,0
1783266269939088514,2026-07-05T22:44:29.939+07:00,3.575,97660,36579,0
1783266269939088515,2026-07-05T22:44:29.939+07:00,3.575,97643,36579,0
1783266269939088516,2026-07-05T22:44:29.939+07:00,3.575,97709,36610,0
1783266269985856217,2026-07-05T22:44:29.985+07:00,3.622,97660,36554,0
1783266269985856218,2026-07-05T22:44:29.985+07:00,3.622,97693,36566,0
1783266269985856219,2026-07-05T22:44:29.985+07:00,3.622,97759,36622,0
1783266269985856220,2026-07-05T22:44:29.985+07:00,3.622,97826,36697,0
1783266269985856221,2026-07-05T22:44:29.985+07:00,3.622,97826,36709,0
1783266269985856222,2026-07-05T22:44:29.985+07:00,3.622,97809,36703,0
1783266269985856223,2026-07-05T22:44:29.985+07:00,3.622,97826,36684,0
1783266269985856224,2026-07-05T22:44:29.985+07:00,3.622,97875,36697,0
1783266269985856225,2026-07-05T22:44:29.985+07:00,3.622,97842,36691,0
1783266269985856226,2026-07-05T22:44:29.985+07:00,3.622,97859,36659,0
1783266269985856227,2026-07-05T22:44:29.985+07:00,3.622,97925,36740,0
1783266269985856228,2026-07-05T22:44:29.985+07:00,3.622,98009,36816,0
1783266269985856229,2026-07-05T22:44:29.985+07:00,3.622,98009,36816,0
1783266269985856230,2026-07-05T22:44:29.985+07:00,3.622,98009,36784,0
1783266269985856231,2026-07-05T22:44:29.985+07:00,3.622,97992,36784,0
1783266269985856232,2026-07-05T22:44:29.985+07:00,3.622,97992,36803,0
1783266269985856233,2026-07-05T22:44:29.985+07:00,3.622,98009,36784,0
1783266270024366334,2026-07-05T22:44:30.024+07:00,3.660,97975,36753,0
1783266270024366335,2026-07-05T22:44:30.024+07:00,3.660,98042,36834,0
1783266270024366336,2026-07-05T22:44:30.024+07:00,3.660,98126,36891,0
1783266270024366337,2026-07-05T22:44:30.024+07:00,3.660,98109,36847,0
1783266270024366338,2026-07-05T22:44:30.024+07:00,3.660,98059,36847,0
1783266270024366339,2026-07-05T22:44:30.024+07:00,3.660,98059,36834,0
1783266270024366340,2026-07-05T22:44:30.024+07:00,3.660,98075,36809,0
1783266270024366341,2026-07-05T22:44:30.024+07:00,3.660,98025,36791,0
1783266270024366342,2026-07-05T22:44:30.024+07:00,3.660,97925,36753,0
1783266270024366343,2026-07-05T22:44:30.024+07:00,3.660,97992,36784,0
1783266270024366344,2026-07-05T22:44:30.024+07:00,3.660,97992,36834,0
1783266270024366345,2026-07-05T22:44:30.024+07:00,3.660,97959,36765,0
1783266270024366346,2026-07-05T22:44:30.024+07:00,3.660,97859,36709,0
1783266270024366347,2026-07-05T22:44:30.024+07:00,3.660,97759,36653,0
1783266270024366348,2026-07-05T22:44:30.024+07:00,3.660,97709,36616,0
1783266270058806949,2026-07-05T22:44:30.058+07:00,3.695,97627,36529,0
1783266270058806950,2026-07-05T22:44:30.058+07:00,3.695,97511,36449,0
1783266270058806951,2026-07-05T22:44:30.058+07:00,3.695,97494,36437,0
1783266270058806952,2026-07-05T22:44:30.058+07:00,3.695,97445,36424,0
1783266270058806953,2026-07-05T22:44:30.058+07:00,3.695,97297,36363,0
1783266270058806954,2026-07-05T22:44:30.058+07:00,3.695,97198,36253,0
1783266270058806955,2026-07-05T22:44:30.058+07:00,3.695,97051,36156,0
1783266270058806956,2026-07-05T22:44:30.058+07:00,3.695,96953,36066,0
1783266270058806957,2026-07-05T22:44:30.058+07:00,3.695,96822,35946,0
1783266270058806958,2026-07-05T22:44:30.058+07:00,3.695,96676,35874,0
1783266270058806959,2026-07-05T22:44:30.058+07:00,3.695,96611,35829,0
1783266270058806960,2026-07-05T22:44:30.058+07:00,3.695,96579,35820,0
1783266270058806961,2026-07-05T22:44:30.058+07:00,3.695,96450,35740,0
1783266270058806962,2026-07-05T22:44:30.058+07:00,3.695,96288,35625,0
1783266270058806963,2026-07-05T22:44:30.058+07:00,3.695,96176,35546,0
1783266270058806964,2026-07-05T22:44:30.058+07:00,3.695,96064,35467,0
1783266270058806965,2026-07-05T22:44:30.058+07:00,3.695,96000,35354,0
1783266270107231166,2026-07-05T22:44:30.107+07:00,3.743,95808,35276,0
1783266270107231167,2026-07-05T22:44:30.107+07:00,3.743,95776,35259,0
1783266270107231168,2026-07-05T22:44:30.107+07:00,3.743,95776,35250,0
1783266270107231169,2026-07-05T22:44:30.107+07:00,3.743,95633,35173,0
1783266270107231170,2026-07-05T22:44:30.107+07:00,3.743,95506,35104,0
1783266270107231171,2026-07-05T22:44:30.107+07:00,3.743,95459,35027,0
1783266270107231172,2026-07-05T22:44:30.107+07:00,3.743,95380,34976,0
1783266270107231173,2026-07-05T22:44:30.107+07:00,3.743,95316,34926,0
1783266270107231174,2026-07-05T22:44:30.107+07:00,3.743,95206,34841,0
1783266270107231175,2026-07-05T22:44:30.107+07:00,3.743,95175,34816,0
1783266270107231176,2026-07-05T22:44:30.107+07:00,3.743,95222,34866,0
1783266270107231177,2026-07-05T22:44:30.107+07:00,3.743,95127,34833,0
1783266270107231178,2026-07-05T22:44:30.107+07:00,3.743,95080,34732,0
1783266270107231179,2026-07-05T22:44:30.107+07:00,3.743,95018,34698,0
1783266270107231180,2026-07-05T22:44:30.107+07:00,3.743,94971,34698,0
1783266270107231181,2026-07-05T22:44:30.107+07:00,3.743,94924,34640,0
1783266270148916182,2026-07-05T22:44:30.148+07:00,3.785,94877,34623,0
1783266270148916183,2026-07-05T22:44:30.148+07:00,3.785,94892,34657,0
1783266270148916184,2026-07-05T22:44:30.148+07:00,3.785,94986,34707,0
1783266270148916185,2026-07-05T22:44:30.148+07:00,3.785,94955,34690,0
1783266270148916186,2026-07-05T22:44:30.148+07:00,3.785,94924,34673,0
1783266270148916187,2026-07-05T22:44:30.148+07:00,3.785,94908,34648,0
1783266270148916188,2026-07-05T22:44:30.148+07:00,3.785,94908,34623,0
1783266270148916189,2026-07-05T22:44:30.148+07:00,3.785,94892,34632,0
1783266270148916190,2026-07-05T22:44:30.148+07:00,3.785,94877,34607,0
1783266270148916191,2026-07-05T22:44:30.148+07:00,3.785,94939,34657,0
1783266270148916192,2026-07-05T22:44:30.148+07:00,3.785,95033,34723,0
1783266270148916193,2026-07-05T22:44:30.148+07:00,3.785,95049,34723,0
1783266270148916194,2026-07-05T22:44:30.148+07:00,3.785,95049,34690,0
1783266270148916195,2026-07-05T22:44:30.148+07:00,3.785,95018,34707,0
1783266270148916196,2026-07-05T22:44:30.148+07:00,3.785,95018,34698,0
1783266270148916197,2026-07-05T22:44:30.148+07:00,3.785,94971,34682,0
1783266270148916198,2026-07-05T22:44:30.148+07:00,3.785,94971,34682,0
1783266270191553099,2026-07-05T22:44:30.191+07:00,3.827,95065,34707,0
1783266270191553100,2026-07-05T22:44:30.191+07:00,3.827,95112,34799,0
1783266270191553101,2026-07-05T22:44:30.191+07:00,3.827,95112,34807,0
1783266270191553102,2026-07-05T22:44:30.191+07:00,3.827,95127,34774,0
1783266270191553103,2026-07-05T22:44:30.191+07:00,3.827,95127,34765,0
1783266270191553104,2026-07-05T22:44:30.191+07:00,3.827,95112,34782,0
1783266270191553105,2026-07-05T22:44:30.191+07:00,3.827,95096,34765,0
1783266270191553106,2026-07-05T22:44:30.191+07:00,3.827,95049,34732,0
1783266270191553107,2026-07-05T22:44:30.191+07:00,3.827,95175,34782,0
1783266270191553108,2026-07-05T22:44:30.191+07:00,3.827,95190,34883,0
1783266270191553109,2026-07-05T22:44:30.191+07:00,3.827,95222,34866,0
1783266270191553110,2026-07-05T22:44:30.191+07:00,3.827,95206,34858,0
1783266270191553111,2026-07-05T22:44:30.191+07:00,3.827,95222,34849,0
1783266270191553112,2026-07-05T22:44:30.191+07:00,3.827,95253,34833,0
1783266270191553113,2026-07-05T22:44:30.191+07:00,3.827,95222,34849,0
1783266270191553114,2026-07-05T22:44:30.191+07:00,3.827,95190,34816,0
1783266270191553115,2026-07-05T22:44:30.191+07:00,3.827,95269,34875,0
1783266270229070516,2026-07-05T22:44:30.229+07:00,3.865,95364,34942,0
1783266270229070517,2026-07-05T22:44:30.229+07:00,3.865,95364,34934,0
1783266270229070518,2026-07-05T22:44:30.229+07:00,3.865,95332,34900,0
1783266270229070519,2026-07-05T22:44:30.229+07:00,3.865,95332,34909,0
1783266270229070520,2026-07-05T22:44:30.229+07:00,3.865,95316,34900,0
1783266270229070521,2026-07-05T22:44:30.229+07:00,3.865,95348,34883,0
1783266270229070522,2026-07-05T22:44:30.229+07:00,3.865,95301,34866,0
1783266270229070523,2026-07-05T22:44:30.229+07:00,3.865,95364,34909,0
1783266270229070524,2026-07-05T22:44:30.229+07:00,3.865,95459,35019,0
1783266270229070525,2026-07-05T22:44:30.229+07:00,3.865,95474,35010,0
1783266270229070526,2026-07-05T22:44:30.229+07:00,3.865,95474,35002,0
1783266270229070527,2026-07-05T22:44:30.229+07:00,3.865,95459,34985,0
1783266270229070528,2026-07-05T22:44:30.229+07:00,3.865,95506,35010,0
1783266270229070529,2026-07-05T22:44:30.229+07:00,3.865,95474,34976,0
1783266270229070530,2026-07-05T22:44:30.229+07:00,3.865,95474,34985,0
1783266270268873631,2026-07-05T22:44:30.268+07:00,3.905,95522,35036,0
1783266270268873632,2026-07-05T22:44:30.268+07:00,3.905,95633,35087,0
1783266270268873633,2026-07-05T22:44:30.268+07:00,3.905,95649,35121,0
1783266270268873634,2026-07-05T22:44:30.268+07:00,3.905,95601,35104,0
1783266270268873635,2026-07-05T22:44:30.268+07:00,3.905,95617,35104,0
1783266270268873636,2026-07-05T22:44:30.268+07:00,3.905,95633,35121,0
1783266270268873637,2026-07-05T22:44:30.268+07:00,3.905,95649,35113,0
1783266270268873638,2026-07-05T22:44:30.268+07:00,3.905,95633,35130,0
1783266270268873639,2026-07-05T22:44:30.268+07:00,3.905,95712,35182,0
1783266270268873640,2026-07-05T22:44:30.268+07:00,3.905,95744,35276,0
1783266270268873641,2026-07-05T22:44:30.268+07:00,3.905,95824,35233,0
1783266270268873642,2026-07-05T22:44:30.268+07:00,3.905,95792,35225,0
1783266270268873643,2026-07-05T22:44:30.268+07:00,3.905,95808,35225,0
1783266270268873644,2026-07-05T22:44:30.268+07:00,3.905,95792,35233,0
1783266270268873645,2026-07-05T22:44:30.268+07:00,3.905,95840,35250,0
1783266270268873646,2026-07-05T22:44:30.268+07:00,3.905,95808,35225,0
1783266270268873647,2026-07-05T22:44:30.268+07:00,3.905,95872,35285,0
1783266270314148748,2026-07-05T22:44:30.314+07:00,3.950,95968,35346,0
1783266270314148749,2026-07-05T22:44:30.314+07:00,3.950,95936,35328,0
1783266270314148750,2026-07-05T22:44:30.314+07:00,3.950,95920,35346,0
1783266270314148751,2026-07-05T22:44:30.314+07:00,3.950,95952,35320,0
1783266270314148752,2026-07-05T22:44:30.314+07:00,3.950,95936,35320,0
1783266270314148753,2026-07-05T22:44:30.314+07:00,3.950,95920,35320,0
1783266270314148754,2026-07-05T22:44:30.314+07:00,3.950,95888,35294,0
1783266270314148755,2026-07-05T22:44:30.314+07:00,3.950,95968,35346,0
1783266270314148756,2026-07-05T22:44:30.314+07:00,3.950,96032,35389,0
1783266270314148757,2026-07-05T22:44:30.314+07:00,3.950,96032,35389,0
1783266270314148758,2026-07-05T22:44:30.314+07:00,3.950,96016,35389,0
1783266270314148759,2026-07-05T22:44:30.314+07:00,3.950,96032,35363,0
1783266270314148760,2026-07-05T22:44:30.314+07:00,3.950,95952,35363,0
1783266270314148761,2026-07-05T22:44:30.314+07:00,3.950,95968,35320,0
1783266270314148762,2026-07-05T22:44:30.314+07:00,3.950,95936,35294,0
1783266270314148763,2026-07-05T22:44:30.314+07:00,3.950,96000,35346,0
1783266270314148764,2026-07-05T22:44:30.314+07:00,3.950,96048,35398,0
1783266270356870765,2026-07-05T22:44:30.356+07:00,3.993,96016,35389,0
1783266270356870766,2026-07-05T22:44:30.356+07:00,3.993,95984,35363,0
1783266270356870767,2026-07-05T22:44:30.356+07:00,3.993,96016,35346,0
1783266270356870768,2026-07-05T22:44:30.356+07:00,3.993,96016,35337,0
1783266270356870769,2026-07-05T22:44:30.356+07:00,3.993,95984,35337,0
1783266270356870770,2026-07-05T22:44:30.356+07:00,3.993,95904,35294,0
1783266270356870771,2026-07-05T22:44:30.356+07:00,3.993,95984,35346,0
1783266270356870772,2026-07-05T22:44:30.356+07:00,3.993,96064,35389,0
1783266270356870773,2026-07-05T22:44:30.356+07:00,3.993,96000,35389,0
1783266270356870774,2026-07-05T22:44:30.356+07:00,3.993,96016,35363,0
1783266270356870775,2026-07-05T22:44:30.356+07:00,3.993,95984,35363,0
1783266270356870776,2026-07-05T22:44:30.356+07:00,3.993,95952,35337,0
1783266270356870777,2026-07-05T22:44:30.356+07:00,3.993,95968,35320,0
1783266270356870778,2026-07-05T22:44:30.356+07:00,3.993,95952,35294,0
1783266270356870779,2026-07-05T22:44:30.356+07:00,3.993,95968,35337,0
1783266270356870780,2026-07-05T22:44:30.356+07:00,3.993,96064,35441,0
1783266270356870781,2026-07-05T22:44:30.356+07:00,3.993,96080,35389,0
1783266270393825982,2026-07-05T22:44:30.393+07:00,4.030,96032,35398,0
1783266270393825983,2026-07-05T22:44:30.393+07:00,4.030,96000,35346,0
1783266270393825984,2026-07-05T22:44:30.393+07:00,4.030,96000,35406,0
1783266270393825985,2026-07-05T22:44:30.393+07:00,4.030,96016,35346,0
1783266270393825986,2026-07-05T22:44:30.393+07:00,4.030,95936,35328,0
1783266270393825987,2026-07-05T22:44:30.393+07:00,4.030,96000,35372,0
1783266270393825988,2026-07-05T22:44:30.393+07:00,4.030,96096,35450,0
1783266270393825989,2026-07-05T22:44:30.393+07:00,4.030,96080,35450,0
1783266270393825990,2026-07-05T22:44:30.393+07:00,4.030,96064,35433,0
1783266270393825991,2026-07-05T22:44:30.393+07:00,4.030,96064,35424,0
1783266270393825992,2026-07-05T22:44:30.393+07:00,4.030,96080,35406,0
1783266270393825993,2026-07-05T22:44:30.393+07:00,4.030,96080,35406,0
1783266270393825994,2026-07-05T22:44:30.393+07:00,4.030,96032,35380,0
1783266270393825995,2026-07-05T22:44:30.393+07:00,4.030,96144,35441,0
1783266270393825996,2026-07-05T22:44:30.393+07:00,4.030,96208,35520,0
1783266270393825997,2026-07-05T22:44:30.393+07:00,4.030,96240,35502,0
1783266270438930698,2026-07-05T22:44:30.438+07:00,4.075,96176,35467,0
1783266270438930699,2026-07-05T22:44:30.438+07:00,4.075,96192,35476,0
1783266270438930700,2026-07-05T22:44:30.438+07:00,4.075,96160,35450,0
1783266270438930701,2026-07-05T22:44:30.438+07:00,4.075,96176,35450,0
1783266270438930702,2026-07-05T22:44:30.438+07:00,4.075,96160,35450,0
1783266270438930703,2026-07-05T22:44:30.438+07:00,4.075,96240,35520,0
1783266270438930704,2026-07-05T22:44:30.438+07:00,4.075,96288,35590,0
1783266270438930705,2026-07-05T22:44:30.438+07:00,4.075,96304,35573,0
1783266270438930706,2026-07-05T22:44:30.438+07:00,4.075,96304,35555,0
1783266270438930707,2026-07-05T22:44:30.438+07:00,4.075,96304,35564,0
1783266270438930708,2026-07-05T22:44:30.438+07:00,4.075,96304,35573,0
1783266270438930709,2026-07-05T22:44:30.438+07:00,4.075,96304,35573,0
1783266270438930710,2026-07-05T22:44:30.438+07:00,4.075,96272,35546,0
1783266270438930711,2026-07-05T22:44:30.438+07:00,4.075,96353,35599,0
1783266270438930712,2026-07-05T22:44:30.438+07:00,4.075,96450,35661,0
1783266270438930713,2026-07-05T22:44:30.438+07:00,4.075,96433,35670,0
1783266270438930714,2026-07-05T22:44:30.438+07:00,4.075,96433,35678,0
1783266270478729015,2026-07-05T22:44:30.478+07:00,4.114,96417,35652,0
1783266270478729016,2026-07-05T22:44:30.478+07:00,4.114,96466,35643,0
1783266270478729017,2026-07-05T22:44:30.478+07:00,4.114,96450,35634,0
1783266270478729018,2026-07-05T22:44:30.478+07:00,4.114,96417,35634,0
1783266270478729019,2026-07-05T22:44:30.478+07:00,4.114,96482,35678,0
1783266270478729020,2026-07-05T22:44:30.478+07:00,4.114,96547,35767,0
1783266270478729021,2026-07-05T22:44:30.478+07:00,4.114,96563,35767,0
1783266270478729022,2026-07-05T22:44:30.478+07:00,4.114,96530,35749,0
1783266270478729023,2026-07-05T22:44:30.478+07:00,4.114,96530,35723,0
1783266270478729024,2026-07-05T22:44:30.478+07:00,4.114,96547,35758,0
1783266270478729025,2026-07-05T22:44:30.478+07:00,4.114,96547,35732,0
1783266270478729026,2026-07-05T22:44:30.478+07:00,4.114,96514,35714,0
1783266270478729027,2026-07-05T22:44:30.478+07:00,4.114,96611,35767,0
1783266270478729028,2026-07-05T22:44:30.478+07:00,4.114,96676,35820,0
1783266270478729029,2026-07-05T22:44:30.478+07:00,4.114,96692,35820,0
1783266270478729030,2026-07-05T22:44:30.478+07:00,4.114,96660,35829,0
1783266270478729031,2026-07-05T22:44:30.478+07:00,4.114,96660,35811,0
1783266270524479932,2026-07-05T22:44:30.524+07:00,4.160,96676,35829,0
1783266270524479933,2026-07-05T22:44:30.524+07:00,4.160,96692,35820,0
1783266270524479934,2026-07-05T22:44:30.524+07:00,4.160,96676,35794,0
1783266270524479935,2026-07-05T22:44:30.524+07:00,4.160,96741,35892,0
1783266270524479936,2026-07-05T22:44:30.524+07:00,4.160,96806,35946,0
1783266270524479937,2026-07-05T22:44:30.524+07:00,4.160,96806,35937,0
1783266270524479938,2026-07-05T22:44:30.524+07:00,4.160,96790,35901,0
1783266270524479939,2026-07-05T22:44:30.524+07:00,4.160,96839,35910,0
1783266270524479940,2026-07-05T22:44:30.524+07:00,4.160,96822,35919,0
1783266270524479941,2026-07-05T22:44:30.524+07:00,4.160,96790,35901,0
1783266270524479942,2026-07-05T22:44:30.524+07:00,4.160,96774,35901,0
1783266270524479943,2026-07-05T22:44:30.524+07:00,4.160,96871,35964,0
1783266270524479944,2026-07-05T22:44:30.524+07:00,4.160,96937,36060,0
1783266270524479945,2026-07-05T22:44:30.524+07:00,4.160,96937,36048,0
1783266270524479946,2026-07-05T22:44:30.524+07:00,4.160,96920,35991,0
1783266270524479947,2026-07-05T22:44:30.524+07:00,4.160,96937,36012,0
1783266270524479948,2026-07-05T22:44:30.524+07:00,4.160,96953,35964,0
1783266270561438649,2026-07-05T22:44:30.561+07:00,4.197,96937,35982,0
1783266270561438650,2026-07-05T22:44:30.561+07:00,4.197,96920,35991,0
1783266270561438651,2026-07-05T22:44:30.561+07:00,4.197,97018,36072,0
1783266270561438652,2026-07-05T22:44:30.561+07:00,4.197,97100,36126,0
1783266270561438653,2026-07-05T22:44:30.561+07:00,4.197,97084,36126,0
1783266270561438654,2026-07-05T22:44:30.561+07:00,4.197,97084,36120,0
1783266270561438655,2026-07-05T22:44:30.561+07:00,4.197,97116,36096,0
1783266270561438656,2026-07-05T22:44:30.561+07:00,4.197,97067,36090,0
1783266270561438657,2026-07-05T22:44:30.561+07:00,4.197,97051,36096,0
1783266270561438658,2026-07-05T22:44:30.561+07:00,4.197,97018,36060,0
1783266270561438659,2026-07-05T22:44:30.561+07:00,4.197,97133,36138,0
1783266270561438660,2026-07-05T22:44:30.561+07:00,4.197,97198,36186,0
1783266270561438661,2026-07-05T22:44:30.561+07:00,4.197,97198,36180,0
1783266270561438662,2026-07-05T22:44:30.561+07:00,4.197,97165,36168,0
1783266270561438663,2026-07-05T22:44:30.561+07:00,4.197,97182,36156,0
1783266270561438664,2026-07-05T22:44:30.561+07:00,4.197,97198,36150,0
1783266270561438665,2026-07-05T22:44:30.561+07:00,4.197,97165,36162,0
1783266270600741966,2026-07-05T22:44:30.600+07:00,4.236,97165,36126,0
1783266270600741967,2026-07-05T22:44:30.600+07:00,4.236,97231,36193,0
1783266270600741968,2026-07-05T22:44:30.600+07:00,4.236,97313,36284,0
1783266270600741969,2026-07-05T22:44:30.600+07:00,4.236,97313,36272,0
1783266270600741970,2026-07-05T22:44:30.600+07:00,4.236,97297,36265,0
1783266270600741971,2026-07-05T22:44:30.600+07:00,4.236,97297,36265,0
1783266270600741972,2026-07-05T22:44:30.600+07:00,4.236,97330,36272,0
1783266270600741973,2026-07-05T22:44:30.600+07:00,4.236,97280,36235,0
1783266270600741974,2026-07-05T22:44:30.600+07:00,4.236,97280,36235,0
1783266270600741975,2026-07-05T22:44:30.600+07:00,4.236,97363,36308,0
1783266270600741976,2026-07-05T22:44:30.600+07:00,4.236,97461,36363,0
1783266270600741977,2026-07-05T22:44:30.600+07:00,4.236,97461,36369,0
1783266270600741978,2026-07-05T22:44:30.600+07:00,4.236,97428,36375,0
1783266270600741979,2026-07-05T22:44:30.600+07:00,4.236,97461,36351,0
1783266270600741980,2026-07-05T22:44:30.600+07:00,4.236,97428,36357,0
1783266270646093981,2026-07-05T22:44:30.646+07:00,4.282,97428,36345,0
1783266270646093982,2026-07-05T22:44:30.646+07:00,4.282,97379,36302,0
1783266270646093983,2026-07-05T22:44:30.646+07:00,4.282,97445,36375,0
1783266270646093984,2026-07-05T22:44:30.646+07:00,4.282,97544,36468,0
1783266270646093985,2026-07-05T22:44:30.646+07:00,4.282,97544,36449,0
1783266270646093986,2026-07-05T22:44:30.646+07:00,4.282,97527,36437,0
1783266270646093987,2026-07-05T22:44:30.646+07:00,4.282,97527,36418,0
1783266270646093988,2026-07-05T22:44:30.646+07:00,4.282,97544,36412,0
1783266270646093989,2026-07-05T22:44:30.646+07:00,4.282,97544,36400,0
1783266270646093990,2026-07-05T22:44:30.646+07:00,4.282,97461,36382,0
1783266270646093991,2026-07-05T22:44:30.646+07:00,4.282,97594,36455,0
1783266270646093992,2026-07-05T22:44:30.646+07:00,4.282,97643,36535,0
1783266270646093993,2026-07-05T22:44:30.646+07:00,4.282,97693,36529,0
1783266270646093994,2026-07-05T22:44:30.646+07:00,4.282,97643,36523,0
1783266270646093995,2026-07-05T22:44:30.646+07:00,4.282,97660,36511,0
1783266270646093996,2026-07-05T22:44:30.646+07:00,4.282,97660,36511,0
1783266270646093997,2026-07-05T22:44:30.646+07:00,4.282,97643,36511,0
1783266270689004998,2026-07-05T22:44:30.689+07:00,4.325,97627,36461,0
1783266270689004999,2026-07-05T22:44:30.689+07:00,4.325,97693,36554,0
1783266270689005000,2026-07-05T22:44:30.689+07:00,4.325,97809,36616,0
1783266270689005001,2026-07-05T22:44:30.689+07:00,4.325,97792,36597,0
1783266270689005002,2026-07-05T22:44:30.689+07:00,4.325,97776,36591,0
1783266270689005003,2026-07-05T22:44:30.689+07:00,4.325,97726,36585,0
1783266270689005004,2026-07-05T22:44:30.689+07:00,4.325,97776,36579,0
1783266270689005005,2026-07-05T22:44:30.689+07:00,4.325,97759,36566,0
1783266270689005006,2026-07-05T22:44:30.689+07:00,4.325,97743,36585,0
