host_timestamp_ns,host_timestamp_iso,elapsed_s,red,infrared,background
1783771335958250499,2026-07-11T19:02:15.958+07:00,0.074,98204,37934,0
1783771335958250500,2026-07-11T19:02:15.958+07:00,0.074,99396,40891,0
1783771335958250501,2026-07-11T19:02:15.958+07:00,0.074,99705,41546,0
1783771335958250502,2026-07-11T19:02:15.958+07:00,0.074,99774,41739,0
1783771335958250503,2026-07-11T19:02:15.958+07:00,0.074,99843,41823,0
1783771335958250504,2026-07-11T19:02:15.958+07:00,0.074,99826,41854,0
1783771335958250505,2026-07-11T19:02:15.958+07:00,0.074,99895,41890,0
1783771335958250506,2026-07-11T19:02:15.958+07:00,0.074,99947,41933,0
1783771335958250507,2026-07-11T19:02:15.958+07:00,0.074,99982,41951,0
1783771335958250508,2026-07-11T19:02:15.958+07:00,0.074,100017,41958,0
1783771335958250509,2026-07-11T19:02:15.958+07:00,0.074,100017,41970,0
1783771335958250510,2026-07-11T19:02:15.958+07:00,0.074,100034,41964,0
1783771335958250511,2026-07-11T19:02:15.958+07:00,0.074,100069,41988,0
1783771335958250512,2026-07-11T19:02:15.958+07:00,0.074,100086,41994,0
1783771335958250513,2026-07-11T19:02:15.958+07:00,0.074,100139,42019,0
1783771335958250514,2026-07-11T19:02:15.958+07:00,0.074,100121,42007,0
1783771335958250515,2026-07-11T19:02:15.958+07:00,0.074,100156,42049,0
1783771336000746269,2026-07-11T19:02:16.000+07:00,0.116,100173,42062,0
1783771336000746270,2026-07-11T19:02:16.000+07:00,0.116,100208,42068,0
1783771336000746271,2026-07-11T19:02:16.000+07:00,0.116,100208,42074,0
1783771336000746272,2026-07-11T19:02:16.000+07:00,0.116,100261,42086,0
1783771336000746273,2026-07-11T19:02:16.000+07:00,0.116,100278,42080,0
1783771336000746274,2026-07-11T19:02:16.000+07:00,0.116,100278,42092,0
1783771336000746275,2026-07-11T19:02:16.000+07:00,0.116,100313,42129,0
1783771336000746276,2026-07-11T19:02:16.000+07:00,0.116,100348,42148,0
1783771336000746277,2026-07-11T19:02:16.000+07:00,0.116,100383,42154,0
1783771336000746278,2026-07-11T19:02:16.000+07:00,0.116,100383,42166,0
1783771336000746279,2026-07-11T19:02:16.000+07:00,0.116,100418,42191,0
1783771336000746280,2026-07-11T19:02:16.000+07:00,0.116,100453,42203,0
1783771336000746281,2026-07-11T19:02:16.000+07:00,0.116,100435,42191,0
1783771336000746282,2026-07-11T19:02:16.000+07:00,0.116,100435,42216,0
1783771336000746283,2026-07-11T19:02:16.000+07:00,0.116,100470,42234,0
1783771336000746284,2026-07-11T19:02:16.000+07:00,0.116,100523,42234,0
1783771336000746285,2026-07-11T19:02:16.000+07:00,0.116,100506,42278,0
1783771336043961315,2026-07-11T19:02:16.043+07:00,0.159,100541,42259,0
1783771336043961316,2026-07-11T19:02:16.043+07:00,0.159,100558,42284,0
1783771336043961317,2026-07-11T19:02:16.043+07:00,0.159,100576,42290,0
1783771336043961318,2026-07-11T19:02:16.043+07:00,0.159,100558,42296,0
1783771336043961319,2026-07-11T19:02:16.043+07:00,0.159,100611,42340,0
1783771336043961320,2026-07-11T19:02:16.043+07:00,0.159,100611,42321,0
1783771336043961321,2026-07-11T19:02:16.043+07:00,0.159,100646,42340,0
1783771336043961322,2026-07-11T19:02:16.043+07:00,0.159,100664,42352,0
1783771336043961323,2026-07-11T19:02:16.043+07:00,0.159,100681,42365,0
1783771336043961324,2026-07-11T19:02:16.043+07:00,0.159,100664,42365,0
1783771336043961325,2026-07-11T19:02:16.043+07:00,0.159,100699,42352,0
1783771336043961326,2026-07-11T19:02:16.043+07:00,0.159,100664,42352,0
1783771336043961327,2026-07-11T19:02:16.043+07:00,0.159,100699,42365,0
1783771336043961328,2026-07-11T19:02:16.043+07:00,0.159,100699,42340,0
1783771336043961329,2026-07-11T19:02:16.043+07:00,0.159,100681,42346,0
1783771336043961330,2026-07-11T19:02:16.043+07:00,0.159,100664,42321,0
1783771336043961331,2026-07-11T19:02:16.043+07:00,0.159,100646,42303,0
1783771336080580479,2026-07-11T19:02:16.080+07:00,0.196,100593,42259,0
1783771336080580480,2026-07-11T19:02:16.080+07:00,0.196,100576,42203,0
1783771336080580481,2026-07-11T19:02:16.080+07:00,0.196,100488,42179,0
1783771336080580482,2026-07-11T19:02:16.080+07:00,0.196,100488,42123,0
1783771336080580483,2026-07-11T19:02:16.080+07:00,0.196,100435,42074,0
1783771336080580484,2026-07-11T19:02:16.080+07:00,0.196,100400,42043,0
1783771336080580485,2026-07-11T19:02:16.080+07:00,0.196,100348,41964,0
1783771336080580486,2026-07-11T19:02:16.080+07:00,0.196,100296,41939,0
1783771336080580487,2026-07-11T19:02:16.080+07:00,0.196,100243,41897,0
1783771336080580488,2026-07-11T19:02:16.080+07:00,0.196,100191,41842,0
1783771336080580489,2026-07-11T19:02:16.080+07:00,0.196,100139,41775,0
1783771336080580490,2026-07-11T19:02:16.080+07:00,0.196,100086,41708,0
1783771336080580491,2026-07-11T19:02:16.080+07:00,0.196,100052,41678,0
1783771336080580492,2026-07-11T19:02:16.080+07:00,0.196,99982,41642,0
1783771336080580493,2026-07-11T19:02:16.080+07:00,0.196,99930,41576,0
1783771336123023144,2026-07-11T19:02:16.123+07:00,0.239,99878,41516,0
1783771336123023145,2026-07-11T19:02:16.123+07:00,0.239,99861,41480,0
1783771336123023146,2026-07-11T19:02:16.123+07:00,0.239,99809,41426,0
1783771336123023147,2026-07-11T19:02:16.123+07:00,0.239,99757,41379,0
1783771336123023148,2026-07-11T19:02:16.123+07:00,0.239,99705,41361,0
1783771336123023149,2026-07-11T19:02:16.123+07:00,0.239,99653,41343,0
1783771336123023150,2026-07-11T19:02:16.123+07:00,0.239,99653,41284,0
1783771336123023151,2026-07-11T19:02:16.123+07:00,0.239,99619,41278,0
1783771336123023152,2026-07-11T19:02:16.123+07:00,0.239,99619,41254,0
1783771336123023153,2026-07-11T19:02:16.123+07:00,0.239,99567,41219,0
1783771336123023154,2026-07-11T19:02:16.123+07:00,0.239,99550,41189,0
1783771336123023155,2026-07-11T19:02:16.123+07:00,0.239,99585,41184,0
1783771336123023156,2026-07-11T19:02:16.123+07:00,0.239,99567,41178,0
1783771336123023157,2026-07-11T19:02:16.123+07:00,0.239,99567,41166,0
1783771336123023158,2026-07-11T19:02:16.123+07:00,0.239,99516,41172,0
1783771336123023159,2026-07-11T19:02:16.123+07:00,0.239,99550,41166,0
1783771336123023160,2026-07-11T19:02:16.123+07:00,0.239,99533,41154,0
1783771336165599964,2026-07-11T19:02:16.165+07:00,0.281,99533,41160,0
1783771336165599965,2026-07-11T19:02:16.165+07:00,0.281,99550,41172,0
1783771336165599966,2026-07-11T19:02:16.165+07:00,0.281,99567,41160,0
1783771336165599967,2026-07-11T19:02:16.165+07:00,0.281,99602,41184,0
1783771336165599968,2026-07-11T19:02:16.165+07:00,0.281,99619,41184,0
1783771336165599969,2026-07-11T19:02:16.165+07:00,0.281,99636,41195,0
1783771336165599970,2026-07-11T19:02:16.165+07:00,0.281,99619,41189,0
1783771336165599971,2026-07-11T19:02:16.165+07:00,0.281,99636,41213,0
1783771336165599972,2026-07-11T19:02:16.165+07:00,0.281,99671,41225,0
1783771336165599973,2026-07-11T19:02:16.165+07:00,0.281,99671,41248,0
1783771336165599974,2026-07-11T19:02:16.165+07:00,0.281,99671,41248,0
1783771336165599975,2026-07-11T19:02:16.165+07:00,0.281,99705,41278,0
1783771336165599976,2026-07-11T19:02:16.165+07:00,0.281,99705,41296,0
1783771336165599977,2026-07-11T19:02:16.165+07:00,0.281,99740,41296,0
1783771336165599978,2026-07-11T19:02:16.165+07:00,0.281,99740,41325,0
1783771336165599979,2026-07-11T19:02:16.165+07:00,0.281,99757,41319,0
1783771336165599980,2026-07-11T19:02:16.165+07:00,0.281,99774,41337,0
1783771336208015677,2026-07-11T19:02:16.208+07:00,0.324,99826,41349,0
1783771336208015678,2026-07-11T19:02:16.208+07:00,0.324,99861,41397,0
1783771336208015679,2026-07-11T19:02:16.208+07:00,0.324,99878,41432,0
1783771336208015680,2026-07-11T19:02:16.208+07:00,0.324,99930,41450,0
1783771336208015681,2026-07-11T19:02:16.208+07:00,0.324,99947,41474,0
1783771336208015682,2026-07-11T19:02:16.208+07:00,0.324,99965,41486,0
1783771336208015683,2026-07-11T19:02:16.208+07:00,0.324,99982,41522,0
1783771336208015684,2026-07-11T19:02:16.208+07:00,0.324,100052,41534,0
1783771336208015685,2026-07-11T19:02:16.208+07:00,0.324,100052,41552,0
1783771336208015686,2026-07-11T19:02:16.208+07:00,0.324,100052,41576,0
1783771336208015687,2026-07-11T19:02:16.208+07:00,0.324,100086,41612,0
1783771336208015688,2026-07-11T19:02:16.208+07:00,0.324,100156,41636,0
1783771336208015689,2026-07-11T19:02:16.208+07:00,0.324,100156,41660,0
1783771336208015690,2026-07-11T19:02:16.208+07:00,0.324,100191,41678,0
1783771336208015691,2026-07-11T19:02:16.208+07:00,0.324,100191,41727,0
1783771336208015692,2026-07-11T19:02:16.208+07:00,0.324,100243,41757,0
1783771336208015693,2026-07-11T19:02:16.208+07:00,0.324,100278,41775,0
1783771336250415068,2026-07-11T19:02:16.250+07:00,0.366,100330,41811,0
1783771336250415069,2026-07-11T19:02:16.250+07:00,0.366,100348,41817,0
1783771336250415070,2026-07-11T19:02:16.250+07:00,0.366,100383,41866,0
1783771336250415071,2026-07-11T19:02:16.250+07:00,0.366,100435,41897,0
1783771336250415072,2026-07-11T19:02:16.250+07:00,0.366,100453,41927,0
1783771336250415073,2026-07-11T19:02:16.250+07:00,0.366,100470,41939,0
1783771336250415074,2026-07-11T19:02:16.250+07:00,0.366,100558,41988,0
1783771336250415075,2026-07-11T19:02:16.250+07:00,0.366,100611,42019,0
1783771336250415076,2026-07-11T19:02:16.250+07:00,0.366,100593,42043,0
1783771336250415077,2026-07-11T19:02:16.250+07:00,0.366,100646,42074,0
1783771336250415078,2026-07-11T19:02:16.250+07:00,0.366,100681,42086,0
1783771336250415079,2026-07-11T19:02:16.250+07:00,0.366,100716,42136,0
1783771336250415080,2026-07-11T19:02:16.250+07:00,0.366,100769,42154,0
1783771336250415081,2026-07-11T19:02:16.250+07:00,0.366,100752,42191,0
1783771336250415082,2026-07-11T19:02:16.250+07:00,0.366,100822,42216,0
1783771336250415083,2026-07-11T19:02:16.250+07:00,0.366,100840,42216,0
1783771336250415084,2026-07-11T19:02:16.250+07:00,0.366,100893,42253,0
1783771336290659527,2026-07-11T19:02:16.290+07:00,0.406,100857,42259,0
1783771336290659528,2026-07-11T19:02:16.290+07:00,0.406,100964,42303,0
1783771336290659529,2026-07-11T19:02:16.290+07:00,0.406,100964,42340,0
1783771336290659530,2026-07-11T19:02:16.290+07:00,0.406,100999,42359,0
1783771336290659531,2026-07-11T19:02:16.290+07:00,0.406,101017,42377,0
1783771336290659532,2026-07-11T19:02:16.290+07:00,0.406,101034,42384,0
1783771336290659533,2026-07-11T19:02:16.290+07:00,0.406,101070,42402,0
1783771336290659534,2026-07-11T19:02:16.290+07:00,0.406,100999,42415,0
1783771336290659535,2026-07-11T19:02:16.290+07:00,0.406,101034,42440,0
1783771336290659536,2026-07-11T19:02:16.290+07:00,0.406,101123,42440,0
1783771336290659537,2026-07-11T19:02:16.290+07:00,0.406,101141,42477,0
1783771336290659538,2026-07-11T19:02:16.290+07:00,0.406,101141,42484,0
1783771336290659539,2026-07-11T19:02:16.290+07:00,0.406,101176,42490,0
1783771336290659540,2026-07-11T19:02:16.290+07:00,0.406,101141,42490,0
1783771336290659541,2026-07-11T19:02:16.290+07:00,0.406,101159,42471,0
1783771336290659542,2026-07-11T19:02:16.290+07:00,0.406,101159,42471,0
1783771336332989883,2026-07-11T19:02:16.332+07:00,0.449,101194,42502,0
1783771336332989884,2026-07-11T19:02:16.332+07:00,0.449,101194,42521,0
1783771336332989885,2026-07-11T19:02:16.332+07:00,0.449,101212,42515,0
1783771336332989886,2026-07-11T19:02:16.332+07:00,0.449,101176,42509,0
1783771336332989887,2026-07-11T19:02:16.332+07:00,0.449,101194,42521,0
1783771336332989888,2026-07-11T19:02:16.332+07:00,0.449,101194,42496,0
1783771336332989889,2026-07-11T19:02:16.332+07:00,0.449,101194,42496,0
1783771336332989890,2026-07-11T19:02:16.332+07:00,0.449,101194,42477,0
1783771336332989891,2026-07-11T19:02:16.332+07:00,0.449,101159,42452,0
1783771336332989892,2026-07-11T19:02:16.332+07:00,0.449,101159,42452,0
1783771336332989893,2026-07-11T19:02:16.332+07:00,0.449,101123,42459,0
1783771336332989894,2026-07-11T19:02:16.332+07:00,0.449,101141,42427,0
1783771336332989895,2026-07-11T19:02:16.332+07:00,0.449,101141,42434,0
1783771336332989896,2026-07-11T19:02:16.332+07:00,0.449,101141,42402,0
1783771336332989897,2026-07-11T19:02:16.332+07:00,0.449,101088,42384,0
1783771336332989898,2026-07-11T19:02:16.332+07:00,0.449,101070,42365,0
1783771336332989899,2026-07-11T19:02:16.332+07:00,0.449,101088,42377,0
1783771336370449119,2026-07-11T19:02:16.370+07:00,0.486,101070,42384,0
1783771336370449120,2026-07-11T19:02:16.370+07:00,0.486,101105,42377,0
1783771336370449121,2026-07-11T19:02:16.370+07:00,0.486,101052,42334,0
1783771336370449122,2026-07-11T19:02:16.370+07:00,0.486,101088,42352,0
1783771336370449123,2026-07-11T19:02:16.370+07:00,0.486,101052,42340,0
1783771336370449124,2026-07-11T19:02:16.370+07:00,0.486,101070,42321,0
1783771336370449125,2026-07-11T19:02:16.370+07:00,0.486,101034,42309,0
1783771336370449126,2026-07-11T19:02:16.370+07:00,0.486,101034,42290,0
1783771336370449127,2026-07-11T19:02:16.370+07:00,0.486,101070,42296,0
1783771336370449128,2026-07-11T19:02:16.370+07:00,0.486,101034,42315,0
1783771336370449129,2026-07-11T19:02:16.370+07:00,0.486,101070,42290,0
1783771336370449130,2026-07-11T19:02:16.370+07:00,0.486,101017,42296,0
1783771336370449131,2026-07-11T19:02:16.370+07:00,0.486,101034,42284,0
1783771336370449132,2026-07-11T19:02:16.370+07:00,0.486,101034,42272,0
1783771336370449133,2026-07-11T19:02:16.370+07:00,0.486,101017,42259,0
1783771336412955528,2026-07-11T19:02:16.412+07:00,0.528,101034,42272,0
1783771336412955529,2026-07-11T19:02:16.412+07:00,0.528,101034,42265,0
1783771336412955530,2026-07-11T19:02:16.412+07:00,0.528,101017,42265,0
1783771336412955531,2026-07-11T19:02:16.412+07:00,0.528,101034,42284,0
1783771336412955532,2026-07-11T19:02:16.412+07:00,0.528,101052,42272,0
1783771336412955533,2026-07-11T19:02:16.412+07:00,0.528,101052,42272,0
1783771336412955534,2026-07-11T19:02:16.412+07:00,0.528,101088,42290,0
1783771336412955535,2026-07-11T19:02:16.412+07:00,0.528,101052,42265,0
1783771336412955536,2026-07-11T19:02:16.412+07:00,0.528,101034,42272,0
1783771336412955537,2026-07-11T19:02:16.412+07:00,0.528,101052,42290,0
1783771336412955538,2026-07-11T19:02:16.412+07:00,0.528,101052,42284,0
1783771336412955539,2026-07-11T19:02:16.412+07:00,0.528,101052,42303,0
1783771336412955540,2026-07-11T19:02:16.412+07:00,0.528,101070,42296,0
1783771336412955541,2026-07-11T19:02:16.412+07:00,0.528,101034,42296,0
1783771336412955542,2026-07-11T19:02:16.412+07:00,0.528,101070,42303,0
1783771336412955543,2026-07-11T19:02:16.412+07:00,0.528,101070,42296,0
1783771336412955544,2026-07-11T19:02:16.412+07:00,0.528,101123,42321,0
1783771336455289182,2026-07-11T19:02:16.455+07:00,0.571,101123,42334,0
1783771336455289183,2026-07-11T19:02:16.455+07:00,0.571,101123,42334,0
1783771336455289184,2026-07-11T19:02:16.455+07:00,0.571,101123,42340,0
1783771336455289185,2026-07-11T19:02:16.455+07:00,0.571,101141,42340,0
1783771336455289186,2026-07-11T19:02:16.455+07:00,0.571,101159,42365,0
1783771336455289187,2026-07-11T19:02:16.455+07:00,0.571,101123,42346,0
1783771336455289188,2026-07-11T19:02:16.455+07:00,0.571,101159,42346,0
1783771336455289189,2026-07-11T19:02:16.455+07:00,0.571,101141,42377,0
1783771336455289190,2026-07-11T19:02:16.455+07:00,0.571,101176,42365,0
1783771336455289191,2026-07-11T19:02:16.455+07:00,0.571,101212,42396,0
1783771336455289192,2026-07-11T19:02:16.455+07:00,0.571,101176,42409,0
1783771336455289193,2026-07-11T19:02:16.455+07:00,0.571,101212,42409,0
1783771336455289194,2026-07-11T19:02:16.455+07:00,0.571,101230,42427,0
1783771336455289195,2026-07-11T19:02:16.455+07:00,0.571,101230,42415,0
1783771336455289196,2026-07-11T19:02:16.455+07:00,0.571,101265,42415,0
1783771336455289197,2026-07-11T19:02:16.455+07:00,0.571,101248,42440,0
1783771336455289198,2026-07-11T19:02:16.455+07:00,0.571,101265,42465,0
1783771336455289199,2026-07-11T19:02:16.455+07:00,0.571,101265,42471,0
1783771336495559892,2026-07-11T19:02:16.495+07:00,0.611,101301,42452,0
1783771336495559893,2026-07-11T19:02:16.495+07:00,0.611,101319,42477,0
1783771336495559894,2026-07-11T19:02:16.495+07:00,0.611,101319,42477,0
1783771336495559895,2026-07-11T19:02:16.495+07:00,0.611,101337,42490,0
1783771336495559896,2026-07-11T19:02:16.495+07:00,0.611,101354,42484,0
1783771336495559897,2026-07-11T19:02:16.495+07:00,0.611,101354,42490,0
1783771336495559898,2026-07-11T19:02:16.495+07:00,0.611,101354,42509,0
1783771336495559899,2026-07-11T19:02:16.495+07:00,0.611,101337,42502,0
1783771336495559900,2026-07-11T19:02:16.495+07:00,0.611,101319,42477,0
1783771336495559901,2026-07-11T19:02:16.495+07:00,0.611,101301,42490,0
1783771336495559902,2026-07-11T19:02:16.495+07:00,0.611,101319,42452,0
1783771336495559903,2026-07-11T19:02:16.495+07:00,0.611,101230,42427,0
1783771336495559904,2026-07-11T19:02:16.495+07:00,0.611,101230,42390,0
1783771336495559905,2026-07-11T19:02:16.495+07:00,0.611,101176,42346,0
1783771336495559906,2026-07-11T19:02:16.495+07:00,0.611,101141,42328,0
1783771336537913477,2026-07-11T19:02:16.537+07:00,0.653,101123,42290,0
1783771336537913478,2026-07-11T19:02:16.537+07:00,0.653,101088,42253,0
1783771336537913479,2026-07-11T19:02:16.537+07:00,0.653,101034,42210,0
1783771336537913480,2026-07-11T19:02:16.537+07:00,0.653,100946,42142,0
1783771336537913481,2026-07-11T19:02:16.537+07:00,0.653,100893,42099,0
1783771336537913482,2026-07-11T19:02:16.537+07:00,0.653,100822,42043,0
1783771336537913483,2026-07-11T19:02:16.537+07:00,0.653,100769,41994,0
1783771336537913484,2026-07-11T19:02:16.537+07:00,0.653,100716,41939,0
1783771336537913485,2026-07-11T19:02:16.537+07:00,0.653,100716,41915,0
1783771336537913486,2026-07-11T19:02:16.537+07:00,0.653,100646,41854,0
1783771336537913487,2026-07-11T19:02:16.537+07:00,0.653,100576,41799,0
1783771336537913488,2026-07-11T19:02:16.537+07:00,0.653,100558,41733,0
1783771336537913489,2026-07-11T19:02:16.537+07:00,0.653,100506,41684,0
1783771336537913490,2026-07-11T19:02:16.537+07:00,0.653,100488,41648,0
1783771336537913491,2026-07-11T19:02:16.537+07:00,0.653,100383,41600,0
1783771336537913492,2026-07-11T19:02:16.537+07:00,0.653,100348,41588,0
1783771336537913493,2026-07-11T19:02:16.537+07:00,0.653,100348,41552,0
1783771336580508205,2026-07-11T19:02:16.580+07:00,0.696,100296,41504,0
1783771336580508206,2026-07-11T19:02:16.580+07:00,0.696,100261,41462,0
1783771336580508207,2026-07-11T19:02:16.580+07:00,0.696,100261,41438,0
1783771336580508208,2026-07-11T19:02:16.580+07:00,0.696,100208,41415,0
1783771336580508209,2026-07-11T19:02:16.580+07:00,0.696,100156,41385,0
1783771336580508210,2026-07-11T19:02:16.580+07:00,0.696,100156,41373,0
1783771336580508211,2026-07-11T19:02:16.580+07:00,0.696,100139,41367,0
1783771336580508212,2026-07-11T19:02:16.580+07:00,0.696,100139,41349,0
1783771336580508213,2026-07-11T19:02:16.580+07:00,0.696,100086,41337,0
1783771336580508214,2026-07-11T19:02:16.580+07:00,0.696,100104,41325,0
1783771336580508215,2026-07-11T19:02:16.580+07:00,0.696,100104,41314,0
1783771336580508216,2026-07-11T19:02:16.580+07:00,0.696,100069,41290,0
1783771336580508217,2026-07-11T19:02:16.580+07:00,0.696,100086,41296,0
1783771336580508218,2026-07-11T19:02:16.580+07:00,0.696,100069,41308,0
1783771336580508219,2026-07-11T19:02:16.580+07:00,0.696,100104,41331,0
1783771336580508220,2026-07-11T19:02:16.580+07:00,0.696,100104,41331,0
1783771336580508221,2026-07-11T19:02:16.580+07:00,0.696,100121,41325,0
1783771336622857856,2026-07-11T19:02:16.622+07:00,0.738,100156,41337,0
1783771336622857857,2026-07-11T19:02:16.622+07:00,0.738,100121,41355,0
1783771336622857858,2026-07-11T19:02:16.622+07:00,0.738,100173,41349,0
1783771336622857859,2026-07-11T19:02:16.622+07:00,0.738,100191,41367,0
1783771336622857860,2026-07-11T19:02:16.622+07:00,0.738,100208,41379,0
1783771336622857861,2026-07-11T19:02:16.622+07:00,0.738,100208,41403,0
1783771336622857862,2026-07-11T19:02:16.622+07:00,0.738,100243,41426,0
1783771336622857863,2026-07-11T19:02:16.622+07:00,0.738,100261,41438,0
1783771336622857864,2026-07-11T19:02:16.622+07:00,0.738,100243,41462,0
1783771336622857865,2026-07-11T19:02:16.622+07:00,0.738,100348,41468,0
1783771336622857866,2026-07-11T19:02:16.622+07:00,0.738,100313,41498,0
1783771336622857867,2026-07-11T19:02:16.622+07:00,0.738,100348,41516,0
1783771336622857868,2026-07-11T19:02:16.622+07:00,0.738,100400,41558,0
1783771336622857869,2026-07-11T19:02:16.622+07:00,0.738,100383,41540,0
1783771336622857870,2026-07-11T19:02:16.622+07:00,0.738,100418,41546,0
1783771336622857871,2026-07-11T19:02:16.622+07:00,0.738,100470,41582,0
1783771336622857872,2026-07-11T19:02:16.622+07:00,0.738,100488,41606,0
1783771336663993232,2026-07-11T19:02:16.663+07:00,0.780,100470,41630,0
1783771336663993233,2026-07-11T19:02:16.663+07:00,0.780,100488,41654,0
1783771336663993234,2026-07-11T19:02:16.663+07:00,0.780,100541,41666,0
1783771336663993235,2026-07-11T19:02:16.663+07:00,0.780,100576,41702,0
1783771336663993236,2026-07-11T19:02:16.663+07:00,0.780,100593,41727,0
1783771336663993237,2026-07-11T19:02:16.663+07:00,0.780,100628,41733,0
1783771336663993238,2026-07-11T19:02:16.663+07:00,0.780,100628,41763,0
1783771336663993239,2026-07-11T19:02:16.663+07:00,0.780,100664,41817,0
1783771336663993240,2026-07-11T19:02:16.663+07:00,0.780,100699,41811,0
1783771336663993241,2026-07-11T19:02:16.663+07:00,0.780,100681,41830,0
1783771336663993242,2026-07-11T19:02:16.663+07:00,0.780,100699,41848,0
1783771336663993243,2026-07-11T19:02:16.663+07:00,0.780,100805,41878,0
1783771336663993244,2026-07-11T19:02:16.663+07:00,0.780,100805,41915,0
1783771336663993245,2026-07-11T19:02:16.663+07:00,0.780,100857,41921,0
1783771336663993246,2026-07-11T19:02:16.663+07:00,0.780,100857,41951,0
1783771336663993247,2026-07-11T19:02:16.663+07:00,0.780,100875,41988,0
1783771336702832427,2026-07-11T19:02:16.702+07:00,0.818,100875,41988,0
1783771336702832428,2026-07-11T19:02:16.702+07:00,0.818,100893,42013,0
1783771336702832429,2026-07-11T19:02:16.702+07:00,0.818,100928,42007,0
1783771336702832430,2026-07-11T19:02:16.702+07:00,0.818,100946,42025,0
1783771336702832431,2026-07-11T19:02:16.702+07:00,0.818,100946,42056,0
1783771336702832432,2026-07-11T19:02:16.702+07:00,0.818,100964,42056,0
1783771336702832433,2026-07-11T19:02:16.702+07:00,0.818,100964,42074,0
1783771336702832434,2026-07-11T19:02:16.702+07:00,0.818,100964,42074,0
1783771336702832435,2026-07-11T19:02:16.702+07:00,0.818,100964,42074,0
1783771336702832436,2026-07-11T19:02:16.702+07:00,0.818,100946,42074,0
1783771336702832437,2026-07-11T19:02:16.702+07:00,0.818,100964,42074,0
1783771336702832438,2026-07-11T19:02:16.702+07:00,0.818,100999,42074,0
1783771336702832439,2026-07-11T19:02:16.702+07:00,0.818,100981,42086,0
1783771336702832440,2026-07-11T19:02:16.702+07:00,0.818,100928,42074,0
1783771336702832441,2026-07-11T19:02:16.702+07:00,0.818,100946,42062,0
1783771336702832442,2026-07-11T19:02:16.702+07:00,0.818,100928,42037,0
1783771336745329886,2026-07-11T19:02:16.745+07:00,0.861,100911,42025,0
1783771336745329887,2026-07-11T19:02:16.745+07:00,0.861,100875,42019,0
1783771336745329888,2026-07-11T19:02:16.745+07:00,0.861,100840,41976,0
1783771336745329889,2026-07-11T19:02:16.745+07:00,0.861,100840,41964,0
1783771336745329890,2026-07-11T19:02:16.745+07:00,0.861,100805,41951,0
1783771336745329891,2026-07-11T19:02:16.745+07:00,0.861,100805,41927,0
1783771336745329892,2026-07-11T19:02:16.745+07:00,0.861,100787,41890,0
1783771336745329893,2026-07-11T19:02:16.745+07:00,0.861,100734,41878,0
1783771336745329894,2026-07-11T19:02:16.745+07:00,0.861,100699,41817,0
1783771336745329895,2026-07-11T19:02:16.745+07:00,0.861,100681,41781,0
1783771336745329896,2026-07-11T19:02:16.745+07:00,0.861,100628,41757,0
1783771336745329897,2026-07-11T19:02:16.745+07:00,0.861,100611,41739,0
1783771336745329898,2026-07-11T19:02:16.745+07:00,0.861,100593,41684,0
1783771336745329899,2026-07-11T19:02:16.745+07:00,0.861,100576,41660,0
1783771336745329900,2026-07-11T19:02:16.745+07:00,0.861,100523,41606,0
1783771336745329901,2026-07-11T19:02:16.745+07:00,0.861,100488,41588,0
1783771336745329902,2026-07-11T19:02:16.745+07:00,0.861,100435,41540,0
1783771336745329903,2026-07-11T19:02:16.745+07:00,0.861,100383,41516,0
1783771336790197601,2026-07-11T19:02:16.790+07:00,0.906,100313,41450,0
1783771336790197602,2026-07-11T19:02:16.790+07:00,0.906,100296,41426,0
1783771336790197603,2026-07-11T19:02:16.790+07:00,0.906,100296,41397,0
1783771336790197604,2026-07-11T19:02:16.790+07:00,0.906,100243,41355,0
1783771336790197605,2026-07-11T19:02:16.790+07:00,0.906,100208,41314,0
1783771336790197606,2026-07-11T19:02:16.790+07:00,0.906,100139,41284,0
1783771336790197607,2026-07-11T19:02:16.790+07:00,0.906,100121,41231,0
1783771336790197608,2026-07-11T19:02:16.790+07:00,0.906,100086,41213,0
1783771336790197609,2026-07-11T19:02:16.790+07:00,0.906,100034,41178,0
1783771336790197610,2026-07-11T19:02:16.790+07:00,0.906,100052,41178,0
1783771336790197611,2026-07-11T19:02:16.790+07:00,0.906,100052,41184,0
1783771336790197612,2026-07-11T19:02:16.790+07:00,0.906,100000,41160,0
1783771336790197613,2026-07-11T19:02:16.790+07:00,0.906,100069,41172,0
1783771336790197614,2026-07-11T19:02:16.790+07:00,0.906,100034,41160,0
1783771336790197615,2026-07-11T19:02:16.790+07:00,0.906,100000,41136,0
1783771336790197616,2026-07-11T19:02:16.790+07:00,0.906,100000,41131,0
1783771336790197617,2026-07-11T19:02:16.790+07:00,0.906,99982,41113,0
1783771336832688315,2026-07-11T19:02:16.832+07:00,0.948,100017,41142,0
1783771336832688316,2026-07-11T19:02:16.832+07:00,0.948,100017,41154,0
1783771336832688317,2026-07-11T19:02:16.832+07:00,0.948,100034,41154,0
1783771336832688318,2026-07-11T19:02:16.832+07:00,0.948,100052,41142,0
1783771336832688319,2026-07-11T19:02:16.832+07:00,0.948,100052,41154,0
1783771336832688320,2026-07-11T19:02:16.832+07:00,0.948,100052,41166,0
1783771336832688321,2026-07-11T19:02:16.832+07:00,0.948,100017,41178,0
1783771336832688322,2026-07-11T19:02:16.832+07:00,0.948,100052,41166,0
1783771336832688323,2026-07-11T19:02:16.832+07:00,0.948,100052,41178,0
1783771336832688324,2026-07-11T19:02:16.832+07:00,0.948,100121,41213,0
1783771336832688325,2026-07-11T19:02:16.832+07:00,0.948,100121,41207,0
1783771336832688326,2026-07-11T19:02:16.832+07:00,0.948,100104,41243,0
1783771336832688327,2026-07-11T19:02:16.832+07:00,0.948,100121,41248,0
1783771336832688328,2026-07-11T19:02:16.832+07:00,0.948,100191,41278,0
1783771336832688329,2026-07-11T19:02:16.832+07:00,0.948,100208,41290,0
1783771336832688330,2026-07-11T19:02:16.832+07:00,0.948,100243,41314,0
1783771336832688331,2026-07-11T19:02:16.832+07:00,0.948,100261,41325,0
1783771336870086139,2026-07-11T19:02:16.870+07:00,0.986,100278,41373,0
1783771336870086140,2026-07-11T19:02:16.870+07:00,0.986,100296,41379,0
1783771336870086141,2026-07-11T19:02:16.870+07:00,0.986,100348,41409,0
1783771336870086142,2026-07-11T19:02:16.870+07:00,0.986,100365,41450,0
1783771336870086143,2026-07-11T19:02:16.870+07:00,0.986,100383,41468,0
1783771336870086144,2026-07-11T19:02:16.870+07:00,0.986,100453,41504,0
1783771336870086145,2026-07-11T19:02:16.870+07:00,0.986,100470,41522,0
1783771336870086146,2026-07-11T19:02:16.870+07:00,0.986,100523,41570,0
1783771336870086147,2026-07-11T19:02:16.870+07:00,0.986,100541,41606,0
1783771336870086148,2026-07-11T19:02:16.870+07:00,0.986,100558,41636,0
1783771336870086149,2026-07-11T19:02:16.870+07:00,0.986,100611,41654,0
1783771336870086150,2026-07-11T19:02:16.870+07:00,0.986,100664,41720,0
1783771336870086151,2026-07-11T19:02:16.870+07:00,0.986,100681,41714,0
1783771336870086152,2026-07-11T19:02:16.870+07:00,0.986,100734,41757,0
1783771336870086153,2026-07-11T19:02:16.870+07:00,0.986,100752,41787,0
1783771336912499457,2026-07-11T19:02:16.912+07:00,1.028,100787,41836,0
1783771336912499458,2026-07-11T19:02:16.912+07:00,1.028,100840,41872,0
1783771336912499459,2026-07-11T19:02:16.912+07:00,1.028,100893,41909,0
1783771336912499460,2026-07-11T19:02:16.912+07:00,1.028,100928,41939,0
1783771336912499461,2026-07-11T19:02:16.912+07:00,1.028,100928,41970,0
1783771336912499462,2026-07-11T19:02:16.912+07:00,1.028,100999,41982,0
1783771336912499463,2026-07-11T19:02:16.912+07:00,1.028,101052,42019,0
1783771336912499464,2026-07-11T19:02:16.912+07:00,1.028,101070,42043,0
1783771336912499465,2026-07-11T19:02:16.912+07:00,1.028,101105,42099,0
1783771336912499466,2026-07-11T19:02:16.912+07:00,1.028,101123,42136,0
1783771336912499467,2026-07-11T19:02:16.912+07:00,1.028,101194,42154,0
1783771336912499468,2026-07-11T19:02:16.912+07:00,1.028,101230,42203,0
1783771336912499469,2026-07-11T19:02:16.912+07:00,1.028,101248,42222,0
1783771336912499470,2026-07-11T19:02:16.912+07:00,1.028,101283,42259,0
1783771336912499471,2026-07-11T19:02:16.912+07:00,1.028,101337,42290,0
1783771336912499472,2026-07-11T19:02:16.912+07:00,1.028,101354,42334,0
1783771336912499473,2026-07-11T19:02:16.912+07:00,1.028,101372,42346,0
1783771336954978924,2026-07-11T19:02:16.954+07:00,1.071,101426,42390,0
1783771336954978925,2026-07-11T19:02:16.954+07:00,1.071,101479,42446,0
1783771336954978926,2026-07-11T19:02:16.954+07:00,1.071,101515,42459,0
1783771336954978927,2026-07-11T19:02:16.954+07:00,1.071,101515,42477,0
1783771336954978928,2026-07-11T19:02:16.954+07:00,1.071,101569,42502,0
1783771336954978929,2026-07-11T19:02:16.954+07:00,1.071,101587,42521,0
1783771336954978930,2026-07-11T19:02:16.954+07:00,1.071,101605,42546,0
1783771336954978931,2026-07-11T19:02:16.954+07:00,1.071,101641,42572,0
1783771336954978932,2026-07-11T19:02:16.954+07:00,1.071,101659,42603,0
1783771336954978933,2026-07-11T19:02:16.954+07:00,1.071,101712,42628,0
1783771336954978934,2026-07-11T19:02:16.954+07:00,1.071,101659,42628,0
1783771336954978935,2026-07-11T19:02:16.954+07:00,1.071,101694,42616,0
1783771336954978936,2026-07-11T19:02:16.954+07:00,1.071,101694,42603,0
1783771336954978937,2026-07-11T19:02:16.954+07:00,1.071,101659,42584,0
1783771336954978938,2026-07-11T19:02:16.954+07:00,1.071,101659,42540,0
1783771336954978939,2026-07-11T19:02:16.954+07:00,1.071,101605,42534,0
1783771336954978940,2026-07-11T19:02:16.954+07:00,1.071,101569,42471,0
1783771336997544260,2026-07-11T19:02:16.997+07:00,1.113,101497,42427,0
1783771336997544261,2026-07-11T19:02:16.997+07:00,1.113,101390,42352,0
1783771336997544262,2026-07-11T19:02:16.997+07:00,1.113,101319,42278,0
1783771336997544263,2026-07-11T19:02:16.997+07:00,1.113,101265,42234,0
1783771336997544264,2026-07-11T19:02:16.997+07:00,1.113,101212,42148,0
1783771336997544265,2026-07-11T19:02:16.997+07:00,1.113,101123,42062,0
1783771336997544266,2026-07-11T19:02:16.997+07:00,1.113,101070,42007,0
1783771336997544267,2026-07-11T19:02:16.997+07:00,1.113,101017,41951,0
1783771336997544268,2026-07-11T19:02:16.997+07:00,1.113,100964,41884,0
1783771336997544269,2026-07-11T19:02:16.997+07:00,1.113,100875,41842,0
1783771336997544270,2026-07-11T19:02:16.997+07:00,1.113,100805,41769,0
1783771336997544271,2026-07-11T19:02:16.997+07:00,1.113,100769,41708,0
1783771336997544272,2026-07-11T19:02:16.997+07:00,1.113,100681,41654,0
1783771336997544273,2026-07-11T19:02:16.997+07:00,1.113,100664,41630,0
1783771336997544274,2026-07-11T19:02:16.997+07:00,1.113,100628,41594,0
1783771336997544275,2026-07-11T19:02:16.997+07:00,1.113,100593,41558,0
1783771336997544276,2026-07-11T19:02:16.997+07:00,1.113,100576,41516,0
1783771337040626215,2026-07-11T19:02:17.040+07:00,1.156,100506,41480,0
1783771337040626216,2026-07-11T19:02:17.040+07:00,1.156,100488,41444,0
1783771337040626217,2026-07-11T19:02:17.040+07:00,1.156,100470,41415,0
1783771337040626218,2026-07-11T19:02:17.040+07:00,1.156,100400,41373,0
1783771337040626219,2026-07-11T19:02:17.040+07:00,1.156,100365,41337,0
1783771337040626220,2026-07-11T19:02:17.040+07:00,1.156,100348,41337,0
1783771337040626221,2026-07-11T19:02:17.040+07:00,1.156,100383,41308,0
1783771337040626222,2026-07-11T19:02:17.040+07:00,1.156,100348,41308,0
1783771337040626223,2026-07-11T19:02:17.040+07:00,1.156,100383,41308,0
1783771337040626224,2026-07-11T19:02:17.040+07:00,1.156,100330,41278,0
1783771337040626225,2026-07-11T19:02:17.040+07:00,1.156,100313,41248,0
1783771337040626226,2026-07-11T19:02:17.040+07:00,1.156,100261,41225,0
1783771337040626227,2026-07-11T19:02:17.040+07:00,1.156,100313,41213,0
1783771337040626228,2026-07-11T19:02:17.040+07:00,1.156,100296,41225,0
1783771337040626229,2026-07-11T19:02:17.040+07:00,1.156,100278,41243,0
1783771337040626230,2026-07-11T19:02:17.040+07:00,1.156,100313,41237,0
1783771337040626231,2026-07-11T19:02:17.040+07:00,1.156,100296,41213,0
1783771337079904086,2026-07-11T19:02:17.079+07:00,1.195,100296,41201,0
1783771337079904087,2026-07-11T19:02:17.079+07:00,1.195,100261,41201,0
1783771337079904088,2026-07-11T19:02:17.079+07:00,1.195,100261,41184,0
1783771337079904089,2026-07-11T19:02:17.079+07:00,1.195,100243,41184,0
1783771337079904090,2026-07-11T19:02:17.079+07:00,1.195,100261,41189,0
1783771337079904091,2026-07-11T19:02:17.079+07:00,1.195,100313,41207,0
1783771337079904092,2026-07-11T19:02:17.079+07:00,1.195,100278,41219,0
1783771337079904093,2026-07-11T19:02:17.079+07:00,1.195,100261,41213,0
1783771337079904094,2026-07-11T19:02:17.079+07:00,1.195,100278,41219,0
1783771337079904095,2026-07-11T19:02:17.079+07:00,1.195,100296,41225,0
1783771337079904096,2026-07-11T19:02:17.079+07:00,1.195,100243,41207,0
1783771337079904097,2026-07-11T19:02:17.079+07:00,1.195,100296,41207,0
1783771337079904098,2026-07-11T19:02:17.079+07:00,1.195,100278,41225,0
1783771337079904099,2026-07-11T19:02:17.079+07:00,1.195,100296,41237,0
1783771337079904100,2026-07-11T19:02:17.079+07:00,1.195,100313,41243,0
1783771337079904101,2026-07-11T19:02:17.079+07:00,1.195,100278,41231,0
1783771337122505164,2026-07-11T19:02:17.122+07:00,1.238,100330,41243,0
1783771337122505165,2026-07-11T19:02:17.122+07:00,1.238,100313,41260,0
1783771337122505166,2026-07-11T19:02:17.122+07:00,1.238,100348,41260,0
1783771337122505167,2026-07-11T19:02:17.122+07:00,1.238,100348,41278,0
1783771337122505168,2026-07-11T19:02:17.122+07:00,1.238,100383,41302,0
1783771337122505169,2026-07-11T19:02:17.122+07:00,1.238,100418,41325,0
1783771337122505170,2026-07-11T19:02:17.122+07:00,1.238,100435,41343,0
1783771337122505171,2026-07-11T19:02:17.122+07:00,1.238,100453,41361,0
1783771337122505172,2026-07-11T19:02:17.122+07:00,1.238,100488,41361,0
1783771337122505173,2026-07-11T19:02:17.122+07:00,1.238,100453,41373,0
1783771337122505174,2026-07-11T19:02:17.122+07:00,1.238,100453,41385,0
1783771337122505175,2026-07-11T19:02:17.122+07:00,1.238,100506,41379,0
1783771337122505176,2026-07-11T19:02:17.122+07:00,1.238,100506,41403,0
1783771337122505177,2026-07-11T19:02:17.122+07:00,1.238,100576,41420,0
1783771337122505178,2026-07-11T19:02:17.122+07:00,1.238,100593,41438,0
1783771337122505179,2026-07-11T19:02:17.122+07:00,1.238,100558,41468,0
1783771337122505180,2026-07-11T19:02:17.122+07:00,1.238,100611,41474,0
1783771337165112444,2026-07-11T19:02:17.165+07:00,1.281,100646,41486,0
1783771337165112445,2026-07-11T19:02:17.165+07:00,1.281,100646,41510,0
1783771337165112446,2026-07-11T19:02:17.165+07:00,1.281,100664,41504,0
1783771337165112447,2026-07-11T19:02:17.165+07:00,1.281,100664,41570,0
1783771337165112448,2026-07-11T19:02:17.165+07:00,1.281,100699,41564,0
1783771337165112449,2026-07-11T19:02:17.165+07:00,1.281,100734,41594,0
1783771337165112450,2026-07-11T19:02:17.165+07:00,1.281,100752,41600,0
1783771337165112451,2026-07-11T19:02:17.165+07:00,1.281,100787,41600,0
1783771337165112452,2026-07-11T19:02:17.165+07:00,1.281,100769,41612,0
1783771337165112453,2026-07-11T19:02:17.165+07:00,1.281,100787,41630,0
1783771337165112454,2026-07-11T19:02:17.165+07:00,1.281,100822,41636,0
1783771337165112455,2026-07-11T19:02:17.165+07:00,1.281,100822,41654,0
1783771337165112456,2026-07-11T19:02:17.165+07:00,1.281,100875,41666,0
1783771337165112457,2026-07-11T19:02:17.165+07:00,1.281,100893,41696,0
1783771337165112458,2026-07-11T19:02:17.165+07:00,1.281,100893,41720,0
1783771337165112459,2026-07-11T19:02:17.165+07:00,1.281,100911,41720,0
1783771337165112460,2026-07-11T19:02:17.165+07:00,1.281,100911,41720,0
1783771337208110233,2026-07-11T19:02:17.208+07:00,1.324,100928,41733,0
1783771337208110234,2026-07-11T19:02:17.208+07:00,1.324,100928,41751,0
1783771337208110235,2026-07-11T19:02:17.208+07:00,1.324,100981,41769,0
1783771337208110236,2026-07-11T19:02:17.208+07:00,1.324,100981,41781,0
1783771337208110237,2026-07-11T19:02:17.208+07:00,1.324,100999,41781,0
1783771337208110238,2026-07-11T19:02:17.208+07:00,1.324,101070,41787,0
1783771337208110239,2026-07-11T19:02:17.208+07:00,1.324,101017,41805,0
1783771337208110240,2026-07-11T19:02:17.208+07:00,1.324,101017,41805,0
1783771337208110241,2026-07-11T19:02:17.208+07:00,1.324,101034,41811,0
1783771337208110242,2026-07-11T19:02:17.208+07:00,1.324,101034,41823,0
1783771337208110243,2026-07-11T19:02:17.208+07:00,1.324,101052,41860,0
1783771337208110244,2026-07-11T19:02:17.208+07:00,1.324,101088,41848,0
1783771337208110245,2026-07-11T19:02:17.208+07:00,1.324,101105,41872,0
1783771337208110246,2026-07-11T19:02:17.208+07:00,1.324,101123,41890,0
1783771337208110247,2026-07-11T19:02:17.208+07:00,1.324,101105,41872,0
1783771337208110248,2026-07-11T19:02:17.208+07:00,1.324,101123,41890,0
1783771337208110249,2026-07-11T19:02:17.208+07:00,1.324,101105,41872,0
1783771337249698760,2026-07-11T19:02:17.249+07:00,1.365,101123,41878,0
1783771337249698761,2026-07-11T19:02:17.249+07:00,1.365,101105,41878,0
1783771337249698762,2026-07-11T19:02:17.249+07:00,1.365,101159,41921,0
1783771337249698763,2026-07-11T19:02:17.249+07:00,1.365,101141,41927,0
1783771337249698764,2026-07-11T19:02:17.249+07:00,1.365,101159,41890,0
1783771337249698765,2026-07-11T19:02:17.249+07:00,1.365,101159,41890,0
1783771337249698766,2026-07-11T19:02:17.249+07:00,1.365,101159,41915,0
1783771337249698767,2026-07-11T19:02:17.249+07:00,1.365,101105,41884,0
1783771337249698768,2026-07-11T19:02:17.249+07:00,1.365,101141,41909,0
1783771337249698769,2026-07-11T19:02:17.249+07:00,1.365,101141,41897,0
1783771337249698770,2026-07-11T19:02:17.249+07:00,1.365,101123,41903,0
1783771337249698771,2026-07-11T19:02:17.249+07:00,1.365,101159,41890,0
1783771337249698772,2026-07-11T19:02:17.249+07:00,1.365,101123,41897,0
1783771337249698773,2026-07-11T19:02:17.249+07:00,1.365,101123,41897,0
1783771337249698774,2026-07-11T19:02:17.249+07:00,1.365,101105,41878,0
1783771337249698775,2026-07-11T19:02:17.249+07:00,1.365,101070,41854,0
1783771337249698776,2026-07-11T19:02:17.249+07:00,1.365,101070,41872,0
1783771337287220983,2026-07-11T19:02:17.287+07:00,1.403,101105,41848,0
1783771337287220984,2026-07-11T19:02:17.287+07:00,1.403,101105,41860,0
1783771337287220985,2026-07-11T19:02:17.287+07:00,1.403,101105,41842,0
1783771337287220986,2026-07-11T19:02:17.287+07:00,1.403,101088,41866,0
1783771337287220987,2026-07-11T19:02:17.287+07:00,1.403,101105,41860,0
1783771337287220988,2026-07-11T19:02:17.287+07:00,1.403,101105,41830,0
1783771337287220989,2026-07-11T19:02:17.287+07:00,1.403,101088,41848,0
1783771337287220990,2026-07-11T19:02:17.287+07:00,1.403,101070,41817,0
1783771337287220991,2026-07-11T19:02:17.287+07:00,1.403,101052,41823,0
1783771337287220992,2026-07-11T19:02:17.287+07:00,1.403,101034,41823,0
1783771337287220993,2026-07-11T19:02:17.287+07:00,1.403,101052,41836,0
1783771337287220994,2026-07-11T19:02:17.287+07:00,1.403,101070,41817,0
1783771337287220995,2026-07-11T19:02:17.287+07:00,1.403,101034,41842,0
1783771337287220996,2026-07-11T19:02:17.287+07:00,1.403,100999,41830,0
1783771337287220997,2026-07-11T19:02:17.287+07:00,1.403,101034,41805,0
1783771337329808196,2026-07-11T19:02:17.329+07:00,1.445,101017,41811,0
1783771337329808197,2026-07-11T19:02:17.329+07:00,1.445,101034,41805,0
1783771337329808198,2026-07-11T19:02:17.329+07:00,1.445,101034,41830,0
1783771337329808199,2026-07-11T19:02:17.329+07:00,1.445,101052,41830,0
1783771337329808200,2026-07-11T19:02:17.329+07:00,1.445,101052,41836,0
1783771337329808201,2026-07-11T19:02:17.329+07:00,1.445,101088,41836,0
1783771337329808202,2026-07-11T19:02:17.329+07:00,1.445,101052,41854,0
1783771337329808203,2026-07-11T19:02:17.329+07:00,1.445,101088,41848,0
1783771337329808204,2026-07-11T19:02:17.329+07:00,1.445,101070,41854,0
1783771337329808205,2026-07-11T19:02:17.329+07:00,1.445,101088,41854,0
1783771337329808206,2026-07-11T19:02:17.329+07:00,1.445,101105,41872,0
1783771337329808207,2026-07-11T19:02:17.329+07:00,1.445,101159,41872,0
1783771337329808208,2026-07-11T19:02:17.329+07:00,1.445,101123,41884,0
1783771337329808209,2026-07-11T19:02:17.329+07:00,1.445,101123,41872,0
1783771337329808210,2026-07-11T19:02:17.329+07:00,1.445,101123,41884,0
1783771337329808211,2026-07-11T19:02:17.329+07:00,1.445,101105,41884,0
1783771337329808212,2026-07-11T19:02:17.329+07:00,1.445,101123,41878,0
1783771337369946439,2026-07-11T19:02:17.369+07:00,1.485,101194,41921,0
1783771337369946440,2026-07-11T19:02:17.369+07:00,1.485,101194,41939,0
1783771337369946441,2026-07-11T19:02:17.369+07:00,1.485,101212,41945,0
1783771337369946442,2026-07-11T19:02:17.369+07:00,1.485,101194,41958,0
1783771337369946443,2026-07-11T19:02:17.369+07:00,1.485,101230,41933,0
1783771337369946444,2026-07-11T19:02:17.369+07:00,1.485,101248,41958,0
1783771337369946445,2026-07-11T19:02:17.369+07:00,1.485,101248,41964,0
1783771337369946446,2026-07-11T19:02:17.369+07:00,1.485,101248,41994,0
1783771337369946447,2026-07-11T19:02:17.369+07:00,1.485,101283,41982,0
1783771337369946448,2026-07-11T19:02:17.369+07:00,1.485,101301,42007,0
1783771337369946449,2026-07-11T19:02:17.369+07:00,1.485,101283,42000,0
1783771337369946450,2026-07-11T19:02:17.369+07:00,1.485,101301,42013,0
1783771337369946451,2026-07-11T19:02:17.369+07:00,1.485,101283,42013,0
1783771337369946452,2026-07-11T19:02:17.369+07:00,1.485,101265,41976,0
1783771337369946453,2026-07-11T19:02:17.369+07:00,1.485,101248,41976,0
1783771337369946454,2026-07-11T19:02:17.369+07:00,1.485,101248,41958,0
1783771337412127255,2026-07-11T19:02:17.412+07:00,1.528,101230,41945,0
1783771337412127256,2026-07-11T19:02:17.412+07:00,1.528,101194,41909,0
1783771337412127257,2026-07-11T19:02:17.412+07:00,1.528,101159,41890,0
1783771337412127258,2026-07-11T19:02:17.412+07:00,1.528,101123,41860,0
1783771337412127259,2026-07-11T19:02:17.412+07:00,1.528,101070,41799,0
1783771337412127260,2026-07-11T19:02:17.412+07:00,1.528,101052,41763,0
1783771337412127261,2026-07-11T19:02:17.412+07:00,1.528,100964,41727,0
1783771337412127262,2026-07-11T19:02:17.412+07:00,1.528,100946,41654,0
1783771337412127263,2026-07-11T19:02:17.412+07:00,1.528,100875,41618,0
1783771337412127264,2026-07-11T19:02:17.412+07:00,1.528,100805,41582,0
1783771337412127265,2026-07-11T19:02:17.412+07:00,1.528,100769,41516,0
1783771337412127266,2026-07-11T19:02:17.412+07:00,1.528,100716,41468,0
1783771337412127267,2026-07-11T19:02:17.412+07:00,1.528,100664,41420,0
1783771337412127268,2026-07-11T19:02:17.412+07:00,1.528,100611,41343,0
1783771337412127269,2026-07-11T19:02:17.412+07:00,1.528,100523,41308,0
1783771337412127270,2026-07-11T19:02:17.412+07:00,1.528,100488,41254,0
1783771337412127271,2026-07-11T19:02:17.412+07:00,1.528,100453,41219,0
1783771337454765089,2026-07-11T19:02:17.454+07:00,1.570,100400,41184,0
1783771337454765090,2026-07-11T19:02:17.454+07:00,1.570,100348,41119,0
1783771337454765091,2026-07-11T19:02:17.454+07:00,1.570,100296,41066,0
1783771337454765092,2026-07-11T19:02:17.454+07:00,1.570,100261,41054,0
1783771337454765093,2026-07-11T19:02:17.454+07:00,1.570,100226,40996,0
1783771337454765094,2026-07-11T19:02:17.454+07:00,1.570,100156,40955,0
1783771337454765095,2026-07-11T19:02:17.454+07:00,1.570,100121,40909,0
1783771337454765096,2026-07-11T19:02:17.454+07:00,1.570,100104,40880,0
1783771337454765097,2026-07-11T19:02:17.454+07:00,1.570,100086,40862,0
1783771337454765098,2026-07-11T19:02:17.454+07:00,1.570,100052,40839,0
1783771337454765099,2026-07-11T19:02:17.454+07:00,1.570,100017,40822,0
1783771337454765100,2026-07-11T19:02:17.454+07:00,1.570,100000,40810,0
1783771337454765101,2026-07-11T19:02:17.454+07:00,1.570,100000,40787,0
1783771337454765102,2026-07-11T19:02:17.454+07:00,1.570,99982,40775,0
1783771337454765103,2026-07-11T19:02:17.454+07:00,1.570,99947,40741,0
1783771337454765104,2026-07-11T19:02:17.454+07:00,1.570,99965,40723,0
1783771337454765105,2026-07-11T19:02:17.454+07:00,1.570,99947,40735,0
1783771337492428142,2026-07-11T19:02:17.492+07:00,1.608,99947,40729,0
1783771337492428143,2026-07-11T19:02:17.492+07:00,1.608,99913,40723,0
1783771337492428144,2026-07-11T19:02:17.492+07:00,1.608,99895,40718,0
1783771337492428145,2026-07-11T19:02:17.492+07:00,1.608,99913,40689,0
1783771337492428146,2026-07-11T19:02:17.492+07:00,1.608,99913,40706,0
1783771337492428147,2026-07-11T19:02:17.492+07:00,1.608,99895,40689,0
1783771337492428148,2026-07-11T19:02:17.492+07:00,1.608,99895,40700,0
1783771337492428149,2026-07-11T19:02:17.492+07:00,1.608,99895,40700,0
1783771337492428150,2026-07-11T19:02:17.492+07:00,1.608,99930,40689,0
1783771337492428151,2026-07-11T19:02:17.492+07:00,1.608,99947,40712,0
1783771337492428152,2026-07-11T19:02:17.492+07:00,1.608,99895,40700,0
1783771337492428153,2026-07-11T19:02:17.492+07:00,1.608,99913,40695,0
1783771337492428154,2026-07-11T19:02:17.492+07:00,1.608,99878,40706,0
1783771337492428155,2026-07-11T19:02:17.492+07:00,1.608,99913,40700,0
1783771337492428156,2026-07-11T19:02:17.492+07:00,1.608,99913,40729,0
1783771337534632753,2026-07-11T19:02:17.534+07:00,1.650,99982,40741,0
1783771337534632754,2026-07-11T19:02:17.534+07:00,1.650,100000,40752,0
1783771337534632755,2026-07-11T19:02:17.534+07:00,1.650,99982,40747,0
1783771337534632756,2026-07-11T19:02:17.534+07:00,1.650,100000,40770,0
1783771337534632757,2026-07-11T19:02:17.534+07:00,1.650,100017,40770,0
1783771337534632758,2026-07-11T19:02:17.534+07:00,1.650,100034,40781,0
1783771337534632759,2026-07-11T19:02:17.534+07:00,1.650,100017,40775,0
1783771337534632760,2026-07-11T19:02:17.534+07:00,1.650,100034,40798,0
1783771337534632761,2026-07-11T19:02:17.534+07:00,1.650,100069,40833,0
1783771337534632762,2026-07-11T19:02:17.534+07:00,1.650,100052,40822,0
1783771337534632763,2026-07-11T19:02:17.534+07:00,1.650,100086,40845,0
1783771337534632764,2026-07-11T19:02:17.534+07:00,1.650,100121,40851,0
1783771337534632765,2026-07-11T19:02:17.534+07:00,1.650,100121,40868,0
1783771337534632766,2026-07-11T19:02:17.534+07:00,1.650,100121,40862,0
1783771337534632767,2026-07-11T19:02:17.534+07:00,1.650,100121,40885,0
1783771337534632768,2026-07-11T19:02:17.534+07:00,1.650,100139,40885,0
1783771337534632769,2026-07-11T19:02:17.534+07:00,1.650,100173,40914,0
1783771337577025797,2026-07-11T19:02:17.577+07:00,1.693,100173,40920,0
1783771337577025798,2026-07-11T19:02:17.577+07:00,1.693,100208,40949,0
1783771337577025799,2026-07-11T19:02:17.577+07:00,1.693,100226,40938,0
1783771337577025800,2026-07-11T19:02:17.577+07:00,1.693,100226,40967,0
1783771337577025801,2026-07-11T19:02:17.577+07:00,1.693,100226,40996,0
1783771337577025802,2026-07-11T19:02:17.577+07:00,1.693,100243,40978,0
1783771337577025803,2026-07-11T19:02:17.577+07:00,1.693,100278,40984,0
1783771337577025804,2026-07-11T19:02:17.577+07:00,1.693,100296,41025,0
1783771337577025805,2026-07-11T19:02:17.577+07:00,1.693,100330,41054,0
1783771337577025806,2026-07-11T19:02:17.577+07:00,1.693,100330,41072,0
1783771337577025807,2026-07-11T19:02:17.577+07:00,1.693,100365,41084,0
1783771337577025808,2026-07-11T19:02:17.577+07:00,1.693,100400,41090,0
1783771337577025809,2026-07-11T19:02:17.577+07:00,1.693,100383,41113,0
1783771337577025810,2026-07-11T19:02:17.577+07:00,1.693,100400,41131,0
1783771337577025811,2026-07-11T19:02:17.577+07:00,1.693,100418,41131,0
1783771337577025812,2026-07-11T19:02:17.577+07:00,1.693,100470,41154,0
1783771337577025813,2026-07-11T19:02:17.577+07:00,1.693,100488,41178,0
1783771337577025814,2026-07-11T19:02:17.577+07:00,1.693,100523,41207,0
1783771337622031284,2026-07-11T19:02:17.622+07:00,1.738,100523,41231,0
1783771337622031285,2026-07-11T19:02:17.622+07:00,1.738,100541,41225,0
1783771337622031286,2026-07-11T19:02:17.622+07:00,1.738,100541,41231,0
1783771337622031287,2026-07-11T19:02:17.622+07:00,1.738,100523,41237,0
1783771337622031288,2026-07-11T19:02:17.622+07:00,1.738,100576,41243,0
1783771337622031289,2026-07-11T19:02:17.622+07:00,1.738,100576,41248,0
1783771337622031290,2026-07-11T19:02:17.622+07:00,1.738,100576,41290,0
1783771337622031291,2026-07-11T19:02:17.622+07:00,1.738,100593,41272,0
1783771337622031292,2026-07-11T19:02:17.622+07:00,1.738,100576,41296,0
1783771337622031293,2026-07-11T19:02:17.622+07:00,1.738,100628,41302,0
1783771337622031294,2026-07-11T19:02:17.622+07:00,1.738,100611,41296,0
1783771337622031295,2026-07-11T19:02:17.622+07:00,1.738,100593,41314,0
1783771337622031296,2026-07-11T19:02:17.622+07:00,1.738,100628,41314,0
1783771337622031297,2026-07-11T19:02:17.622+07:00,1.738,100646,41314,0
1783771337622031298,2026-07-11T19:02:17.622+07:00,1.738,100646,41314,0
1783771337622031299,2026-07-11T19:02:17.622+07:00,1.738,100628,41319,0
1783771337622031300,2026-07-11T19:02:17.622+07:00,1.738,100593,41302,0
1783771337659331655,2026-07-11T19:02:17.659+07:00,1.775,100628,41314,0
1783771337659331656,2026-07-11T19:02:17.659+07:00,1.775,100628,41284,0
1783771337659331657,2026-07-11T19:02:17.659+07:00,1.775,100628,41314,0
1783771337659331658,2026-07-11T19:02:17.659+07:00,1.775,100628,41308,0
1783771337659331659,2026-07-11T19:02:17.659+07:00,1.775,100646,41296,0
1783771337659331660,2026-07-11T19:02:17.659+07:00,1.775,100628,41296,0
1783771337659331661,2026-07-11T19:02:17.659+07:00,1.775,100628,41296,0
1783771337659331662,2026-07-11T19:02:17.659+07:00,1.775,100576,41302,0
1783771337659331663,2026-07-11T19:02:17.659+07:00,1.775,100628,41284,0
1783771337659331664,2026-07-11T19:02:17.659+07:00,1.775,100611,41278,0
1783771337659331665,2026-07-11T19:02:17.659+07:00,1.775,100628,41243,0
1783771337659331666,2026-07-11T19:02:17.659+07:00,1.775,100611,41272,0
1783771337659331667,2026-07-11T19:02:17.659+07:00,1.775,100664,41290,0
1783771337659331668,2026-07-11T19:02:17.659+07:00,1.775,100664,41296,0
1783771337659331669,2026-07-11T19:02:17.659+07:00,1.775,100646,41290,0
1783771337659331670,2026-07-11T19:02:17.659+07:00,1.775,100611,41266,0
1783771337701968535,2026-07-11T19:02:17.701+07:00,1.817,100611,41266,0
1783771337701968536,2026-07-11T19:02:17.701+07:00,1.817,100593,41243,0
1783771337701968537,2026-07-11T19:02:17.701+07:00,1.817,100628,41248,0
1783771337701968538,2026-07-11T19:02:17.701+07:00,1.817,100593,41254,0
1783771337701968539,2026-07-11T19:02:17.701+07:00,1.817,100593,41260,0
1783771337701968540,2026-07-11T19:02:17.701+07:00,1.817,100611,41260,0
1783771337701968541,2026-07-11T19:02:17.701+07:00,1.817,100628,41278,0
1783771337701968542,2026-07-11T19:02:17.701+07:00,1.817,100611,41260,0
1783771337701968543,2026-07-11T19:02:17.701+07:00,1.817,100611,41248,0
1783771337701968544,2026-07-11T19:02:17.701+07:00,1.817,100628,41243,0
1783771337701968545,2026-07-11T19:02:17.701+07:00,1.817,100611,41254,0
1783771337701968546,2026-07-11T19:02:17.701+07:00,1.817,100628,41248,0
1783771337701968547,2026-07-11T19:02:17.701+07:00,1.817,100646,41290,0
1783771337701968548,2026-07-11T19:02:17.701+07:00,1.817,100628,41278,0
1783771337701968549,2026-07-11T19:02:17.701+07:00,1.817,100664,41290,0
1783771337701968550,2026-07-11T19:02:17.701+07:00,1.817,100664,41284,0
1783771337744667827,2026-07-11T19:02:17.744+07:00,1.860,100646,41284,0
1783771337744667828,2026-07-11T19:02:17.744+07:00,1.860,100681,41302,0
1783771337744667829,2026-07-11T19:02:17.744+07:00,1.860,100664,41302,0
1783771337744667830,2026-07-11T19:02:17.744+07:00,1.860,100716,41314,0
1783771337744667831,2026-07-11T19:02:17.744+07:00,1.860,100734,41337,0
1783771337744667832,2026-07-11T19:02:17.744+07:00,1.860,100752,41337,0
1783771337744667833,2026-07-11T19:02:17.744+07:00,1.860,100734,41349,0
1783771337744667834,2026-07-11T19:02:17.744+07:00,1.860,100752,41361,0
1783771337744667835,2026-07-11T19:02:17.744+07:00,1.860,100769,41355,0
1783771337744667836,2026-07-11T19:02:17.744+07:00,1.860,100752,41379,0
1783771337744667837,2026-07-11T19:02:17.744+07:00,1.860,100787,41379,0
1783771337744667838,2026-07-11T19:02:17.744+07:00,1.860,100822,41397,0
1783771337744667839,2026-07-11T19:02:17.744+07:00,1.860,100822,41403,0
1783771337744667840,2026-07-11T19:02:17.744+07:00,1.860,100857,41420,0
1783771337744667841,2026-07-11T19:02:17.744+07:00,1.860,100857,41420,0
1783771337744667842,2026-07-11T19:02:17.744+07:00,1.860,100875,41438,0
1783771337744667843,2026-07-11T19:02:17.744+07:00,1.860,100875,41438,0
1783771337786919181,2026-07-11T19:02:17.786+07:00,1.902,100893,41462,0
1783771337786919182,2026-07-11T19:02:17.786+07:00,1.902,100928,41462,0
1783771337786919183,2026-07-11T19:02:17.786+07:00,1.902,100893,41480,0
1783771337786919184,2026-07-11T19:02:17.786+07:00,1.902,100964,41486,0
1783771337786919185,2026-07-11T19:02:17.786+07:00,1.902,100981,41510,0
1783771337786919186,2026-07-11T19:02:17.786+07:00,1.902,100964,41516,0
1783771337786919187,2026-07-11T19:02:17.786+07:00,1.902,100981,41540,0
1783771337786919188,2026-07-11T19:02:17.786+07:00,1.902,100999,41546,0
1783771337786919189,2026-07-11T19:02:17.786+07:00,1.902,100964,41540,0
1783771337786919190,2026-07-11T19:02:17.786+07:00,1.902,100999,41546,0
1783771337786919191,2026-07-11T19:02:17.786+07:00,1.902,101034,41570,0
1783771337786919192,2026-07-11T19:02:17.786+07:00,1.902,101034,41588,0
1783771337786919193,2026-07-11T19:02:17.786+07:00,1.902,101052,41600,0
1783771337786919194,2026-07-11T19:02:17.786+07:00,1.902,101070,41630,0
1783771337786919195,2026-07-11T19:02:17.786+07:00,1.902,101070,41624,0
1783771337786919196,2026-07-11T19:02:17.786+07:00,1.902,101088,41648,0
1783771337786919197,2026-07-11T19:02:17.786+07:00,1.902,101070,41630,0
1783771337829309980,2026-07-11T19:02:17.829+07:00,1.945,101141,41654,0
1783771337829309981,2026-07-11T19:02:17.829+07:00,1.945,101123,41672,0
1783771337829309982,2026-07-11T19:02:17.829+07:00,1.945,101159,41696,0
1783771337829309983,2026-07-11T19:02:17.829+07:00,1.945,101159,41702,0
1783771337829309984,2026-07-11T19:02:17.829+07:00,1.945,101194,41696,0
1783771337829309985,2026-07-11T19:02:17.829+07:00,1.945,101230,41708,0
1783771337829309986,2026-07-11T19:02:17.829+07:00,1.945,101230,41720,0
1783771337829309987,2026-07-11T19:02:17.829+07:00,1.945,101176,41714,0
1783771337829309988,2026-07-11T19:02:17.829+07:00,1.945,101176,41696,0
1783771337829309989,2026-07-11T19:02:17.829+07:00,1.945,101159,41690,0
1783771337829309990,2026-07-11T19:02:17.829+07:00,1.945,101159,41690,0
1783771337829309991,2026-07-11T19:02:17.829+07:00,1.945,101141,41678,0
1783771337829309992,2026-07-11T19:02:17.829+07:00,1.945,101123,41654,0
1783771337829309993,2026-07-11T19:02:17.829+07:00,1.945,101070,41630,0
1783771337829309994,2026-07-11T19:02:17.829+07:00,1.945,101034,41588,0
1783771337829309995,2026-07-11T19:02:17.829+07:00,1.945,100999,41546,0
1783771337829309996,2026-07-11T19:02:17.829+07:00,1.945,100911,41480,0
1783771337866857603,2026-07-11T19:02:17.866+07:00,1.982,100911,41456,0
1783771337866857604,2026-07-11T19:02:17.866+07:00,1.982,100840,41403,0
1783771337866857605,2026-07-11T19:02:17.866+07:00,1.982,100787,41385,0
1783771337866857606,2026-07-11T19:02:17.866+07:00,1.982,100752,41308,0
1783771337866857607,2026-07-11T19:02:17.866+07:00,1.982,100699,41248,0
1783771337866857608,2026-07-11T19:02:17.866+07:00,1.982,100628,41225,0
1783771337866857609,2026-07-11T19:02:17.866+07:00,1.982,100576,41154,0
1783771337866857610,2026-07-11T19:02:17.866+07:00,1.982,100523,41095,0
1783771337866857611,2026-07-11T19:02:17.866+07:00,1.982,100470,41054,0
1783771337866857612,2026-07-11T19:02:17.866+07:00,1.982,100400,41002,0
1783771337866857613,2026-07-11T19:02:17.866+07:00,1.982,100365,40961,0
1783771337866857614,2026-07-11T19:02:17.866+07:00,1.982,100330,40920,0
1783771337866857615,2026-07-11T19:02:17.866+07:00,1.982,100278,40874,0
1783771337866857616,2026-07-11T19:02:17.866+07:00,1.982,100226,40816,0
1783771337866857617,2026-07-11T19:02:17.866+07:00,1.982,100173,40770,0
1783771337866857618,2026-07-11T19:02:17.866+07:00,1.982,100156,40729,0
1783771337912238485,2026-07-11T19:02:17.912+07:00,2.028,100104,40700,0
1783771337912238486,2026-07-11T19:02:17.912+07:00,2.028,100104,40677,0
1783771337912238487,2026-07-11T19:02:17.912+07:00,2.028,100086,40643,0
1783771337912238488,2026-07-11T19:02:17.912+07:00,2.028,100052,40626,0
1783771337912238489,2026-07-11T19:02:17.912+07:00,2.028,99982,40591,0
1783771337912238490,2026-07-11T19:02:17.912+07:00,2.028,100017,40557,0
1783771337912238491,2026-07-11T19:02:17.912+07:00,2.028,99913,40529,0
1783771337912238492,2026-07-11T19:02:17.912+07:00,2.028,99930,40512,0
1783771337912238493,2026-07-11T19:02:17.912+07:00,2.028,99930,40494,0
1783771337912238494,2026-07-11T19:02:17.912+07:00,2.028,99947,40506,0
1783771337912238495,2026-07-11T19:02:17.912+07:00,2.028,99878,40494,0
1783771337912238496,2026-07-11T19:02:17.912+07:00,2.028,99878,40477,0
1783771337912238497,2026-07-11T19:02:17.912+07:00,2.028,99878,40472,0
1783771337912238498,2026-07-11T19:02:17.912+07:00,2.028,99861,40460,0
1783771337912238499,2026-07-11T19:02:17.912+07:00,2.028,99878,40472,0
1783771337912238500,2026-07-11T19:02:17.912+07:00,2.028,99843,40443,0
1783771337912238501,2026-07-11T19:02:17.912+07:00,2.028,99843,40438,0
1783771337954169566,2026-07-11T19:02:17.954+07:00,2.070,99826,40438,0
1783771337954169567,2026-07-11T19:02:17.954+07:00,2.070,99843,40455,0
1783771337954169568,2026-07-11T19:02:17.954+07:00,2.070,99861,40415,0
1783771337954169569,2026-07-11T19:02:17.954+07:00,2.070,99792,40421,0
1783771337954169570,2026-07-11T19:02:17.954+07:00,2.070,99843,40426,0
1783771337954169571,2026-07-11T19:02:17.954+07:00,2.070,99843,40432,0
1783771337954169572,2026-07-11T19:02:17.954+07:00,2.070,99861,40421,0
1783771337954169573,2026-07-11T19:02:17.954+07:00,2.070,99843,40438,0
1783771337954169574,2026-07-11T19:02:17.954+07:00,2.070,99861,40460,0
1783771337954169575,2026-07-11T19:02:17.954+07:00,2.070,99913,40466,0
1783771337954169576,2026-07-11T19:02:17.954+07:00,2.070,99895,40466,0
1783771337954169577,2026-07-11T19:02:17.954+07:00,2.070,99878,40466,0
1783771337954169578,2026-07-11T19:02:17.954+07:00,2.070,99930,40477,0
1783771337954169579,2026-07-11T19:02:17.954+07:00,2.070,99878,40466,0
1783771337954169580,2026-07-11T19:02:17.954+07:00,2.070,99895,40483,0
1783771337954169581,2026-07-11T19:02:17.954+07:00,2.070,99913,40477,0
1783771337954169582,2026-07-11T19:02:17.954+07:00,2.070,99895,40489,0
1783771337996560765,2026-07-11T19:02:17.996+07:00,2.112,99930,40512,0
1783771337996560766,2026-07-11T19:02:17.996+07:00,2.112,99947,40500,0
1783771337996560767,2026-07-11T19:02:17.996+07:00,2.112,99947,40512,0
1783771337996560768,2026-07-11T19:02:17.996+07:00,2.112,99930,40517,0
1783771337996560769,2026-07-11T19:02:17.996+07:00,2.112,99947,40500,0
1783771337996560770,2026-07-11T19:02:17.996+07:00,2.112,99930,40517,0
1783771337996560771,2026-07-11T19:02:17.996+07:00,2.112,99965,40534,0
1783771337996560772,2026-07-11T19:02:17.996+07:00,2.112,99982,40569,0
1783771337996560773,2026-07-11T19:02:17.996+07:00,2.112,100000,40563,0
1783771337996560774,2026-07-11T19:02:17.996+07:00,2.112,100000,40546,0
1783771337996560775,2026-07-11T19:02:17.996+07:00,2.112,100034,40569,0
1783771337996560776,2026-07-11T19:02:17.996+07:00,2.112,100017,40574,0
1783771337996560777,2026-07-11T19:02:17.996+07:00,2.112,100000,40563,0
1783771337996560778,2026-07-11T19:02:17.996+07:00,2.112,100017,40557,0
1783771337996560779,2026-07-11T19:02:17.996+07:00,2.112,100034,40586,0
1783771337996560780,2026-07-11T19:02:17.996+07:00,2.112,100052,40574,0
1783771337996560781,2026-07-11T19:02:17.996+07:00,2.112,100052,40597,0
1783771338039185723,2026-07-11T19:02:18.039+07:00,2.155,100069,40597,0
1783771338039185724,2026-07-11T19:02:18.039+07:00,2.155,100034,40614,0
1783771338039185725,2026-07-11T19:02:18.039+07:00,2.155,100069,40591,0
1783771338039185726,2026-07-11T19:02:18.039+07:00,2.155,100034,40591,0
1783771338039185727,2026-07-11T19:02:18.039+07:00,2.155,100034,40574,0
1783771338039185728,2026-07-11T19:02:18.039+07:00,2.155,100034,40597,0
1783771338039185729,2026-07-11T19:02:18.039+07:00,2.155,100034,40597,0
1783771338039185730,2026-07-11T19:02:18.039+07:00,2.155,100069,40597,0
1783771338039185731,2026-07-11T19:02:18.039+07:00,2.155,100052,40591,0
1783771338039185732,2026-07-11T19:02:18.039+07:00,2.155,100017,40574,0
1783771338039185733,2026-07-11T19:02:18.039+07:00,2.155,100034,40574,0
1783771338039185734,2026-07-11T19:02:18.039+07:00,2.155,100000,40563,0
1783771338039185735,2026-07-11T19:02:18.039+07:00,2.155,100017,40574,0
1783771338039185736,2026-07-11T19:02:18.039+07:00,2.155,99965,40557,0
1783771338039185737,2026-07-11T19:02:18.039+07:00,2.155,100034,40569,0
1783771338039185738,2026-07-11T19:02:18.039+07:00,2.155,100017,40551,0
1783771338039185739,2026-07-11T19:02:18.039+07:00,2.155,100000,40546,0
1783771338076806435,2026-07-11T19:02:18.076+07:00,2.192,100000,40557,0
1783771338076806436,2026-07-11T19:02:18.076+07:00,2.192,100000,40546,0
1783771338076806437,2026-07-11T19:02:18.076+07:00,2.192,100000,40523,0
1783771338076806438,2026-07-11T19:02:18.076+07:00,2.192,99982,40529,0
1783771338076806439,2026-07-11T19:02:18.076+07:00,2.192,99982,40546,0
1783771338076806440,2026-07-11T19:02:18.076+07:00,2.192,100000,40534,0
1783771338076806441,2026-07-11T19:02:18.076+07:00,2.192,100034,40557,0
1783771338076806442,2026-07-11T19:02:18.076+07:00,2.192,100017,40551,0
1783771338076806443,2026-07-11T19:02:18.076+07:00,2.192,100000,40529,0
1783771338076806444,2026-07-11T19:02:18.076+07:00,2.192,100017,40546,0
1783771338076806445,2026-07-11T19:02:18.076+07:00,2.192,100034,40540,0
1783771338076806446,2026-07-11T19:02:18.076+07:00,2.192,100017,40557,0
1783771338076806447,2026-07-11T19:02:18.076+07:00,2.192,100017,40557,0
1783771338076806448,2026-07-11T19:02:18.076+07:00,2.192,100052,40574,0
1783771338076806449,2026-07-11T19:02:18.076+07:00,2.192,100069,40580,0
1783771338119060832,2026-07-11T19:02:18.119+07:00,2.235,100104,40586,0
1783771338119060833,2026-07-11T19:02:18.119+07:00,2.235,100121,40597,0
1783771338119060834,2026-07-11T19:02:18.119+07:00,2.235,100121,40603,0
1783771338119060835,2026-07-11T19:02:18.119+07:00,2.235,100139,40597,0
1783771338119060836,2026-07-11T19:02:18.119+07:00,2.235,100104,40626,0
1783771338119060837,2026-07-11T19:02:18.119+07:00,2.235,100156,40626,0
1783771338119060838,2026-07-11T19:02:18.119+07:00,2.235,100156,40649,0
1783771338119060839,2026-07-11T19:02:18.119+07:00,2.235,100156,40660,0
1783771338119060840,2026-07-11T19:02:18.119+07:00,2.235,100208,40672,0
1783771338119060841,2026-07-11T19:02:18.119+07:00,2.235,100226,40700,0
1783771338119060842,2026-07-11T19:02:18.119+07:00,2.235,100226,40677,0
1783771338119060843,2026-07-11T19:02:18.119+07:00,2.235,100226,40706,0
1783771338119060844,2026-07-11T19:02:18.119+07:00,2.235,100278,40723,0
1783771338119060845,2026-07-11T19:02:18.119+07:00,2.235,100278,40729,0
1783771338119060846,2026-07-11T19:02:18.119+07:00,2.235,100313,40758,0
1783771338119060847,2026-07-11T19:02:18.119+07:00,2.235,100348,40752,0
1783771338119060848,2026-07-11T19:02:18.119+07:00,2.235,100348,40775,0
1783771338161528803,2026-07-11T19:02:18.161+07:00,2.277,100348,40804,0
1783771338161528804,2026-07-11T19:02:18.161+07:00,2.277,100400,40822,0
1783771338161528805,2026-07-11T19:02:18.161+07:00,2.277,100400,40827,0
1783771338161528806,2026-07-11T19:02:18.161+07:00,2.277,100418,40833,0
1783771338161528807,2026-07-11T19:02:18.161+07:00,2.277,100453,40862,0
1783771338161528808,2026-07-11T19:02:18.161+07:00,2.277,100470,40880,0
1783771338161528809,2026-07-11T19:02:18.161+07:00,2.277,100453,40909,0
1783771338161528810,2026-07-11T19:02:18.161+07:00,2.277,100506,40909,0
1783771338161528811,2026-07-11T19:02:18.161+07:00,2.277,100506,40914,0
1783771338161528812,2026-07-11T19:02:18.161+07:00,2.277,100541,40938,0
1783771338161528813,2026-07-11T19:02:18.161+07:00,2.277,100541,40949,0
1783771338161528814,2026-07-11T19:02:18.161+07:00,2.277,100541,40955,0
1783771338161528815,2026-07-11T19:02:18.161+07:00,2.277,100611,40978,0
1783771338161528816,2026-07-11T19:02:18.161+07:00,2.277,100664,40996,0
1783771338161528817,2026-07-11T19:02:18.161+07:00,2.277,100646,41019,0
1783771338161528818,2026-07-11T19:02:18.161+07:00,2.277,100646,41043,0
1783771338161528819,2026-07-11T19:02:18.161+07:00,2.277,100681,41066,0
1783771338204198486,2026-07-11T19:02:18.204+07:00,2.320,100699,41084,0
1783771338204198487,2026-07-11T19:02:18.204+07:00,2.320,100699,41072,0
1783771338204198488,2026-07-11T19:02:18.204+07:00,2.320,100734,41119,0
1783771338204198489,2026-07-11T19:02:18.204+07:00,2.320,100734,41113,0
1783771338204198490,2026-07-11T19:02:18.204+07:00,2.320,100752,41142,0
1783771338204198491,2026-07-11T19:02:18.204+07:00,2.320,100769,41166,0
1783771338204198492,2026-07-11T19:02:18.204+07:00,2.320,100787,41184,0
1783771338204198493,2026-07-11T19:02:18.204+07:00,2.320,100805,41184,0
1783771338204198494,2026-07-11T19:02:18.204+07:00,2.320,100805,41189,0
1783771338204198495,2026-07-11T19:02:18.204+07:00,2.320,100805,41201,0
1783771338204198496,2026-07-11T19:02:18.204+07:00,2.320,100857,41201,0
1783771338204198497,2026-07-11T19:02:18.204+07:00,2.320,100840,41231,0
1783771338204198498,2026-07-11T19:02:18.204+07:00,2.320,100857,41248,0
1783771338204198499,2026-07-11T19:02:18.204+07:00,2.320,100893,41254,0
1783771338204198500,2026-07-11T19:02:18.204+07:00,2.320,100893,41266,0
1783771338204198501,2026-07-11T19:02:18.204+07:00,2.320,100893,41278,0
1783771338204198502,2026-07-11T19:02:18.204+07:00,2.320,100893,41260,0
1783771338246701406,2026-07-11T19:02:18.246+07:00,2.362,100928,41284,0
1783771338246701407,2026-07-11T19:02:18.246+07:00,2.362,100928,41314,0
1783771338246701408,2026-07-11T19:02:18.246+07:00,2.362,100964,41331,0
1783771338246701409,2026-07-11T19:02:18.246+07:00,2.362,100981,41325,0
1783771338246701410,2026-07-11T19:02:18.246+07:00,2.362,100964,41367,0
1783771338246701411,2026-07-11T19:02:18.246+07:00,2.362,100999,41355,0
1783771338246701412,2026-07-11T19:02:18.246+07:00,2.362,100981,41355,0
1783771338246701413,2026-07-11T19:02:18.246+07:00,2.362,100981,41379,0
1783771338246701414,2026-07-11T19:02:18.246+07:00,2.362,100981,41349,0
1783771338246701415,2026-07-11T19:02:18.246+07:00,2.362,101034,41367,0
1783771338246701416,2026-07-11T19:02:18.246+07:00,2.362,101017,41379,0
1783771338246701417,2026-07-11T19:02:18.246+07:00,2.362,101052,41391,0
1783771338246701418,2026-07-11T19:02:18.246+07:00,2.362,101052,41385,0
1783771338246701419,2026-07-11T19:02:18.246+07:00,2.362,101034,41391,0
1783771338246701420,2026-07-11T19:02:18.246+07:00,2.362,101017,41379,0
1783771338246701421,2026-07-11T19:02:18.246+07:00,2.362,101034,41391,0
1783771338246701422,2026-07-11T19:02:18.246+07:00,2.362,100999,41379,0
1783771338286310912,2026-07-11T19:02:18.286+07:00,2.402,100946,41355,0
1783771338286310913,2026-07-11T19:02:18.286+07:00,2.402,100928,41308,0
1783771338286310914,2026-07-11T19:02:18.286+07:00,2.402,100911,41284,0
1783771338286310915,2026-07-11T19:02:18.286+07:00,2.402,100875,41266,0
1783771338286310916,2026-07-11T19:02:18.286+07:00,2.402,100840,41213,0
1783771338286310917,2026-07-11T19:02:18.286+07:00,2.402,100769,41189,0
1783771338286310918,2026-07-11T19:02:18.286+07:00,2.402,100716,41154,0
1783771338286310919,2026-07-11T19:02:18.286+07:00,2.402,100646,41078,0
1783771338286310920,2026-07-11T19:02:18.286+07:00,2.402,100646,41031,0
1783771338286310921,2026-07-11T19:02:18.286+07:00,2.402,100576,40984,0
1783771338286310922,2026-07-11T19:02:18.286+07:00,2.402,100488,40932,0
1783771338286310923,2026-07-11T19:02:18.286+07:00,2.402,100435,40885,0
1783771338286310924,2026-07-11T19:02:18.286+07:00,2.402,100400,40822,0
1783771338286310925,2026-07-11T19:02:18.286+07:00,2.402,100296,40758,0
1783771338286310926,2026-07-11T19:02:18.286+07:00,2.402,100226,40706,0
1783771338286310927,2026-07-11T19:02:18.286+07:00,2.402,100156,40637,0
1783771338333766260,2026-07-11T19:02:18.333+07:00,2.449,100086,40569,0
1783771338333766261,2026-07-11T19:02:18.333+07:00,2.449,100052,40506,0
1783771338333766262,2026-07-11T19:02:18.333+07:00,2.449,99965,40477,0
1783771338333766263,2026-07-11T19:02:18.333+07:00,2.449,99930,40421,0
1783771338333766264,2026-07-11T19:02:18.333+07:00,2.449,99878,40375,0
1783771338333766265,2026-07-11T19:02:18.333+07:00,2.449,99792,40296,0
1783771338333766266,2026-07-11T19:02:18.333+07:00,2.449,99740,40245,0
1783771338333766267,2026-07-11T19:02:18.333+07:00,2.449,99688,40195,0
1783771338333766268,2026-07-11T19:02:18.333+07:00,2.449,99705,40172,0
1783771338333766269,2026-07-11T19:02:18.333+07:00,2.449,99636,40133,0
1783771338333766270,2026-07-11T19:02:18.333+07:00,2.449,99585,40100,0
1783771338333766271,2026-07-11T19:02:18.333+07:00,2.449,99550,40089,0
1783771338333766272,2026-07-11T19:02:18.333+07:00,2.449,99533,40050,0
1783771338333766273,2026-07-11T19:02:18.333+07:00,2.449,99481,39994,0
1783771338333766274,2026-07-11T19:02:18.333+07:00,2.449,99447,39966,0
1783771338333766275,2026-07-11T19:02:18.333+07:00,2.449,99396,39874,0
1783771338333766276,2026-07-11T19:02:18.333+07:00,2.449,99361,39881,0
1783771338366259195,2026-07-11T19:02:18.366+07:00,2.482,99344,39881,0
1783771338366259196,2026-07-11T19:02:18.366+07:00,2.482,99327,39889,0
1783771338366259197,2026-07-11T19:02:18.366+07:00,2.482,99327,39903,0
1783771338366259198,2026-07-11T19:02:18.366+07:00,2.482,99327,39881,0
1783771338366259199,2026-07-11T19:02:18.366+07:00,2.482,99344,39889,0
1783771338366259200,2026-07-11T19:02:18.366+07:00,2.482,99310,39859,0
1783771338366259201,2026-07-11T19:02:18.366+07:00,2.482,99293,39889,0
1783771338366259202,2026-07-11T19:02:18.366+07:00,2.482,99327,39874,0
1783771338366259203,2026-07-11T19:02:18.366+07:00,2.482,99293,39896,0
1783771338366259204,2026-07-11T19:02:18.366+07:00,2.482,99293,39881,0
1783771338366259205,2026-07-11T19:02:18.366+07:00,2.482,99310,39889,0
1783771338366259206,2026-07-11T19:02:18.366+07:00,2.482,99259,39911,0
1783771338366259207,2026-07-11T19:02:18.366+07:00,2.482,99293,39889,0
1783771338366259208,2026-07-11T19:02:18.366+07:00,2.482,99310,39918,0
1783771338366259209,2026-07-11T19:02:18.366+07:00,2.482,99310,39911,0
1783771338408893796,2026-07-11T19:02:18.408+07:00,2.524,99344,39918,0
1783771338408893797,2026-07-11T19:02:18.408+07:00,2.524,99327,39948,0
1783771338408893798,2026-07-11T19:02:18.408+07:00,2.524,99361,39955,0
1783771338408893799,2026-07-11T19:02:18.408+07:00,2.524,99361,39962,0
1783771338408893800,2026-07-11T19:02:18.408+07:00,2.524,99361,39992,0
1783771338408893801,2026-07-11T19:02:18.408+07:00,2.524,99396,39992,0
1783771338408893802,2026-07-11T19:02:18.408+07:00,2.524,99413,39985,0
1783771338408893803,2026-07-11T19:02:18.408+07:00,2.524,99430,40044,0
1783771338408893804,2026-07-11T19:02:18.408+07:00,2.524,99413,40037,0
1783771338408893805,2026-07-11T19:02:18.408+07:00,2.524,99481,40111,0
1783771338408893806,2026-07-11T19:02:18.408+07:00,2.524,99481,40089,0
1783771338408893807,2026-07-11T19:02:18.408+07:00,2.524,99499,40083,0
1783771338408893808,2026-07-11T19:02:18.408+07:00,2.524,99533,40083,0
1783771338408893809,2026-07-11T19:02:18.408+07:00,2.524,99533,40094,0
1783771338408893810,2026-07-11T19:02:18.408+07:00,2.524,99550,40122,0
1783771338408893811,2026-07-11T19:02:18.408+07:00,2.524,99550,40122,0
1783771338408893812,2026-07-11T19:02:18.408+07:00,2.524,99602,40150,0
1783771338408893813,2026-07-11T19:02:18.408+07:00,2.524,99619,40167,0
1783771338453673003,2026-07-11T19:02:18.453+07:00,2.569,99671,40189,0
1783771338453673004,2026-07-11T19:02:18.453+07:00,2.569,99653,40195,0
1783771338453673005,2026-07-11T19:02:18.453+07:00,2.569,99688,40223,0
1783771338453673006,2026-07-11T19:02:18.453+07:00,2.569,99688,40229,0
1783771338453673007,2026-07-11T19:02:18.453+07:00,2.569,99757,40257,0
1783771338453673008,2026-07-11T19:02:18.453+07:00,2.569,99774,40279,0
1783771338453673009,2026-07-11T19:02:18.453+07:00,2.569,99809,40307,0
1783771338453673010,2026-07-11T19:02:18.453+07:00,2.569,99843,40330,0
1783771338453673011,2026-07-11T19:02:18.453+07:00,2.569,99878,40370,0
1783771338453673012,2026-07-11T19:02:18.453+07:00,2.569,99913,40370,0
1783771338453673013,2026-07-11T19:02:18.453+07:00,2.569,99965,40398,0
1783771338453673014,2026-07-11T19:02:18.453+07:00,2.569,99982,40426,0
1783771338453673015,2026-07-11T19:02:18.453+07:00,2.569,99982,40455,0
1783771338453673016,2026-07-11T19:02:18.453+07:00,2.569,100034,40466,0
1783771338453673017,2026-07-11T19:02:18.453+07:00,2.569,100052,40494,0
1783771338453673018,2026-07-11T19:02:18.453+07:00,2.569,100104,40534,0
1783771338453673019,2026-07-11T19:02:18.453+07:00,2.569,100139,40574,0
1783771338491236811,2026-07-11T19:02:18.491+07:00,2.607,100191,40609,0
1783771338491236812,2026-07-11T19:02:18.491+07:00,2.607,100208,40620,0
1783771338491236813,2026-07-11T19:02:18.491+07:00,2.607,100278,40660,0
1783771338491236814,2026-07-11T19:02:18.491+07:00,2.607,100296,40689,0
1783771338491236815,2026-07-11T19:02:18.491+07:00,2.607,100348,40700,0
1783771338491236816,2026-07-11T19:02:18.491+07:00,2.607,100365,40729,0
1783771338491236817,2026-07-11T19:02:18.491+07:00,2.607,100435,40781,0
1783771338491236818,2026-07-11T19:02:18.491+07:00,2.607,100435,40798,0
1783771338491236819,2026-07-11T19:02:18.491+07:00,2.607,100558,40845,0
1783771338491236820,2026-07-11T19:02:18.491+07:00,2.607,100541,40874,0
1783771338491236821,2026-07-11T19:02:18.491+07:00,2.607,100576,40880,0
1783771338491236822,2026-07-11T19:02:18.491+07:00,2.607,100611,40909,0
1783771338491236823,2026-07-11T19:02:18.491+07:00,2.607,100664,40926,0
1783771338491236824,2026-07-11T19:02:18.491+07:00,2.607,100664,40961,0
1783771338491236825,2026-07-11T19:02:18.491+07:00,2.607,100716,40967,0
1783771338534050471,2026-07-11T19:02:18.534+07:00,2.650,100752,40996,0
1783771338534050472,2026-07-11T19:02:18.534+07:00,2.650,100787,41043,0
1783771338534050473,2026-07-11T19:02:18.534+07:00,2.650,100805,41060,0
1783771338534050474,2026-07-11T19:02:18.534+07:00,2.650,100840,41060,0
1783771338534050475,2026-07-11T19:02:18.534+07:00,2.650,100875,41090,0
1783771338534050476,2026-07-11T19:02:18.534+07:00,2.650,100893,41101,0
1783771338534050477,2026-07-11T19:02:18.534+07:00,2.650,100911,41101,0
1783771338534050478,2026-07-11T19:02:18.534+07:00,2.650,100928,41125,0
1783771338534050479,2026-07-11T19:02:18.534+07:00,2.650,100999,41160,0
1783771338534050480,2026-07-11T19:02:18.534+07:00,2.650,101034,41172,0
1783771338534050481,2026-07-11T19:02:18.534+07:00,2.650,101052,41201,0
1783771338534050482,2026-07-11T19:02:18.534+07:00,2.650,101052,41184,0
1783771338534050483,2026-07-11T19:02:18.534+07:00,2.650,101034,41207,0
1783771338534050484,2026-07-11T19:02:18.534+07:00,2.650,101052,41195,0
1783771338534050485,2026-07-11T19:02:18.534+07:00,2.650,101070,41213,0
1783771338534050486,2026-07-11T19:02:18.534+07:00,2.650,101088,41207,0
1783771338534050487,2026-07-11T19:02:18.534+07:00,2.650,101123,41237,0
1783771338576276489,2026-07-11T19:02:18.576+07:00,2.692,101123,41243,0
1783771338576276490,2026-07-11T19:02:18.576+07:00,2.692,101123,41248,0
1783771338576276491,2026-07-11T19:02:18.576+07:00,2.692,101141,41225,0
1783771338576276492,2026-07-11T19:02:18.576+07:00,2.692,101141,41248,0
1783771338576276493,2026-07-11T19:02:18.576+07:00,2.692,101159,41219,0
1783771338576276494,2026-07-11T19:02:18.576+07:00,2.692,101141,41231,0
1783771338576276495,2026-07-11T19:02:18.576+07:00,2.692,101141,41237,0
1783771338576276496,2026-07-11T19:02:18.576+07:00,2.692,101141,41231,0
1783771338576276497,2026-07-11T19:02:18.576+07:00,2.692,101141,41237,0
1783771338576276498,2026-07-11T19:02:18.576+07:00,2.692,101176,41237,0
1783771338576276499,2026-07-11T19:02:18.576+07:00,2.692,101176,41225,0
1783771338576276500,2026-07-11T19:02:18.576+07:00,2.692,101123,41237,0
1783771338576276501,2026-07-11T19:02:18.576+07:00,2.692,101123,41195,0
1783771338576276502,2026-07-11T19:02:18.576+07:00,2.692,101123,41207,0
1783771338576276503,2026-07-11T19:02:18.576+07:00,2.692,101123,41184,0
1783771338576276504,2026-07-11T19:02:18.576+07:00,2.692,101123,41201,0
1783771338576276505,2026-07-11T19:02:18.576+07:00,2.692,101141,41207,0
1783771338618596636,2026-07-11T19:02:18.618+07:00,2.734,101123,41201,0
1783771338618596637,2026-07-11T19:02:18.618+07:00,2.734,101105,41201,0
1783771338618596638,2026-07-11T19:02:18.618+07:00,2.734,101105,41172,0
1783771338618596639,2026-07-11T19:02:18.618+07:00,2.734,101088,41166,0
1783771338618596640,2026-07-11T19:02:18.618+07:00,2.734,101088,41148,0
1783771338618596641,2026-07-11T19:02:18.618+07:00,2.734,101088,41166,0
1783771338618596642,2026-07-11T19:02:18.618+07:00,2.734,101017,41154,0
1783771338618596643,2026-07-11T19:02:18.618+07:00,2.734,100999,41142,0
1783771338618596644,2026-07-11T19:02:18.618+07:00,2.734,101017,41160,0
1783771338618596645,2026-07-11T19:02:18.618+07:00,2.734,101034,41166,0
1783771338618596646,2026-07-11T19:02:18.618+07:00,2.734,101034,41154,0
1783771338618596647,2026-07-11T19:02:18.618+07:00,2.734,101017,41148,0
1783771338618596648,2026-07-11T19:02:18.618+07:00,2.734,101034,41154,0
1783771338618596649,2026-07-11T19:02:18.618+07:00,2.734,101052,41178,0
1783771338618596650,2026-07-11T19:02:18.618+07:00,2.734,101052,41154,0
1783771338618596651,2026-07-11T19:02:18.618+07:00,2.734,101034,41166,0
1783771338618596652,2026-07-11T19:02:18.618+07:00,2.734,101052,41172,0
1783771338658544670,2026-07-11T19:02:18.658+07:00,2.774,101017,41172,0
1783771338658544671,2026-07-11T19:02:18.658+07:00,2.774,101034,41166,0
1783771338658544672,2026-07-11T19:02:18.658+07:00,2.774,101034,41172,0
1783771338658544673,2026-07-11T19:02:18.658+07:00,2.774,101034,41148,0
1783771338658544674,2026-07-11T19:02:18.658+07:00,2.774,101034,41154,0
1783771338658544675,2026-07-11T19:02:18.658+07:00,2.774,101034,41172,0
1783771338658544676,2026-07-11T19:02:18.658+07:00,2.774,101017,41148,0
1783771338658544677,2026-07-11T19:02:18.658+07:00,2.774,100981,41154,0
1783771338658544678,2026-07-11T19:02:18.658+07:00,2.774,100981,41119,0
1783771338658544679,2026-07-11T19:02:18.658+07:00,2.774,100999,41154,0
1783771338658544680,2026-07-11T19:02:18.658+07:00,2.774,100964,41119,0
1783771338658544681,2026-07-11T19:02:18.658+07:00,2.774,100964,41119,0
1783771338658544682,2026-07-11T19:02:18.658+07:00,2.774,100964,41125,0
1783771338658544683,2026-07-11T19:02:18.658+07:00,2.774,100964,41125,0
1783771338658544684,2026-07-11T19:02:18.658+07:00,2.774,100981,41119,0
1783771338658544685,2026-07-11T19:02:18.658+07:00,2.774,100981,41101,0
1783771338658544686,2026-07-11T19:02:18.658+07:00,2.774,100928,41119,0
1783771338698577235,2026-07-11T19:02:18.698+07:00,2.814,100946,41107,0
1783771338698577236,2026-07-11T19:02:18.698+07:00,2.814,100946,41107,0
1783771338698577237,2026-07-11T19:02:18.698+07:00,2.814,100928,41101,0
1783771338698577238,2026-07-11T19:02:18.698+07:00,2.814,100946,41107,0
1783771338698577239,2026-07-11T19:02:18.698+07:00,2.814,100928,41101,0
1783771338698577240,2026-07-11T19:02:18.698+07:00,2.814,100946,41101,0
1783771338698577241,2026-07-11T19:02:18.698+07:00,2.814,100928,41113,0
1783771338698577242,2026-07-11T19:02:18.698+07:00,2.814,100964,41101,0
1783771338698577243,2026-07-11T19:02:18.698+07:00,2.814,100928,41095,0
1783771338698577244,2026-07-11T19:02:18.698+07:00,2.814,100928,41090,0
1783771338698577245,2026-07-11T19:02:18.698+07:00,2.814,100946,41095,0
1783771338698577246,2026-07-11T19:02:18.698+07:00,2.814,100964,41101,0
1783771338698577247,2026-07-11T19:02:18.698+07:00,2.814,100964,41101,0
1783771338698577248,2026-07-11T19:02:18.698+07:00,2.814,100981,41101,0
1783771338698577249,2026-07-11T19:02:18.698+07:00,2.814,100964,41119,0
1783771338698577250,2026-07-11T19:02:18.698+07:00,2.814,100928,41090,0
1783771338743417560,2026-07-11T19:02:18.743+07:00,2.859,100964,41113,0
1783771338743417561,2026-07-11T19:02:18.743+07:00,2.859,100911,41060,0
1783771338743417562,2026-07-11T19:02:18.743+07:00,2.859,100928,41049,0
1783771338743417563,2026-07-11T19:02:18.743+07:00,2.859,100911,41025,0
1783771338743417564,2026-07-11T19:02:18.743+07:00,2.859,100893,40996,0
1783771338743417565,2026-07-11T19:02:18.743+07:00,2.859,100875,40973,0
1783771338743417566,2026-07-11T19:02:18.743+07:00,2.859,100822,40938,0
1783771338743417567,2026-07-11T19:02:18.743+07:00,2.859,100752,40885,0
1783771338743417568,2026-07-11T19:02:18.743+07:00,2.859,100734,40862,0
1783771338743417569,2026-07-11T19:02:18.743+07:00,2.859,100681,40804,0
1783771338743417570,2026-07-11T19:02:18.743+07:00,2.859,100611,40764,0
1783771338743417571,2026-07-11T19:02:18.743+07:00,2.859,100576,40718,0
1783771338743417572,2026-07-11T19:02:18.743+07:00,2.859,100541,40695,0
1783771338743417573,2026-07-11T19:02:18.743+07:00,2.859,100523,40649,0
1783771338743417574,2026-07-11T19:02:18.743+07:00,2.859,100435,40626,0
1783771338743417575,2026-07-11T19:02:18.743+07:00,2.859,100400,40546,0
1783771338743417576,2026-07-11T19:02:18.743+07:00,2.859,100365,40512,0
1783771338785904965,2026-07-11T19:02:18.785+07:00,2.901,100348,40494,0
1783771338785904966,2026-07-11T19:02:18.785+07:00,2.901,100278,40460,0
1783771338785904967,2026-07-11T19:02:18.785+07:00,2.901,100226,40404,0
1783771338785904968,2026-07-11T19:02:18.785+07:00,2.901,100191,40392,0
1783771338785904969,2026-07-11T19:02:18.785+07:00,2.901,100208,40364,0
1783771338785904970,2026-07-11T19:02:18.785+07:00,2.901,100139,40341,0
1783771338785904971,2026-07-11T19:02:18.785+07:00,2.901,100086,40307,0
1783771338785904972,2026-07-11T19:02:18.785+07:00,2.901,100104,40302,0
1783771338785904973,2026-07-11T19:02:18.785+07:00,2.901,100069,40274,0
1783771338785904974,2026-07-11T19:02:18.785+07:00,2.901,100052,40251,0
1783771338785904975,2026-07-11T19:02:18.785+07:00,2.901,100017,40251,0
1783771338785904976,2026-07-11T19:02:18.785+07:00,2.901,100017,40223,0
1783771338785904977,2026-07-11T19:02:18.785+07:00,2.901,100017,40206,0
1783771338785904978,2026-07-11T19:02:18.785+07:00,2.901,100000,40206,0
1783771338785904979,2026-07-11T19:02:18.785+07:00,2.901,100000,40184,0
1783771338785904980,2026-07-11T19:02:18.785+07:00,2.901,99982,40189,0
1783771338785904981,2026-07-11T19:02:18.785+07:00,2.901,99982,40178,0
1783771338828327932,2026-07-11T19:02:18.828+07:00,2.944,99982,40195,0
1783771338828327933,2026-07-11T19:02:18.828+07:00,2.944,100017,40184,0
1783771338828327934,2026-07-11T19:02:18.828+07:00,2.944,99965,40189,0
1783771338828327935,2026-07-11T19:02:18.828+07:00,2.944,99982,40206,0
1783771338828327936,2026-07-11T19:02:18.828+07:00,2.944,100000,40217,0
1783771338828327937,2026-07-11T19:02:18.828+07:00,2.944,100000,40206,0
1783771338828327938,2026-07-11T19:02:18.828+07:00,2.944,100017,40206,0
1783771338828327939,2026-07-11T19:02:18.828+07:00,2.944,100034,40229,0
1783771338828327940,2026-07-11T19:02:18.828+07:00,2.944,100034,40245,0
1783771338828327941,2026-07-11T19:02:18.828+07:00,2.944,100052,40240,0
1783771338828327942,2026-07-11T19:02:18.828+07:00,2.944,100052,40251,0
1783771338828327943,2026-07-11T19:02:18.828+07:00,2.944,100052,40268,0
1783771338828327944,2026-07-11T19:02:18.828+07:00,2.944,100104,40290,0
1783771338828327945,2026-07-11T19:02:18.828+07:00,2.944,100104,40296,0
1783771338828327946,2026-07-11T19:02:18.828+07:00,2.944,100104,40296,0
1783771338828327947,2026-07-11T19:02:18.828+07:00,2.944,100104,40302,0
1783771338828327948,2026-07-11T19:02:18.828+07:00,2.944,100104,40319,0
1783771338865795257,2026-07-11T19:02:18.865+07:00,2.981,100121,40341,0
1783771338865795258,2026-07-11T19:02:18.865+07:00,2.981,100156,40358,0
1783771338865795259,2026-07-11T19:02:18.865+07:00,2.981,100208,40375,0
1783771338865795260,2026-07-11T19:02:18.865+07:00,2.981,100208,40392,0
1783771338865795261,2026-07-11T19:02:18.865+07:00,2.981,100243,40438,0
1783771338865795262,2026-07-11T19:02:18.865+07:00,2.981,100278,40449,0
1783771338865795263,2026-07-11T19:02:18.865+07:00,2.981,100313,40466,0
1783771338865795264,2026-07-11T19:02:18.865+07:00,2.981,100348,40500,0
1783771338865795265,2026-07-11T19:02:18.865+07:00,2.981,100383,40523,0
1783771338865795266,2026-07-11T19:02:18.865+07:00,2.981,100400,40540,0
1783771338865795267,2026-07-11T19:02:18.865+07:00,2.981,100453,40586,0
1783771338865795268,2026-07-11T19:02:18.865+07:00,2.981,100453,40586,0
1783771338865795269,2026-07-11T19:02:18.865+07:00,2.981,100488,40620,0
1783771338865795270,2026-07-11T19:02:18.865+07:00,2.981,100523,40637,0
1783771338865795271,2026-07-11T19:02:18.865+07:00,2.981,100523,40643,0
1783771338908734486,2026-07-11T19:02:18.908+07:00,3.024,100558,40666,0
1783771338908734487,2026-07-11T19:02:18.908+07:00,3.024,100576,40700,0
1783771338908734488,2026-07-11T19:02:18.908+07:00,3.024,100593,40741,0
1783771338908734489,2026-07-11T19:02:18.908+07:00,3.024,100646,40764,0
1783771338908734490,2026-07-11T19:02:18.908+07:00,3.024,100628,40770,0
1783771338908734491,2026-07-11T19:02:18.908+07:00,3.024,100664,40804,0
1783771338908734492,2026-07-11T19:02:18.908+07:00,3.024,100646,40833,0
1783771338908734493,2026-07-11T19:02:18.908+07:00,3.024,100681,40839,0
1783771338908734494,2026-07-11T19:02:18.908+07:00,3.024,100716,40856,0
1783771338908734495,2026-07-11T19:02:18.908+07:00,3.024,100734,40880,0
1783771338908734496,2026-07-11T19:02:18.908+07:00,3.024,100734,40920,0
1783771338908734497,2026-07-11T19:02:18.908+07:00,3.024,100752,40926,0
1783771338908734498,2026-07-11T19:02:18.908+07:00,3.024,100787,40943,0
1783771338908734499,2026-07-11T19:02:18.908+07:00,3.024,100787,40949,0
1783771338908734500,2026-07-11T19:02:18.908+07:00,3.024,100822,40978,0
1783771338908734501,2026-07-11T19:02:18.908+07:00,3.024,100840,40996,0
1783771338908734502,2026-07-11T19:02:18.908+07:00,3.024,100822,41013,0
1783771338950666964,2026-07-11T19:02:18.950+07:00,3.066,100857,41031,0
1783771338950666965,2026-07-11T19:02:18.950+07:00,3.066,100893,41049,0
1783771338950666966,2026-07-11T19:02:18.950+07:00,3.066,100911,41066,0
1783771338950666967,2026-07-11T19:02:18.950+07:00,3.066,100893,41095,0
1783771338950666968,2026-07-11T19:02:18.950+07:00,3.066,100946,41113,0
1783771338950666969,2026-07-11T19:02:18.950+07:00,3.066,100946,41142,0
1783771338950666970,2026-07-11T19:02:18.950+07:00,3.066,100981,41160,0
1783771338950666971,2026-07-11T19:02:18.950+07:00,3.066,100999,41195,0
1783771338950666972,2026-07-11T19:02:18.950+07:00,3.066,101017,41213,0
1783771338950666973,2026-07-11T19:02:18.950+07:00,3.066,101034,41225,0
1783771338950666974,2026-07-11T19:02:18.950+07:00,3.066,101105,41266,0
1783771338950666975,2026-07-11T19:02:18.950+07:00,3.066,101105,41260,0
1783771338950666976,2026-07-11T19:02:18.950+07:00,3.066,101123,41284,0
1783771338950666977,2026-07-11T19:02:18.950+07:00,3.066,101159,41296,0
1783771338950666978,2026-07-11T19:02:18.950+07:00,3.066,101159,41319,0
1783771338950666979,2026-07-11T19:02:18.950+07:00,3.066,101194,41325,0
1783771338950666980,2026-07-11T19:02:18.950+07:00,3.066,101212,41319,0
1783771338993229984,2026-07-11T19:02:18.993+07:00,3.109,101230,41331,0
1783771338993229985,2026-07-11T19:02:18.993+07:00,3.109,101230,41343,0
1783771338993229986,2026-07-11T19:02:18.993+07:00,3.109,101212,41325,0
1783771338993229987,2026-07-11T19:02:18.993+07:00,3.109,101194,41308,0
1783771338993229988,2026-07-11T19:02:18.993+07:00,3.109,101159,41284,0
1783771338993229989,2026-07-11T19:02:18.993+07:00,3.109,101123,41225,0
1783771338993229990,2026-07-11T19:02:18.993+07:00,3.109,101052,41184,0
1783771338993229991,2026-07-11T19:02:18.993+07:00,3.109,101017,41131,0
1783771338993229992,2026-07-11T19:02:18.993+07:00,3.109,100928,41095,0
1783771338993229993,2026-07-11T19:02:18.993+07:00,3.109,100875,41043,0
1783771338993229994,2026-07-11T19:02:18.993+07:00,3.109,100805,40978,0
1783771338993229995,2026-07-11T19:02:18.993+07:00,3.109,100752,40932,0
1783771338993229996,2026-07-11T19:02:18.993+07:00,3.109,100646,40845,0
1783771338993229997,2026-07-11T19:02:18.993+07:00,3.109,100593,40787,0
1783771338993229998,2026-07-11T19:02:18.993+07:00,3.109,100506,40718,0
1783771338993229999,2026-07-11T19:02:18.993+07:00,3.109,100435,40677,0
1783771338993230000,2026-07-11T19:02:18.993+07:00,3.109,100365,40603,0
1783771339035633993,2026-07-11T19:02:19.035+07:00,3.151,100296,40534,0
1783771339035633994,2026-07-11T19:02:19.035+07:00,3.151,100243,40483,0
1783771339035633995,2026-07-11T19:02:19.035+07:00,3.151,100121,40438,0
1783771339035633996,2026-07-11T19:02:19.035+07:00,3.151,100052,40347,0
1783771339035633997,2026-07-11T19:02:19.035+07:00,3.151,100000,40296,0
1783771339035633998,2026-07-11T19:02:19.035+07:00,3.151,99930,40229,0
1783771339035633999,2026-07-11T19:02:19.035+07:00,3.151,99861,40161,0
1783771339035634000,2026-07-11T19:02:19.035+07:00,3.151,99826,40117,0
1783771339035634001,2026-07-11T19:02:19.035+07:00,3.151,99722,40055,0
1783771339035634002,2026-07-11T19:02:19.035+07:00,3.151,99636,39983,0
1783771339035634003,2026-07-11T19:02:19.035+07:00,3.151,99567,39961,0
1783771339035634004,2026-07-11T19:02:19.035+07:00,3.151,99550,39859,0
1783771339035634005,2026-07-11T19:02:19.035+07:00,3.151,99464,39852,0
1783771339035634006,2026-07-11T19:02:19.035+07:00,3.151,99447,39823,0
1783771339035634007,2026-07-11T19:02:19.035+07:00,3.151,99361,39786,0
1783771339035634008,2026-07-11T19:02:19.035+07:00,3.151,99344,39779,0
1783771339035634009,2026-07-11T19:02:19.035+07:00,3.151,99276,39749,0
1783771339075785970,2026-07-11T19:02:19.075+07:00,3.191,99276,39720,0
1783771339075785971,2026-07-11T19:02:19.075+07:00,3.191,99207,39683,0
1783771339075785972,2026-07-11T19:02:19.075+07:00,3.191,99207,39713,0
1783771339075785973,2026-07-11T19:02:19.075+07:00,3.191,99190,39669,0
1783771339075785974,2026-07-11T19:02:19.075+07:00,3.191,99139,39625,0
1783771339075785975,2026-07-11T19:02:19.075+07:00,3.191,99156,39654,0
1783771339075785976,2026-07-11T19:02:19.075+07:00,3.191,99139,39618,0
1783771339075785977,2026-07-11T19:02:19.075+07:00,3.191,99139,39633,0
1783771339075785978,2026-07-11T19:02:19.075+07:00,3.191,99156,39633,0
1783771339075785979,2026-07-11T19:02:19.075+07:00,3.191,99139,39625,0
1783771339075785980,2026-07-11T19:02:19.075+07:00,3.191,99207,39662,0
1783771339075785981,2026-07-11T19:02:19.075+07:00,3.191,99224,39676,0
1783771339075785982,2026-07-11T19:02:19.075+07:00,3.191,99207,39647,0
1783771339075785983,2026-07-11T19:02:19.075+07:00,3.191,99224,39633,0
1783771339075785984,2026-07-11T19:02:19.075+07:00,3.191,99190,39683,0
1783771339075785985,2026-07-11T19:02:19.075+07:00,3.191,99241,39683,0
1783771339118051695,2026-07-11T19:02:19.118+07:00,3.234,99241,39662,0
1783771339118051696,2026-07-11T19:02:19.118+07:00,3.234,99241,39691,0
1783771339118051697,2026-07-11T19:02:19.118+07:00,3.234,99259,39683,0
1783771339118051698,2026-07-11T19:02:19.118+07:00,3.234,99241,39691,0
1783771339118051699,2026-07-11T19:02:19.118+07:00,3.234,99259,39691,0
1783771339118051700,2026-07-11T19:02:19.118+07:00,3.234,99276,39727,0
1783771339118051701,2026-07-11T19:02:19.118+07:00,3.234,99276,39727,0
1783771339118051702,2026-07-11T19:02:19.118+07:00,3.234,99310,39757,0
1783771339118051703,2026-07-11T19:02:19.118+07:00,3.234,99344,39793,0
1783771339118051704,2026-07-11T19:02:19.118+07:00,3.234,99361,39793,0
1783771339118051705,2026-07-11T19:02:19.118+07:00,3.234,99361,39771,0
1783771339118051706,2026-07-11T19:02:19.118+07:00,3.234,99378,39793,0
1783771339118051707,2026-07-11T19:02:19.118+07:00,3.234,99396,39830,0
1783771339118051708,2026-07-11T19:02:19.118+07:00,3.234,99413,39837,0
1783771339118051709,2026-07-11T19:02:19.118+07:00,3.234,99447,39852,0
1783771339118051710,2026-07-11T19:02:19.118+07:00,3.234,99464,39867,0
1783771339118051711,2026-07-11T19:02:19.118+07:00,3.234,99481,39889,0
1783771339160510805,2026-07-11T19:02:19.160+07:00,3.276,99464,39889,0
1783771339160510806,2026-07-11T19:02:19.160+07:00,3.276,99481,39889,0
1783771339160510807,2026-07-11T19:02:19.160+07:00,3.276,99481,39911,0
1783771339160510808,2026-07-11T19:02:19.160+07:00,3.276,99516,39911,0
1783771339160510809,2026-07-11T19:02:19.160+07:00,3.276,99533,39903,0
1783771339160510810,2026-07-11T19:02:19.160+07:00,3.276,99499,39918,0
1783771339160510811,2026-07-11T19:02:19.160+07:00,3.276,99499,39903,0
1783771339160510812,2026-07-11T19:02:19.160+07:00,3.276,99499,39911,0
1783771339160510813,2026-07-11T19:02:19.160+07:00,3.276,99481,39896,0
1783771339160510814,2026-07-11T19:02:19.160+07:00,3.276,99430,39859,0
1783771339160510815,2026-07-11T19:02:19.160+07:00,3.276,99396,39823,0
1783771339160510816,2026-07-11T19:02:19.160+07:00,3.276,99361,39793,0
1783771339160510817,2026-07-11T19:02:19.160+07:00,3.276,99310,39749,0
1783771339160510818,2026-07-11T19:02:19.160+07:00,3.276,99293,39713,0
1783771339160510819,2026-07-11T19:02:19.160+07:00,3.276,99190,39676,0
1783771339160510820,2026-07-11T19:02:19.160+07:00,3.276,99139,39603,0
1783771339160510821,2026-07-11T19:02:19.160+07:00,3.276,99054,39538,0
1783771339203014154,2026-07-11T19:02:19.203+07:00,3.319,98969,39466,0
1783771339203014155,2026-07-11T19:02:19.203+07:00,3.319,98884,39394,0
1783771339203014156,2026-07-11T19:02:19.203+07:00,3.319,98816,39301,0
1783771339203014157,2026-07-11T19:02:19.203+07:00,3.319,98731,39244,0
1783771339203014158,2026-07-11T19:02:19.203+07:00,3.319,98663,39180,0
1783771339203014159,2026-07-11T19:02:19.203+07:00,3.319,98579,39102,0
1783771339203014160,2026-07-11T19:02:19.203+07:00,3.319,98512,39024,0
1783771339203014161,2026-07-11T19:02:19.203+07:00,3.319,98411,38946,0
1783771339203014162,2026-07-11T19:02:19.203+07:00,3.319,98327,38862,0
1783771339203014163,2026-07-11T19:02:19.203+07:00,3.319,98226,38758,0
1783771339203014164,2026-07-11T19:02:19.203+07:00,3.319,98092,38647,0
1783771339203014165,2026-07-11T19:02:19.203+07:00,3.319,97992,38592,0
1783771339203014166,2026-07-11T19:02:19.203+07:00,3.319,97959,38516,0
1783771339203014167,2026-07-11T19:02:19.203+07:00,3.319,97909,38468,0
1783771339203014168,2026-07-11T19:02:19.203+07:00,3.319,97809,38413,0
1783771339203014169,2026-07-11T19:02:19.203+07:00,3.319,97726,38325,0
1783771339203014170,2026-07-11T19:02:19.203+07:00,3.319,97676,38263,0
1783771339245433413,2026-07-11T19:02:19.245+07:00,3.361,97594,38196,0
1783771339245433414,2026-07-11T19:02:19.245+07:00,3.361,97511,38128,0
1783771339245433415,2026-07-11T19:02:19.245+07:00,3.361,97478,38075,0
1783771339245433416,2026-07-11T19:02:19.245+07:00,3.361,97412,38014,0
1783771339245433417,2026-07-11T19:02:19.245+07:00,3.361,97346,37954,0
1783771339245433418,2026-07-11T19:02:19.245+07:00,3.361,97280,37914,0
1783771339245433419,2026-07-11T19:02:19.245+07:00,3.361,97165,37868,0
1783771339245433420,2026-07-11T19:02:19.245+07:00,3.361,97165,37834,0
1783771339245433421,2026-07-11T19:02:19.245+07:00,3.361,97051,37768,0
1783771339245433422,2026-07-11T19:02:19.245+07:00,3.361,97035,37729,0
1783771339245433423,2026-07-11T19:02:19.245+07:00,3.361,96969,37696,0
1783771339245433424,2026-07-11T19:02:19.245+07:00,3.361,96937,37650,0
1783771339245433425,2026-07-11T19:02:19.245+07:00,3.361,96904,37624,0
1783771339245433426,2026-07-11T19:02:19.245+07:00,3.361,96806,37565,0
1783771339245433427,2026-07-11T19:02:19.245+07:00,3.361,96774,37571,0
1783771339245433428,2026-07-11T19:02:19.245+07:00,3.361,96774,37519,0
1783771339245433429,2026-07-11T19:02:19.245+07:00,3.361,96725,37506,0
1783771339283023347,2026-07-11T19:02:19.283+07:00,3.399,96741,37506,0
1783771339283023348,2026-07-11T19:02:19.283+07:00,3.399,96676,37473,0
1783771339283023349,2026-07-11T19:02:19.283+07:00,3.399,96644,37454,0
1783771339283023350,2026-07-11T19:02:19.283+07:00,3.399,96660,37454,0
1783771339283023351,2026-07-11T19:02:19.283+07:00,3.399,96628,37447,0
1783771339283023352,2026-07-11T19:02:19.283+07:00,3.399,96628,37428,0
1783771339283023353,2026-07-11T19:02:19.283+07:00,3.399,96611,37454,0
1783771339283023354,2026-07-11T19:02:19.283+07:00,3.399,96676,37435,0
1783771339283023355,2026-07-11T19:02:19.283+07:00,3.399,96644,37454,0
1783771339283023356,2026-07-11T19:02:19.283+07:00,3.399,96660,37460,0
1783771339283023357,2026-07-11T19:02:19.283+07:00,3.399,96676,37480,0
1783771339283023358,2026-07-11T19:02:19.283+07:00,3.399,96692,37519,0
1783771339283023359,2026-07-11T19:02:19.283+07:00,3.399,96757,37539,0
1783771339283023360,2026-07-11T19:02:19.283+07:00,3.399,96741,37552,0
1783771339283023361,2026-07-11T19:02:19.283+07:00,3.399,96855,37565,0
1783771339325463588,2026-07-11T19:02:19.325+07:00,3.441,96904,37630,0
1783771339325463589,2026-07-11T19:02:19.325+07:00,3.441,96953,37650,0
1783771339325463590,2026-07-11T19:02:19.325+07:00,3.441,96986,37676,0
1783771339325463591,2026-07-11T19:02:19.325+07:00,3.441,97051,37742,0
1783771339325463592,2026-07-11T19:02:19.325+07:00,3.441,97116,37762,0
1783771339325463593,2026-07-11T19:02:19.325+07:00,3.441,97149,37762,0
1783771339325463594,2026-07-11T19:02:19.325+07:00,3.441,97133,37801,0
1783771339325463595,2026-07-11T19:02:19.325+07:00,3.441,97165,37821,0
1783771339325463596,2026-07-11T19:02:19.325+07:00,3.441,97198,37828,0
1783771339325463597,2026-07-11T19:02:19.325+07:00,3.441,97182,37841,0
1783771339325463598,2026-07-11T19:02:19.325+07:00,3.441,97231,37874,0
1783771339325463599,2026-07-11T19:02:19.325+07:00,3.441,97280,37908,0
1783771339325463600,2026-07-11T19:02:19.325+07:00,3.441,97280,37921,0
1783771339325463601,2026-07-11T19:02:19.325+07:00,3.441,97280,37941,0
1783771339325463602,2026-07-11T19:02:19.325+07:00,3.441,97313,37968,0
1783771339325463603,2026-07-11T19:02:19.325+07:00,3.441,97346,37994,0
1783771339325463604,2026-07-11T19:02:19.325+07:00,3.441,97346,38001,0
1783771339365519741,2026-07-11T19:02:19.365+07:00,3.481,97396,38008,0
1783771339365519742,2026-07-11T19:02:19.365+07:00,3.481,97428,38068,0
1783771339365519743,2026-07-11T19:02:19.365+07:00,3.481,97428,38061,0
1783771339365519744,2026-07-11T19:02:19.365+07:00,3.481,97478,38101,0
1783771339365519745,2026-07-11T19:02:19.365+07:00,3.481,97494,38115,0
1783771339365519746,2026-07-11T19:02:19.365+07:00,3.481,97511,38135,0
1783771339365519747,2026-07-11T19:02:19.365+07:00,3.481,97544,38169,0
1783771339365519748,2026-07-11T19:02:19.365+07:00,3.481,97577,38189,0
1783771339365519749,2026-07-11T19:02:19.365+07:00,3.481,97594,38182,0
1783771339365519750,2026-07-11T19:02:19.365+07:00,3.481,97610,38209,0
1783771339365519751,2026-07-11T19:02:19.365+07:00,3.481,97627,38223,0
1783771339365519752,2026-07-11T19:02:19.365+07:00,3.481,97643,38243,0
1783771339365519753,2026-07-11T19:02:19.365+07:00,3.481,97660,38257,0
1783771339365519754,2026-07-11T19:02:19.365+07:00,3.481,97643,38250,0
1783771339365519755,2026-07-11T19:02:19.365+07:00,3.481,97643,38270,0
1783771339365519756,2026-07-11T19:02:19.365+07:00,3.481,97643,38263,0
1783771339407952418,2026-07-11T19:02:19.407+07:00,3.523,97660,38263,0
1783771339407952419,2026-07-11T19:02:19.407+07:00,3.523,97693,38277,0
1783771339407952420,2026-07-11T19:02:19.407+07:00,3.523,97660,38291,0
1783771339407952421,2026-07-11T19:02:19.407+07:00,3.523,97676,38270,0
1783771339407952422,2026-07-11T19:02:19.407+07:00,3.523,97709,38277,0
1783771339407952423,2026-07-11T19:02:19.407+07:00,3.523,97676,38257,0
1783771339407952424,2026-07-11T19:02:19.407+07:00,3.523,97676,38250,0
1783771339407952425,2026-07-11T19:02:19.407+07:00,3.523,97643,38230,0
1783771339407952426,2026-07-11T19:02:19.407+07:00,3.523,97610,38230,0
1783771339407952427,2026-07-11T19:02:19.407+07:00,3.523,97610,38230,0
1783771339407952428,2026-07-11T19:02:19.407+07:00,3.523,97594,38182,0
1783771339407952429,2026-07-11T19:02:19.407+07:00,3.523,97577,38203,0
1783771339407952430,2026-07-11T19:02:19.407+07:00,3.523,97577,38182,0
1783771339407952431,2026-07-11T19:02:19.407+07:00,3.523,97560,38142,0
1783771339407952432,2026-07-11T19:02:19.407+07:00,3.523,97527,38115,0
1783771339407952433,2026-07-11T19:02:19.407+07:00,3.523,97478,38108,0
1783771339407952434,2026-07-11T19:02:19.407+07:00,3.523,97511,38081,0
1783771339450317859,2026-07-11T19:02:19.450+07:00,3.566,97511,38075,0
1783771339450317860,2026-07-11T19:02:19.450+07:00,3.566,97478,38075,0
1783771339450317861,2026-07-11T19:02:19.450+07:00,3.566,97445,38041,0
1783771339450317862,2026-07-11T19:02:19.450+07:00,3.566,97445,38021,0
1783771339450317863,2026-07-11T19:02:19.450+07:00,3.566,97428,38021,0
1783771339450317864,2026-07-11T19:02:19.450+07:00,3.566,97428,38001,0
1783771339450317865,2026-07-11T19:02:19.450+07:00,3.566,97363,37988,0
1783771339450317866,2026-07-11T19:02:19.450+07:00,3.566,97379,37968,0
1783771339450317867,2026-07-11T19:02:19.450+07:00,3.566,97346,37914,0
1783771339450317868,2026-07-11T19:02:19.450+07:00,3.566,97363,37934,0
1783771339450317869,2026-07-11T19:02:19.450+07:00,3.566,97330,37921,0
1783771339450317870,2026-07-11T19:02:19.450+07:00,3.566,97313,37894,0
1783771339450317871,2026-07-11T19:02:19.450+07:00,3.566,97313,37894,0
1783771339450317872,2026-07-11T19:02:19.450+07:00,3.566,97313,37894,0
1783771339450317873,2026-07-11T19:02:19.450+07:00,3.566,97313,37868,0
1783771339450317874,2026-07-11T19:02:19.450+07:00,3.566,97280,37861,0
1783771339450317875,2026-07-11T19:02:19.450+07:00,3.566,97231,37848,0
1783771339487758995,2026-07-11T19:02:19.487+07:00,3.603,97264,37854,0
1783771339487758996,2026-07-11T19:02:19.487+07:00,3.603,97280,37848,0
1783771339487758997,2026-07-11T19:02:19.487+07:00,3.603,97215,37834,0
1783771339487758998,2026-07-11T19:02:19.487+07:00,3.603,97248,37834,0
1783771339487758999,2026-07-11T19:02:19.487+07:00,3.603,97231,37834,0
1783771339487759000,2026-07-11T19:02:19.487+07:00,3.603,97248,37828,0
1783771339487759001,2026-07-11T19:02:19.487+07:00,3.603,97231,37848,0
1783771339487759002,2026-07-11T19:02:19.487+07:00,3.603,97231,37848,0
1783771339487759003,2026-07-11T19:02:19.487+07:00,3.603,97264,37848,0
1783771339487759004,2026-07-11T19:02:19.487+07:00,3.603,97231,37828,0
1783771339487759005,2026-07-11T19:02:19.487+07:00,3.603,97248,37848,0
1783771339487759006,2026-07-11T19:02:19.487+07:00,3.603,97297,37868,0
1783771339487759007,2026-07-11T19:02:19.487+07:00,3.603,97264,37841,0
1783771339487759008,2026-07-11T19:02:19.487+07:00,3.603,97313,37881,0
1783771339487759009,2026-07-11T19:02:19.487+07:00,3.603,97297,37894,0
1783771339530302879,2026-07-11T19:02:19.530+07:00,3.646,97313,37914,0
1783771339530302880,2026-07-11T19:02:19.530+07:00,3.646,97330,37914,0
1783771339530302881,2026-07-11T19:02:19.530+07:00,3.646,97330,37921,0
1783771339530302882,2026-07-11T19:02:19.530+07:00,3.646,97297,37914,0
1783771339530302883,2026-07-11T19:02:19.530+07:00,3.646,97330,37921,0
1783771339530302884,2026-07-11T19:02:19.530+07:00,3.646,97313,37921,0
1783771339530302885,2026-07-11T19:02:19.530+07:00,3.646,97313,37934,0
1783771339530302886,2026-07-11T19:02:19.530+07:00,3.646,97346,37941,0
1783771339530302887,2026-07-11T19:02:19.530+07:00,3.646,97330,37934,0
1783771339530302888,2026-07-11T19:02:19.530+07:00,3.646,97346,37968,0
1783771339530302889,2026-07-11T19:02:19.530+07:00,3.646,97346,37961,0
1783771339530302890,2026-07-11T19:02:19.530+07:00,3.646,97363,37981,0
1783771339530302891,2026-07-11T19:02:19.530+07:00,3.646,97363,38001,0
1783771339530302892,2026-07-11T19:02:19.530+07:00,3.646,97379,37994,0
1783771339530302893,2026-07-11T19:02:19.530+07:00,3.646,97363,38014,0
1783771339530302894,2026-07-11T19:02:19.530+07:00,3.646,97412,38048,0
1783771339530302895,2026-07-11T19:02:19.530+07:00,3.646,97412,38054,0
1783771339530302896,2026-07-11T19:02:19.530+07:00,3.646,97478,38088,0
1783771339575517301,2026-07-11T19:02:19.575+07:00,3.691,97527,38122,0
1783771339575517302,2026-07-11T19:02:19.575+07:00,3.691,97560,38128,0
1783771339575517303,2026-07-11T19:02:19.575+07:00,3.691,97594,38155,0
1783771339575517304,2026-07-11T19:02:19.575+07:00,3.691,97627,38149,0
1783771339575517305,2026-07-11T19:02:19.575+07:00,3.691,97610,38182,0
1783771339575517306,2026-07-11T19:02:19.575+07:00,3.691,97643,38196,0
1783771339575517307,2026-07-11T19:02:19.575+07:00,3.691,97693,38209,0
1783771339575517308,2026-07-11T19:02:19.575+07:00,3.691,97726,38216,0
1783771339575517309,2026-07-11T19:02:19.575+07:00,3.691,97709,38236,0
1783771339575517310,2026-07-11T19:02:19.575+07:00,3.691,97676,38209,0
1783771339575517311,2026-07-11T19:02:19.575+07:00,3.691,97693,38203,0
1783771339575517312,2026-07-11T19:02:19.575+07:00,3.691,97676,38203,0
1783771339575517313,2026-07-11T19:02:19.575+07:00,3.691,97627,38182,0
1783771339575517314,2026-07-11T19:02:19.575+07:00,3.691,97627,38162,0
1783771339575517315,2026-07-11T19:02:19.575+07:00,3.691,97610,38142,0
1783771339575517316,2026-07-11T19:02:19.575+07:00,3.691,97577,38115,0
1783771339575517317,2026-07-11T19:02:19.575+07:00,3.691,97527,38088,0
1783771339617890483,2026-07-11T19:02:19.617+07:00,3.733,97445,38048,0
1783771339617890484,2026-07-11T19:02:19.617+07:00,3.733,97412,38001,0
1783771339617890485,2026-07-11T19:02:19.617+07:00,3.733,97396,37981,0
1783771339617890486,2026-07-11T19:02:19.617+07:00,3.733,97330,37908,0
1783771339617890487,2026-07-11T19:02:19.617+07:00,3.733,97264,37848,0
1783771339617890488,2026-07-11T19:02:19.617+07:00,3.733,97198,37808,0
1783771339617890489,2026-07-11T19:02:19.617+07:00,3.733,97165,37782,0
1783771339617890490,2026-07-11T19:02:19.617+07:00,3.733,97051,37716,0
1783771339617890491,2026-07-11T19:02:19.617+07:00,3.733,97018,37650,0
1783771339617890492,2026-07-11T19:02:19.617+07:00,3.733,96871,37611,0
1783771339617890493,2026-07-11T19:02:19.617+07:00,3.733,96839,37526,0
1783771339617890494,2026-07-11T19:02:19.617+07:00,3.733,96757,37454,0
1783771339617890495,2026-07-11T19:02:19.617+07:00,3.733,96741,37409,0
1783771339617890496,2026-07-11T19:02:19.617+07:00,3.733,96644,37350,0
1783771339617890497,2026-07-11T19:02:19.617+07:00,3.733,96595,37273,0
1783771339617890498,2026-07-11T19:02:19.617+07:00,3.733,96498,37234,0
1783771339617890499,2026-07-11T19:02:19.617+07:00,3.733,96417,37170,0
1783771339657549287,2026-07-11T19:02:19.657+07:00,3.773,96385,37094,0
1783771339657549288,2026-07-11T19:02:19.657+07:00,3.773,96321,37068,0
1783771339657549289,2026-07-11T19:02:19.657+07:00,3.773,96224,36998,0
1783771339657549290,2026-07-11T19:02:19.657+07:00,3.773,96176,36954,0
1783771339657549291,2026-07-11T19:02:19.657+07:00,3.773,96112,36935,0
1783771339657549292,2026-07-11T19:02:19.657+07:00,3.773,96080,36904,0
1783771339657549293,2026-07-11T19:02:19.657+07:00,3.773,96016,36853,0
1783771339657549294,2026-07-11T19:02:19.657+07:00,3.773,96032,36816,0
1783771339657549295,2026-07-11T19:02:19.657+07:00,3.773,95936,36803,0
1783771339657549296,2026-07-11T19:02:19.657+07:00,3.773,95984,36778,0
1783771339657549297,2026-07-11T19:02:19.657+07:00,3.773,95952,36772,0
1783771339657549298,2026-07-11T19:02:19.657+07:00,3.773,95904,36747,0
1783771339657549299,2026-07-11T19:02:19.657+07:00,3.773,95904,36734,0
1783771339657549300,2026-07-11T19:02:19.657+07:00,3.773,95856,36703,0
1783771339657549301,2026-07-11T19:02:19.657+07:00,3.773,95824,36666,0
1783771339657549302,2026-07-11T19:02:19.657+07:00,3.773,95824,36672,0
1783771339657549303,2026-07-11T19:02:19.657+07:00,3.773,95792,36653,0
1783771339697807220,2026-07-11T19:02:19.697+07:00,3.813,95776,36653,0
1783771339697807221,2026-07-11T19:02:19.697+07:00,3.813,95728,36622,0
1783771339697807222,2026-07-11T19:02:19.697+07:00,3.813,95760,36635,0
1783771339697807223,2026-07-11T19:02:19.697+07:00,3.813,95744,36647,0
1783771339697807224,2026-07-11T19:02:19.697+07:00,3.813,95760,36635,0
1783771339697807225,2026-07-11T19:02:19.697+07:00,3.813,95744,36635,0
1783771339697807226,2026-07-11T19:02:19.697+07:00,3.813,95728,36659,0
1783771339697807227,2026-07-11T19:02:19.697+07:00,3.813,95712,36653,0
1783771339697807228,2026-07-11T19:02:19.697+07:00,3.813,95744,36653,0
1783771339697807229,2026-07-11T19:02:19.697+07:00,3.813,95760,36653,0
1783771339697807230,2026-07-11T19:02:19.697+07:00,3.813,95744,36672,0
1783771339697807231,2026-07-11T19:02:19.697+07:00,3.813,95744,36666,0
1783771339697807232,2026-07-11T19:02:19.697+07:00,3.813,95792,36678,0
1783771339697807233,2026-07-11T19:02:19.697+07:00,3.813,95776,36691,0
1783771339697807234,2026-07-11T19:02:19.697+07:00,3.813,95808,36697,0
1783771339741161821,2026-07-11T19:02:19.741+07:00,3.857,95840,36722,0
1783771339741161822,2026-07-11T19:02:19.741+07:00,3.857,95840,36734,0
1783771339741161823,2026-07-11T19:02:19.741+07:00,3.857,95872,36765,0
1783771339741161824,2026-07-11T19:02:19.741+07:00,3.857,95920,36765,0
1783771339741161825,2026-07-11T19:02:19.741+07:00,3.857,95952,36791,0
1783771339741161826,2026-07-11T19:02:19.741+07:00,3.857,96000,36803,0
1783771339741161827,2026-07-11T19:02:19.741+07:00,3.857,96000,36828,0
1783771339741161828,2026-07-11T19:02:19.741+07:00,3.857,96032,36860,0
1783771339741161829,2026-07-11T19:02:19.741+07:00,3.857,96032,36866,0
1783771339741161830,2026-07-11T19:02:19.741+07:00,3.857,96048,36904,0
1783771339741161831,2026-07-11T19:02:19.741+07:00,3.857,96080,36885,0
1783771339741161832,2026-07-11T19:02:19.741+07:00,3.857,96096,36910,0
1783771339741161833,2026-07-11T19:02:19.741+07:00,3.857,96096,36910,0
1783771339741161834,2026-07-11T19:02:19.741+07:00,3.857,96112,36942,0
1783771339741161835,2026-07-11T19:02:19.741+07:00,3.857,96112,36942,0
1783771339741161836,2026-07-11T19:02:19.741+07:00,3.857,96144,36967,0
1783771339741161837,2026-07-11T19:02:19.741+07:00,3.857,96160,36967,0
1783771339782507775,2026-07-11T19:02:19.782+07:00,3.898,96208,36979,0
1783771339782507776,2026-07-11T19:02:19.782+07:00,3.898,96128,37024,0
1783771339782507777,2026-07-11T19:02:19.782+07:00,3.898,96176,37037,0
1783771339782507778,2026-07-11T19:02:19.782+07:00,3.898,96240,37049,0
1783771339782507779,2026-07-11T19:02:19.782+07:00,3.898,96256,37037,0
1783771339782507780,2026-07-11T19:02:19.782+07:00,3.898,96224,37075,0
1783771339782507781,2026-07-11T19:02:19.782+07:00,3.898,96256,37068,0
1783771339782507782,2026-07-11T19:02:19.782+07:00,3.898,96288,37087,0
1783771339782507783,2026-07-11T19:02:19.782+07:00,3.898,96304,37119,0
1783771339782507784,2026-07-11T19:02:19.782+07:00,3.898,96353,37145,0
1783771339782507785,2026-07-11T19:02:19.782+07:00,3.898,96417,37145,0
1783771339782507786,2026-07-11T19:02:19.782+07:00,3.898,96417,37177,0
1783771339782507787,2026-07-11T19:02:19.782+07:00,3.898,96433,37202,0
1783771339782507788,2026-07-11T19:02:19.782+07:00,3.898,96450,37228,0
1783771339782507789,2026-07-11T19:02:19.782+07:00,3.898,96498,37241,0
1783771339782507790,2026-07-11T19:02:19.782+07:00,3.898,96514,37273,0
1783771339782507791,2026-07-11T19:02:19.782+07:00,3.898,96547,37286,0
1783771339824838913,2026-07-11T19:02:19.824+07:00,3.940,96611,37318,0
1783771339824838914,2026-07-11T19:02:19.824+07:00,3.940,96644,37344,0
1783771339824838915,2026-07-11T19:02:19.824+07:00,3.940,96644,37363,0
1783771339824838916,2026-07-11T19:02:19.824+07:00,3.940,96692,37363,0
1783771339824838917,2026-07-11T19:02:19.824+07:00,3.940,96676,37389,0
1783771339824838918,2026-07-11T19:02:19.824+07:00,3.940,96725,37415,0
1783771339824838919,2026-07-11T19:02:19.824+07:00,3.940,96757,37428,0
1783771339824838920,2026-07-11T19:02:19.824+07:00,3.940,96822,37460,0
1783771339824838921,2026-07-11T19:02:19.824+07:00,3.940,96839,37480,0
1783771339824838922,2026-07-11T19:02:19.824+07:00,3.940,96888,37493,0
1783771339824838923,2026-07-11T19:02:19.824+07:00,3.940,96888,37513,0
1783771339824838924,2026-07-11T19:02:19.824+07:00,3.940,96920,37539,0
1783771339824838925,2026-07-11T19:02:19.824+07:00,3.940,96904,37519,0
1783771339824838926,2026-07-11T19:02:19.824+07:00,3.940,96920,37552,0
1783771339824838927,2026-07-11T19:02:19.824+07:00,3.940,96937,37539,0
1783771339824838928,2026-07-11T19:02:19.824+07:00,3.940,96953,37565,0
1783771339824838929,2026-07-11T19:02:19.824+07:00,3.940,96969,37571,0
1783771339864895778,2026-07-11T19:02:19.864+07:00,3.980,96969,37597,0
1783771339864895779,2026-07-11T19:02:19.864+07:00,3.980,96969,37611,0
1783771339864895780,2026-07-11T19:02:19.864+07:00,3.980,97002,37611,0
1783771339864895781,2026-07-11T19:02:19.864+07:00,3.980,97002,37630,0
1783771339864895782,2026-07-11T19:02:19.864+07:00,3.980,97018,37624,0
1783771339864895783,2026-07-11T19:02:19.864+07:00,3.980,97035,37643,0
1783771339864895784,2026-07-11T19:02:19.864+07:00,3.980,97051,37656,0
1783771339864895785,2026-07-11T19:02:19.864+07:00,3.980,97100,37696,0
1783771339864895786,2026-07-11T19:02:19.864+07:00,3.980,97067,37689,0
1783771339864895787,2026-07-11T19:02:19.864+07:00,3.980,97100,37702,0
1783771339864895788,2026-07-11T19:02:19.864+07:00,3.980,97116,37696,0
1783771339864895789,2026-07-11T19:02:19.864+07:00,3.980,97116,37716,0
1783771339864895790,2026-07-11T19:02:19.864+07:00,3.980,97116,37709,0
1783771339864895791,2026-07-11T19:02:19.864+07:00,3.980,97116,37742,0
1783771339864895792,2026-07-11T19:02:19.864+07:00,3.980,97182,37749,0
1783771339864895793,2026-07-11T19:02:19.864+07:00,3.980,97133,37768,0
1783771339907670774,2026-07-11T19:02:19.907+07:00,4.023,97182,37755,0
1783771339907670775,2026-07-11T19:02:19.907+07:00,4.023,97165,37782,0
1783771339907670776,2026-07-11T19:02:19.907+07:00,4.023,97198,37782,0
1783771339907670777,2026-07-11T19:02:19.907+07:00,4.023,97182,37768,0
1783771339907670778,2026-07-11T19:02:19.907+07:00,4.023,97198,37768,0
1783771339907670779,2026-07-11T19:02:19.907+07:00,4.023,97165,37782,0
1783771339907670780,2026-07-11T19:02:19.907+07:00,4.023,97215,37795,0
1783771339907670781,2026-07-11T19:02:19.907+07:00,4.023,97198,37801,0
1783771339907670782,2026-07-11T19:02:19.907+07:00,4.023,97231,37815,0
1783771339907670783,2026-07-11T19:02:19.907+07:00,4.023,97231,37828,0
1783771339907670784,2026-07-11T19:02:19.907+07:00,4.023,97280,37841,0
1783771339907670785,2026-07-11T19:02:19.907+07:00,4.023,97264,37848,0
1783771339907670786,2026-07-11T19:02:19.907+07:00,4.023,97297,37868,0
1783771339907670787,2026-07-11T19:02:19.907+07:00,4.023,97330,37868,0
1783771339907670788,2026-07-11T19:02:19.907+07:00,4.023,97363,37894,0
1783771339907670789,2026-07-11T19:02:19.907+07:00,4.023,97346,37888,0
1783771339907670790,2026-07-11T19:02:19.907+07:00,4.023,97379,37901,0
1783771339950097770,2026-07-11T19:02:19.950+07:00,4.066,97412,37901,0
1783771339950097771,2026-07-11T19:02:19.950+07:00,4.066,97428,37908,0
1783771339950097772,2026-07-11T19:02:19.950+07:00,4.066,97461,37914,0
1783771339950097773,2026-07-11T19:02:19.950+07:00,4.066,97478,37947,0
1783771339950097774,2026-07-11T19:02:19.950+07:00,4.066,97461,37974,0
1783771339950097775,2026-07-11T19:02:19.950+07:00,4.066,97478,37981,0
1783771339950097776,2026-07-11T19:02:19.950+07:00,4.066,97478,37968,0
1783771339950097777,2026-07-11T19:02:19.950+07:00,4.066,97511,37961,0
1783771339950097778,2026-07-11T19:02:19.950+07:00,4.066,97511,37974,0
1783771339950097779,2026-07-11T19:02:19.950+07:00,4.066,97478,37974,0
1783771339950097780,2026-07-11T19:02:19.950+07:00,4.066,97461,37968,0
1783771339950097781,2026-07-11T19:02:19.950+07:00,4.066,97478,37988,0
1783771339950097782,2026-07-11T19:02:19.950+07:00,4.066,97445,37961,0
1783771339950097783,2026-07-11T19:02:19.950+07:00,4.066,97478,37968,0
1783771339950097784,2026-07-11T19:02:19.950+07:00,4.066,97478,37974,0
1783771339950097785,2026-07-11T19:02:19.950+07:00,4.066,97461,38001,0
1783771339950097786,2026-07-11T19:02:19.950+07:00,4.066,97461,38001,0
1783771339992377283,2026-07-11T19:02:19.992+07:00,4.108,97478,37994,0
1783771339992377284,2026-07-11T19:02:19.992+07:00,4.108,97428,37988,0
1783771339992377285,2026-07-11T19:02:19.992+07:00,4.108,97461,38014,0
1783771339992377286,2026-07-11T19:02:19.992+07:00,4.108,97511,38014,0
1783771339992377287,2026-07-11T19:02:19.992+07:00,4.108,97511,38041,0
1783771339992377288,2026-07-11T19:02:19.992+07:00,4.108,97527,38048,0
1783771339992377289,2026-07-11T19:02:19.992+07:00,4.108,97544,38081,0
1783771339992377290,2026-07-11T19:02:19.992+07:00,4.108,97610,38095,0
1783771339992377291,2026-07-11T19:02:19.992+07:00,4.108,97627,38095,0
1783771339992377292,2026-07-11T19:02:19.992+07:00,4.108,97594,38101,0
1783771339992377293,2026-07-11T19:02:19.992+07:00,4.108,97610,38142,0
1783771339992377294,2026-07-11T19:02:19.992+07:00,4.108,97676,38122,0
1783771339992377295,2026-07-11T19:02:19.992+07:00,4.108,97660,38155,0
1783771339992377296,2026-07-11T19:02:19.992+07:00,4.108,97693,38169,0
1783771339992377297,2026-07-11T19:02:19.992+07:00,4.108,97709,38155,0
1783771339992377298,2026-07-11T19:02:19.992+07:00,4.108,97726,38176,0
1783771339992377299,2026-07-11T19:02:19.992+07:00,4.108,97743,38216,0
1783771340034845766,2026-07-11T19:02:20.034+07:00,4.150,97776,38209,0
1783771340034845767,2026-07-11T19:02:20.034+07:00,4.150,97759,38223,0
1783771340034845768,2026-07-11T19:02:20.034+07:00,4.150,97743,38243,0
1783771340034845769,2026-07-11T19:02:20.034+07:00,4.150,97759,38250,0
1783771340034845770,2026-07-11T19:02:20.034+07:00,4.150,97759,38250,0
1783771340034845771,2026-07-11T19:02:20.034+07:00,4.150,97809,38270,0
1783771340034845772,2026-07-11T19:02:20.034+07:00,4.150,97792,38284,0
1783771340034845773,2026-07-11T19:02:20.034+07:00,4.150,97776,38291,0
1783771340034845774,2026-07-11T19:02:20.034+07:00,4.150,97776,38318,0
1783771340034845775,2026-07-11T19:02:20.034+07:00,4.150,97826,38331,0
1783771340034845776,2026-07-11T19:02:20.034+07:00,4.150,97826,38352,0
1783771340034845777,2026-07-11T19:02:20.034+07:00,4.150,97859,38352,0
1783771340034845778,2026-07-11T19:02:20.034+07:00,4.150,97892,38386,0
1783771340034845779,2026-07-11T19:02:20.034+07:00,4.150,97892,38420,0
1783771340034845780,2026-07-11T19:02:20.034+07:00,4.150,97942,38413,0
1783771340034845781,2026-07-11T19:02:20.034+07:00,4.150,97959,38427,0
1783771340034845782,2026-07-11T19:02:20.034+07:00,4.150,98009,38454,0
1783771340072343083,2026-07-11T19:02:20.072+07:00,4.188,98009,38475,0
1783771340072343084,2026-07-11T19:02:20.072+07:00,4.188,97992,38488,0
1783771340072343085,2026-07-11T19:02:20.072+07:00,4.188,98042,38509,0
1783771340072343086,2026-07-11T19:02:20.072+07:00,4.188,98042,38495,0
1783771340072343087,2026-07-11T19:02:20.072+07:00,4.188,98025,38502,0
1783771340072343088,2026-07-11T19:02:20.072+07:00,4.188,98009,38482,0
1783771340072343089,2026-07-11T19:02:20.072+07:00,4.188,97992,38461,0
1783771340072343090,2026-07-11T19:02:20.072+07:00,4.188,97975,38468,0
1783771340072343091,2026-07-11T19:02:20.072+07:00,4.188,97925,38420,0
1783771340072343092,2026-07-11T19:02:20.072+07:00,4.188,97875,38406,0
1783771340072343093,2026-07-11T19:02:20.072+07:00,4.188,97826,38345,0
1783771340072343094,2026-07-11T19:02:20.072+07:00,4.188,97792,38304,0
1783771340072343095,2026-07-11T19:02:20.072+07:00,4.188,97743,38270,0
1783771340072343096,2026-07-11T19:02:20.072+07:00,4.188,97676,38216,0
1783771340072343097,2026-07-11T19:02:20.072+07:00,4.188,97610,38155,0
1783771340114754261,2026-07-11T19:02:20.114+07:00,4.230,97544,38095,0
1783771340114754262,2026-07-11T19:02:20.114+07:00,4.230,97445,38061,0
1783771340114754263,2026-07-11T19:02:20.114+07:00,4.230,97379,38008,0
1783771340114754264,2026-07-11T19:02:20.114+07:00,4.230,97313,37954,0
1783771340114754265,2026-07-11T19:02:20.114+07:00,4.230,97248,37861,0
1783771340114754266,2026-07-11T19:02:20.114+07:00,4.230,97182,37854,0
1783771340114754267,2026-07-11T19:02:20.114+07:00,4.230,97084,37775,0
1783771340114754268,2026-07-11T19:02:20.114+07:00,4.230,97018,37716,0
1783771340114754269,2026-07-11T19:02:20.114+07:00,4.230,97002,37696,0
1783771340114754270,2026-07-11T19:02:20.114+07:00,4.230,96953,37611,0
