host_timestamp_ns,host_timestamp_iso,elapsed_s,red,infrared,background
1783264951145831800,2026-07-05T22:22:31.145+07:00,0.074,112742,38516,0
1783264951145831800,2026-07-05T22:22:31.145+07:00,0.074,112676,38495,0
1783264951146828700,2026-07-05T22:22:31.146+07:00,0.075,112654,38447,0
1783264951146828700,2026-07-05T22:22:31.146+07:00,0.075,112720,38502,0
1783264951146828700,2026-07-05T22:22:31.146+07:00,0.075,112786,38626,0
1783264951146828700,2026-07-05T22:22:31.146+07:00,0.075,112896,38598,0
1783264951146828700,2026-07-05T22:22:31.146+07:00,0.075,112896,38578,0
1783264951146828700,2026-07-05T22:22:31.146+07:00,0.075,112830,38598,0
1783264951146828700,2026-07-05T22:22:31.146+07:00,0.075,112808,38571,0
1783264951146828700,2026-07-05T22:22:31.146+07:00,0.075,112808,38543,0
1783264951146828700,2026-07-05T22:22:31.146+07:00,0.075,112720,38530,0
1783264951146828700,2026-07-05T22:22:31.146+07:00,0.075,112786,38571,0
1783264951146828700,2026-07-05T22:22:31.146+07:00,0.075,112852,38702,0
1783264951146828700,2026-07-05T22:22:31.146+07:00,0.075,112963,38668,0
1783264951146828700,2026-07-05T22:22:31.146+07:00,0.075,113052,38647,0
1783264951146828700,2026-07-05T22:22:31.146+07:00,0.075,112941,38633,0
1783264951146828700,2026-07-05T22:22:31.146+07:00,0.075,112919,38633,0
1783264951187877800,2026-07-05T22:22:31.187+07:00,0.116,112896,38640,0
1783264951187877800,2026-07-05T22:22:31.187+07:00,0.116,112874,38592,0
1783264951187877800,2026-07-05T22:22:31.187+07:00,0.116,112963,38605,0
1783264951188880800,2026-07-05T22:22:31.188+07:00,0.117,112963,38765,0
1783264951188880800,2026-07-05T22:22:31.188+07:00,0.117,113096,38744,0
1783264951188880800,2026-07-05T22:22:31.188+07:00,0.117,113074,38702,0
1783264951188880800,2026-07-05T22:22:31.188+07:00,0.117,113029,38702,0
1783264951188880800,2026-07-05T22:22:31.188+07:00,0.117,113029,38723,0
1783264951188880800,2026-07-05T22:22:31.188+07:00,0.117,113007,38688,0
1783264951188880800,2026-07-05T22:22:31.188+07:00,0.117,112896,38640,0
1783264951188880800,2026-07-05T22:22:31.188+07:00,0.117,112985,38702,0
1783264951188880800,2026-07-05T22:22:31.188+07:00,0.117,113096,38814,0
1783264951188880800,2026-07-05T22:22:31.188+07:00,0.117,113185,38779,0
1783264951188880800,2026-07-05T22:22:31.188+07:00,0.117,113207,38758,0
1783264951188880800,2026-07-05T22:22:31.188+07:00,0.117,113096,38758,0
1783264951188880800,2026-07-05T22:22:31.188+07:00,0.117,113052,38758,0
1783264951188880800,2026-07-05T22:22:31.188+07:00,0.117,113052,38730,0
1783264951225901700,2026-07-05T22:22:31.225+07:00,0.154,112963,38654,0
1783264951225901700,2026-07-05T22:22:31.225+07:00,0.154,113052,38730,0
1783264951225901700,2026-07-05T22:22:31.225+07:00,0.154,113096,38841,0
1783264951225901700,2026-07-05T22:22:31.225+07:00,0.154,113252,38834,0
1783264951225901700,2026-07-05T22:22:31.225+07:00,0.154,113296,38814,0
1783264951225901700,2026-07-05T22:22:31.225+07:00,0.154,113163,38820,0
1783264951225901700,2026-07-05T22:22:31.225+07:00,0.154,113140,38807,0
1783264951225901700,2026-07-05T22:22:31.225+07:00,0.154,113163,38786,0
1783264951225901700,2026-07-05T22:22:31.225+07:00,0.154,113074,38730,0
1783264951225901700,2026-07-05T22:22:31.225+07:00,0.154,113140,38772,0
1783264951225901700,2026-07-05T22:22:31.225+07:00,0.154,113185,38869,0
1783264951225901700,2026-07-05T22:22:31.225+07:00,0.154,113296,38876,0
1783264951225901700,2026-07-05T22:22:31.225+07:00,0.154,113296,38820,0
1783264951225901700,2026-07-05T22:22:31.225+07:00,0.154,113229,38841,0
1783264951225901700,2026-07-05T22:22:31.225+07:00,0.154,113185,38834,0
1783264951269936900,2026-07-05T22:22:31.269+07:00,0.198,113185,38820,0
1783264951270484200,2026-07-05T22:22:31.270+07:00,0.199,113118,38765,0
1783264951270484200,2026-07-05T22:22:31.270+07:00,0.199,113185,38820,0
1783264951270484200,2026-07-05T22:22:31.270+07:00,0.199,113252,38883,0
1783264951270484200,2026-07-05T22:22:31.270+07:00,0.199,113318,38918,0
1783264951270484200,2026-07-05T22:22:31.270+07:00,0.199,113408,38876,0
1783264951270484200,2026-07-05T22:22:31.270+07:00,0.199,113274,38869,0
1783264951270484200,2026-07-05T22:22:31.270+07:00,0.199,113296,38876,0
1783264951270484200,2026-07-05T22:22:31.270+07:00,0.199,113296,38883,0
1783264951270484200,2026-07-05T22:22:31.270+07:00,0.199,113185,38807,0
1783264951270484200,2026-07-05T22:22:31.270+07:00,0.199,113274,38862,0
1783264951270484200,2026-07-05T22:22:31.270+07:00,0.199,113296,38904,0
1783264951270484200,2026-07-05T22:22:31.270+07:00,0.199,113408,38946,0
1783264951270484200,2026-07-05T22:22:31.270+07:00,0.199,113452,38932,0
1783264951270484200,2026-07-05T22:22:31.270+07:00,0.199,113363,38939,0
1783264951270484200,2026-07-05T22:22:31.270+07:00,0.199,113341,38932,0
1783264951270484200,2026-07-05T22:22:31.270+07:00,0.199,113363,38890,0
1783264951308051800,2026-07-05T22:22:31.308+07:00,0.236,113318,38841,0
1783264951308051800,2026-07-05T22:22:31.308+07:00,0.236,113341,38939,0
1783264951308051800,2026-07-05T22:22:31.308+07:00,0.236,113408,38975,0
1783264951308051800,2026-07-05T22:22:31.308+07:00,0.236,113519,39024,0
1783264951308051800,2026-07-05T22:22:31.308+07:00,0.236,113564,38982,0
1783264951308051800,2026-07-05T22:22:31.308+07:00,0.236,113452,38989,0
1783264951308051800,2026-07-05T22:22:31.308+07:00,0.236,113430,38975,0
1783264951308051800,2026-07-05T22:22:31.308+07:00,0.236,113452,38975,0
1783264951308051800,2026-07-05T22:22:31.308+07:00,0.236,113430,38904,0
1783264951308051800,2026-07-05T22:22:31.308+07:00,0.236,113430,38961,0
1783264951308051800,2026-07-05T22:22:31.308+07:00,0.236,113497,39038,0
1783264951308051800,2026-07-05T22:22:31.308+07:00,0.236,113587,39066,0
1783264951308051800,2026-07-05T22:22:31.308+07:00,0.236,113631,39073,0
1783264951308051800,2026-07-05T22:22:31.308+07:00,0.236,113587,39059,0
1783264951308051800,2026-07-05T22:22:31.308+07:00,0.236,113542,39045,0
1783264951308051800,2026-07-05T22:22:31.308+07:00,0.236,113519,39038,0
1783264951350456600,2026-07-05T22:22:31.350+07:00,0.279,113497,38996,0
1783264951350456600,2026-07-05T22:22:31.350+07:00,0.279,113542,39066,0
1783264951350456600,2026-07-05T22:22:31.350+07:00,0.279,113587,39116,0
1783264951350456600,2026-07-05T22:22:31.350+07:00,0.279,113699,39130,0
1783264951350456600,2026-07-05T22:22:31.350+07:00,0.279,113744,39173,0
1783264951350456600,2026-07-05T22:22:31.350+07:00,0.279,113654,39144,0
1783264951350456600,2026-07-05T22:22:31.350+07:00,0.279,113631,39123,0
1783264951350456600,2026-07-05T22:22:31.350+07:00,0.279,113631,39123,0
1783264951350456600,2026-07-05T22:22:31.350+07:00,0.279,113609,39031,0
1783264951350456600,2026-07-05T22:22:31.350+07:00,0.279,113609,39102,0
1783264951350456600,2026-07-05T22:22:31.350+07:00,0.279,113676,39137,0
1783264951350456600,2026-07-05T22:22:31.350+07:00,0.279,113744,39201,0
1783264951350456600,2026-07-05T22:22:31.350+07:00,0.279,113833,39258,0
1783264951350456600,2026-07-05T22:22:31.350+07:00,0.279,113721,39201,0
1783264951350456600,2026-07-05T22:22:31.350+07:00,0.279,113744,39187,0
1783264951350456600,2026-07-05T22:22:31.350+07:00,0.279,113744,39165,0
1783264951350456600,2026-07-05T22:22:31.350+07:00,0.279,113676,39095,0
1783264951393136100,2026-07-05T22:22:31.393+07:00,0.321,113721,39180,0
1783264951393136100,2026-07-05T22:22:31.393+07:00,0.321,113766,39237,0
1783264951393136100,2026-07-05T22:22:31.393+07:00,0.321,113901,39287,0
1783264951393136100,2026-07-05T22:22:31.393+07:00,0.321,113969,39344,0
1783264951393136100,2026-07-05T22:22:31.393+07:00,0.321,113856,39265,0
1783264951393136100,2026-07-05T22:22:31.393+07:00,0.321,113856,39237,0
1783264951393136100,2026-07-05T22:22:31.393+07:00,0.321,113856,39251,0
1783264951393136100,2026-07-05T22:22:31.393+07:00,0.321,113811,39144,0
1783264951393136100,2026-07-05T22:22:31.393+07:00,0.321,113789,39237,0
1783264951393136100,2026-07-05T22:22:31.393+07:00,0.321,113879,39265,0
1783264951393136100,2026-07-05T22:22:31.393+07:00,0.321,113946,39308,0
1783264951393136100,2026-07-05T22:22:31.393+07:00,0.321,113969,39351,0
1783264951393136100,2026-07-05T22:22:31.393+07:00,0.321,113879,39301,0
1783264951393136100,2026-07-05T22:22:31.393+07:00,0.321,113879,39237,0
1783264951393136100,2026-07-05T22:22:31.393+07:00,0.321,113811,39237,0
1783264951393136100,2026-07-05T22:22:31.393+07:00,0.321,113789,39116,0
1783264951393136100,2026-07-05T22:22:31.393+07:00,0.321,113721,39180,0
1783264951430546600,2026-07-05T22:22:31.430+07:00,0.359,113744,39201,0
1783264951430546600,2026-07-05T22:22:31.430+07:00,0.359,113789,39215,0
1783264951430546600,2026-07-05T22:22:31.430+07:00,0.359,113699,39237,0
1783264951430546600,2026-07-05T22:22:31.430+07:00,0.359,113631,39116,0
1783264951430546600,2026-07-05T22:22:31.430+07:00,0.359,113452,39045,0
1783264951430546600,2026-07-05T22:22:31.430+07:00,0.359,113408,38975,0
1783264951430546600,2026-07-05T22:22:31.430+07:00,0.359,113274,38841,0
1783264951430546600,2026-07-05T22:22:31.430+07:00,0.359,113163,38820,0
1783264951430546600,2026-07-05T22:22:31.430+07:00,0.359,113118,38820,0
1783264951430546600,2026-07-05T22:22:31.430+07:00,0.359,113140,38814,0
1783264951430546600,2026-07-05T22:22:31.430+07:00,0.359,113029,38786,0
1783264951430546600,2026-07-05T22:22:31.430+07:00,0.359,112852,38612,0
1783264951430546600,2026-07-05T22:22:31.430+07:00,0.359,112698,38523,0
1783264951430546600,2026-07-05T22:22:31.430+07:00,0.359,112565,38420,0
1783264951430546600,2026-07-05T22:22:31.430+07:00,0.359,112390,38250,0
1783264951468483700,2026-07-05T22:22:31.468+07:00,0.397,112280,38250,0
1783264951468483700,2026-07-05T22:22:31.468+07:00,0.397,112193,38189,0
1783264951468483700,2026-07-05T22:22:31.468+07:00,0.397,112127,38196,0
1783264951468483700,2026-07-05T22:22:31.468+07:00,0.397,111996,38169,0
1783264951468483700,2026-07-05T22:22:31.468+07:00,0.397,111801,37994,0
1783264951468483700,2026-07-05T22:22:31.468+07:00,0.397,111671,37874,0
1783264951468483700,2026-07-05T22:22:31.468+07:00,0.397,111606,37808,0
1783264951468483700,2026-07-05T22:22:31.468+07:00,0.397,111411,37630,0
1783264951468483700,2026-07-05T22:22:31.468+07:00,0.397,111239,37624,0
1783264951468483700,2026-07-05T22:22:31.468+07:00,0.397,111282,37630,0
1783264951468483700,2026-07-05T22:22:31.468+07:00,0.397,111218,37597,0
1783264951468483700,2026-07-05T22:22:31.468+07:00,0.397,111111,37591,0
1783264951468483700,2026-07-05T22:22:31.468+07:00,0.397,110982,37447,0
1783264951468483700,2026-07-05T22:22:31.468+07:00,0.397,110875,37383,0
1783264951468483700,2026-07-05T22:22:31.468+07:00,0.397,110790,37325,0
1783264951468483700,2026-07-05T22:22:31.468+07:00,0.397,110705,37196,0
1783264951468483700,2026-07-05T22:22:31.468+07:00,0.397,110599,37222,0
1783264951510486500,2026-07-05T22:22:31.510+07:00,0.439,110599,37228,0
1783264951510486500,2026-07-05T22:22:31.510+07:00,0.439,110662,37279,0
1783264951510486500,2026-07-05T22:22:31.510+07:00,0.439,110535,37279,0
1783264951510486500,2026-07-05T22:22:31.510+07:00,0.439,110492,37158,0
1783264951510486500,2026-07-05T22:22:31.510+07:00,0.439,110429,37119,0
1783264951510486500,2026-07-05T22:22:31.510+07:00,0.439,110408,37107,0
1783264951510486500,2026-07-05T22:22:31.510+07:00,0.439,110365,36998,0
1783264951510486500,2026-07-05T22:22:31.510+07:00,0.439,110323,37049,0
1783264951510486500,2026-07-05T22:22:31.510+07:00,0.439,110450,37100,0
1783264951510486500,2026-07-05T22:22:31.510+07:00,0.439,110429,37132,0
1783264951510486500,2026-07-05T22:22:31.510+07:00,0.439,110408,37164,0
1783264951510486500,2026-07-05T22:22:31.510+07:00,0.439,110344,37075,0
1783264951510486500,2026-07-05T22:22:31.510+07:00,0.439,110281,37043,0
1783264951510486500,2026-07-05T22:22:31.510+07:00,0.439,110323,37056,0
1783264951510486500,2026-07-05T22:22:31.510+07:00,0.439,110302,36960,0
1783264951510486500,2026-07-05T22:22:31.510+07:00,0.439,110260,37017,0
1783264951510486500,2026-07-05T22:22:31.510+07:00,0.439,110344,37049,0
1783264951556869200,2026-07-05T22:22:31.556+07:00,0.485,110450,37132,0
1783264951556869200,2026-07-05T22:22:31.556+07:00,0.485,110408,37196,0
1783264951558446900,2026-07-05T22:22:31.558+07:00,0.487,110387,37087,0
1783264951558446900,2026-07-05T22:22:31.558+07:00,0.487,110365,37056,0
1783264951558446900,2026-07-05T22:22:31.558+07:00,0.487,110365,37049,0
1783264951558446900,2026-07-05T22:22:31.558+07:00,0.487,110365,37017,0
1783264951558446900,2026-07-05T22:22:31.558+07:00,0.487,110281,37030,0
1783264951558446900,2026-07-05T22:22:31.558+07:00,0.487,110365,37062,0
1783264951558446900,2026-07-05T22:22:31.558+07:00,0.487,110471,37164,0
1783264951558446900,2026-07-05T22:22:31.558+07:00,0.487,110450,37222,0
1783264951558446900,2026-07-05T22:22:31.558+07:00,0.487,110408,37119,0
1783264951558446900,2026-07-05T22:22:31.558+07:00,0.487,110387,37100,0
1783264951558446900,2026-07-05T22:22:31.558+07:00,0.487,110429,37087,0
1783264951558446900,2026-07-05T22:22:31.558+07:00,0.487,110387,37049,0
1783264951558446900,2026-07-05T22:22:31.558+07:00,0.487,110365,37068,0
1783264951558446900,2026-07-05T22:22:31.558+07:00,0.487,110387,37107,0
1783264951558446900,2026-07-05T22:22:31.558+07:00,0.487,110492,37202,0
1783264951597073700,2026-07-05T22:22:31.597+07:00,0.525,110535,37247,0
1783264951597073700,2026-07-05T22:22:31.597+07:00,0.525,110492,37145,0
1783264951597073700,2026-07-05T22:22:31.597+07:00,0.525,110450,37113,0
1783264951597073700,2026-07-05T22:22:31.597+07:00,0.525,110450,37145,0
1783264951597073700,2026-07-05T22:22:31.597+07:00,0.525,110429,37075,0
1783264951597073700,2026-07-05T22:22:31.597+07:00,0.525,110365,37094,0
1783264951597073700,2026-07-05T22:22:31.597+07:00,0.525,110429,37158,0
1783264951597073700,2026-07-05T22:22:31.597+07:00,0.525,110577,37228,0
1783264951597073700,2026-07-05T22:22:31.597+07:00,0.525,110514,37299,0
1783264951597073700,2026-07-05T22:22:31.597+07:00,0.525,110535,37170,0
1783264951597073700,2026-07-05T22:22:31.597+07:00,0.525,110514,37177,0
1783264951597073700,2026-07-05T22:22:31.597+07:00,0.525,110514,37164,0
1783264951597073700,2026-07-05T22:22:31.597+07:00,0.525,110535,37107,0
1783264951597073700,2026-07-05T22:22:31.597+07:00,0.525,110471,37170,0
1783264951597073700,2026-07-05T22:22:31.597+07:00,0.525,110599,37228,0
1783264951597073700,2026-07-05T22:22:31.597+07:00,0.525,110684,37312,0
1783264951637281800,2026-07-05T22:22:31.637+07:00,0.566,110684,37370,0
1783264951637281800,2026-07-05T22:22:31.637+07:00,0.566,110684,37299,0
1783264951637281800,2026-07-05T22:22:31.637+07:00,0.566,110684,37279,0
1783264951637281800,2026-07-05T22:22:31.637+07:00,0.566,110726,37299,0
1783264951637281800,2026-07-05T22:22:31.637+07:00,0.566,110726,37279,0
1783264951637281800,2026-07-05T22:22:31.637+07:00,0.566,110684,37286,0
1783264951637281800,2026-07-05T22:22:31.637+07:00,0.566,110811,37376,0
1783264951637281800,2026-07-05T22:22:31.637+07:00,0.566,110897,37460,0
1783264951637281800,2026-07-05T22:22:31.637+07:00,0.566,110961,37526,0
1783264951637281800,2026-07-05T22:22:31.637+07:00,0.566,110918,37460,0
1783264951637281800,2026-07-05T22:22:31.637+07:00,0.566,110961,37454,0
1783264951637281800,2026-07-05T22:22:31.637+07:00,0.566,110982,37447,0
1783264951637281800,2026-07-05T22:22:31.637+07:00,0.566,110961,37460,0
1783264951637281800,2026-07-05T22:22:31.637+07:00,0.566,110897,37454,0
1783264951637281800,2026-07-05T22:22:31.637+07:00,0.566,111046,37519,0
1783264951637281800,2026-07-05T22:22:31.637+07:00,0.566,111196,37643,0
1783264951637281800,2026-07-05T22:22:31.637+07:00,0.566,111175,37676,0
1783264951682915300,2026-07-05T22:22:31.682+07:00,0.611,111132,37611,0
1783264951682915300,2026-07-05T22:22:31.682+07:00,0.611,111175,37597,0
1783264951682915300,2026-07-05T22:22:31.682+07:00,0.611,111153,37571,0
1783264951682915300,2026-07-05T22:22:31.682+07:00,0.611,111196,37571,0
1783264951682915300,2026-07-05T22:22:31.682+07:00,0.611,111111,37539,0
1783264951682915300,2026-07-05T22:22:31.682+07:00,0.611,111218,37630,0
1783264951682915300,2026-07-05T22:22:31.682+07:00,0.611,111282,37716,0
1783264951682915300,2026-07-05T22:22:31.682+07:00,0.611,111282,37722,0
1783264951682915300,2026-07-05T22:22:31.682+07:00,0.611,111282,37656,0
1783264951682915300,2026-07-05T22:22:31.682+07:00,0.611,111282,37650,0
1783264951682915300,2026-07-05T22:22:31.682+07:00,0.611,111239,37617,0
1783264951682915300,2026-07-05T22:22:31.682+07:00,0.611,111239,37617,0
1783264951682915300,2026-07-05T22:22:31.682+07:00,0.611,111196,37584,0
1783264951682915300,2026-07-05T22:22:31.682+07:00,0.611,111239,37663,0
1783264951682915300,2026-07-05T22:22:31.682+07:00,0.611,111347,37716,0
1783264951682915300,2026-07-05T22:22:31.682+07:00,0.611,111347,37709,0
1783264951682915300,2026-07-05T22:22:31.682+07:00,0.611,111325,37683,0
1783264951719464500,2026-07-05T22:22:31.719+07:00,0.648,111261,37663,0
1783264951719464500,2026-07-05T22:22:31.719+07:00,0.648,111239,37611,0
1783264951719464500,2026-07-05T22:22:31.719+07:00,0.648,111218,37617,0
1783264951719464500,2026-07-05T22:22:31.719+07:00,0.648,111175,37571,0
1783264951719464500,2026-07-05T22:22:31.719+07:00,0.648,111261,37656,0
1783264951719464500,2026-07-05T22:22:31.719+07:00,0.648,111347,37729,0
1783264951719464500,2026-07-05T22:22:31.719+07:00,0.648,111325,37716,0
1783264951719464500,2026-07-05T22:22:31.719+07:00,0.648,111282,37676,0
1783264951719464500,2026-07-05T22:22:31.719+07:00,0.648,111218,37643,0
1783264951719464500,2026-07-05T22:22:31.719+07:00,0.648,111261,37624,0
1783264951719464500,2026-07-05T22:22:31.719+07:00,0.648,111218,37611,0
1783264951719464500,2026-07-05T22:22:31.719+07:00,0.648,111175,37578,0
1783264951719464500,2026-07-05T22:22:31.719+07:00,0.648,111239,37637,0
1783264951719464500,2026-07-05T22:22:31.719+07:00,0.648,111368,37709,0
1783264951719464500,2026-07-05T22:22:31.719+07:00,0.648,111347,37709,0
1783264951719464500,2026-07-05T22:22:31.719+07:00,0.648,111261,37663,0
1783264951719464500,2026-07-05T22:22:31.719+07:00,0.648,111261,37637,0
1783264951767152800,2026-07-05T22:22:31.767+07:00,0.695,111261,37650,0
1783264951767152800,2026-07-05T22:22:31.767+07:00,0.695,111239,37637,0
1783264951767152800,2026-07-05T22:22:31.767+07:00,0.695,111218,37578,0
1783264951767152800,2026-07-05T22:22:31.767+07:00,0.695,111261,37663,0
1783264951767152800,2026-07-05T22:22:31.767+07:00,0.695,111368,37722,0
1783264951767152800,2026-07-05T22:22:31.767+07:00,0.695,111368,37729,0
1783264951767152800,2026-07-05T22:22:31.767+07:00,0.695,111304,37689,0
1783264951767152800,2026-07-05T22:22:31.767+07:00,0.695,111282,37683,0
1783264951767152800,2026-07-05T22:22:31.767+07:00,0.695,111261,37689,0
1783264951767152800,2026-07-05T22:22:31.767+07:00,0.695,111261,37663,0
1783264951767152800,2026-07-05T22:22:31.767+07:00,0.695,111261,37630,0
1783264951767152800,2026-07-05T22:22:31.767+07:00,0.695,111325,37722,0
1783264951767152800,2026-07-05T22:22:31.767+07:00,0.695,111411,37782,0
1783264951767152800,2026-07-05T22:22:31.767+07:00,0.695,111411,37782,0
1783264951767152800,2026-07-05T22:22:31.767+07:00,0.695,111390,37755,0
1783264951767152800,2026-07-05T22:22:31.767+07:00,0.695,111390,37735,0
1783264951767152800,2026-07-05T22:22:31.767+07:00,0.695,111368,37729,0
1783264951802483500,2026-07-05T22:22:31.802+07:00,0.731,111347,37709,0
1783264951802483500,2026-07-05T22:22:31.802+07:00,0.731,111325,37702,0
1783264951802483500,2026-07-05T22:22:31.802+07:00,0.731,111433,37768,0
1783264951802483500,2026-07-05T22:22:31.802+07:00,0.731,111519,37888,0
1783264951802483500,2026-07-05T22:22:31.802+07:00,0.731,111519,37841,0
1783264951802483500,2026-07-05T22:22:31.802+07:00,0.731,111455,37848,0
1783264951802483500,2026-07-05T22:22:31.802+07:00,0.731,111476,37795,0
1783264951802483500,2026-07-05T22:22:31.802+07:00,0.731,111476,37808,0
1783264951802483500,2026-07-05T22:22:31.802+07:00,0.731,111498,37821,0
1783264951802483500,2026-07-05T22:22:31.802+07:00,0.731,111476,37775,0
1783264951802483500,2026-07-05T22:22:31.802+07:00,0.731,111541,37854,0
1783264951802483500,2026-07-05T22:22:31.802+07:00,0.731,111649,37934,0
1783264951802483500,2026-07-05T22:22:31.802+07:00,0.731,111671,37941,0
1783264951802483500,2026-07-05T22:22:31.802+07:00,0.731,111649,37928,0
1783264951802483500,2026-07-05T22:22:31.802+07:00,0.731,111627,37901,0
1783264951847435400,2026-07-05T22:22:31.847+07:00,0.776,111627,37901,0
1783264951847435400,2026-07-05T22:22:31.847+07:00,0.776,111627,37894,0
1783264951847435400,2026-07-05T22:22:31.847+07:00,0.776,111606,37861,0
1783264951847435400,2026-07-05T22:22:31.847+07:00,0.776,111714,37941,0
1783264951847435400,2026-07-05T22:22:31.847+07:00,0.776,111779,38014,0
1783264951847435400,2026-07-05T22:22:31.847+07:00,0.776,111801,38034,0
1783264951847435400,2026-07-05T22:22:31.847+07:00,0.776,111779,38008,0
1783264951847435400,2026-07-05T22:22:31.847+07:00,0.776,111801,37994,0
1783264951847435400,2026-07-05T22:22:31.847+07:00,0.776,111757,38014,0
1783264951847435400,2026-07-05T22:22:31.847+07:00,0.776,111779,37968,0
1783264951847435400,2026-07-05T22:22:31.847+07:00,0.776,111736,37928,0
1783264951847435400,2026-07-05T22:22:31.847+07:00,0.776,111866,38041,0
1783264951847435400,2026-07-05T22:22:31.847+07:00,0.776,111909,38122,0
1783264951847435400,2026-07-05T22:22:31.847+07:00,0.776,111953,38108,0
1783264951847435400,2026-07-05T22:22:31.847+07:00,0.776,111931,38115,0
1783264951847435400,2026-07-05T22:22:31.847+07:00,0.776,111909,38075,0
1783264951847435400,2026-07-05T22:22:31.847+07:00,0.776,111866,38075,0
1783264951886890400,2026-07-05T22:22:31.886+07:00,0.815,111909,38061,0
1783264951886890400,2026-07-05T22:22:31.886+07:00,0.815,111822,38034,0
1783264951886890400,2026-07-05T22:22:31.886+07:00,0.815,112018,38149,0
1783264951886890400,2026-07-05T22:22:31.886+07:00,0.815,112040,38223,0
1783264951886890400,2026-07-05T22:22:31.886+07:00,0.815,112084,38196,0
1783264951886890400,2026-07-05T22:22:31.886+07:00,0.815,112062,38196,0
1783264951886890400,2026-07-05T22:22:31.886+07:00,0.815,111996,38162,0
1783264951886890400,2026-07-05T22:22:31.886+07:00,0.815,112018,38169,0
1783264951886890400,2026-07-05T22:22:31.886+07:00,0.815,111996,38128,0
1783264951886890400,2026-07-05T22:22:31.886+07:00,0.815,111996,38115,0
1783264951886890400,2026-07-05T22:22:31.886+07:00,0.815,112062,38196,0
1783264951886890400,2026-07-05T22:22:31.886+07:00,0.815,112171,38263,0
1783264951886890400,2026-07-05T22:22:31.886+07:00,0.815,112171,38270,0
1783264951886890400,2026-07-05T22:22:31.886+07:00,0.815,112171,38270,0
1783264951886890400,2026-07-05T22:22:31.886+07:00,0.815,112193,38236,0
1783264951886890400,2026-07-05T22:22:31.886+07:00,0.815,112149,38236,0
1783264951886890400,2026-07-05T22:22:31.886+07:00,0.815,112127,38216,0
1783264951933033600,2026-07-05T22:22:31.933+07:00,0.861,112062,38169,0
1783264951933033600,2026-07-05T22:22:31.933+07:00,0.861,112149,38257,0
1783264951933033600,2026-07-05T22:22:31.933+07:00,0.861,112258,38311,0
1783264951933033600,2026-07-05T22:22:31.933+07:00,0.861,112258,38325,0
1783264951933033600,2026-07-05T22:22:31.933+07:00,0.861,112236,38284,0
1783264951933033600,2026-07-05T22:22:31.933+07:00,0.861,112193,38277,0
1783264951933033600,2026-07-05T22:22:31.933+07:00,0.861,112171,38284,0
1783264951933033600,2026-07-05T22:22:31.933+07:00,0.861,112193,38250,0
1783264951933033600,2026-07-05T22:22:31.933+07:00,0.861,112149,38209,0
1783264951933033600,2026-07-05T22:22:31.933+07:00,0.861,112193,38284,0
1783264951933033600,2026-07-05T22:22:31.933+07:00,0.861,112258,38400,0
1783264951933033600,2026-07-05T22:22:31.933+07:00,0.861,112258,38338,0
1783264951933033600,2026-07-05T22:22:31.933+07:00,0.861,112258,38338,0
1783264951933033600,2026-07-05T22:22:31.933+07:00,0.861,112236,38304,0
1783264951933033600,2026-07-05T22:22:31.933+07:00,0.861,112236,38277,0
1783264951933033600,2026-07-05T22:22:31.933+07:00,0.861,112193,38263,0
1783264951933033600,2026-07-05T22:22:31.933+07:00,0.861,112127,38209,0
1783264951933033600,2026-07-05T22:22:31.933+07:00,0.861,112236,38325,0
1783264951976924200,2026-07-05T22:22:31.976+07:00,0.905,112280,38379,0
1783264951976924200,2026-07-05T22:22:31.976+07:00,0.905,112302,38386,0
1783264951976924200,2026-07-05T22:22:31.976+07:00,0.905,112324,38372,0
1783264951976924200,2026-07-05T22:22:31.976+07:00,0.905,112258,38318,0
1783264951976924200,2026-07-05T22:22:31.976+07:00,0.905,112302,38318,0
1783264951976924200,2026-07-05T22:22:31.976+07:00,0.905,112258,38277,0
1783264951976924200,2026-07-05T22:22:31.976+07:00,0.905,112149,38236,0
1783264951976924200,2026-07-05T22:22:31.976+07:00,0.905,112215,38325,0
1783264951976924200,2026-07-05T22:22:31.976+07:00,0.905,112302,38400,0
1783264951976924200,2026-07-05T22:22:31.976+07:00,0.905,112302,38393,0
1783264951976924200,2026-07-05T22:22:31.976+07:00,0.905,112280,38406,0
1783264951976924200,2026-07-05T22:22:31.976+07:00,0.905,112258,38331,0
1783264951976924200,2026-07-05T22:22:31.976+07:00,0.905,112280,38331,0
1783264951976924200,2026-07-05T22:22:31.976+07:00,0.905,112236,38318,0
1783264951976924200,2026-07-05T22:22:31.976+07:00,0.905,112171,38236,0
1783264951976924200,2026-07-05T22:22:31.976+07:00,0.905,112280,38345,0
1783264951976924200,2026-07-05T22:22:31.976+07:00,0.905,112346,38434,0
1783264952014974600,2026-07-05T22:22:32.014+07:00,0.943,112346,38441,0
1783264952014974600,2026-07-05T22:22:32.014+07:00,0.943,112346,38400,0
1783264952014974600,2026-07-05T22:22:32.014+07:00,0.943,112324,38372,0
1783264952014974600,2026-07-05T22:22:32.014+07:00,0.943,112258,38372,0
1783264952014974600,2026-07-05T22:22:32.014+07:00,0.943,112280,38325,0
1783264952014974600,2026-07-05T22:22:32.014+07:00,0.943,112236,38297,0
1783264952014974600,2026-07-05T22:22:32.014+07:00,0.943,112302,38359,0
1783264952014974600,2026-07-05T22:22:32.014+07:00,0.943,112390,38454,0
1783264952014974600,2026-07-05T22:22:32.014+07:00,0.943,112412,38454,0
1783264952014974600,2026-07-05T22:22:32.014+07:00,0.943,112390,38413,0
1783264952014974600,2026-07-05T22:22:32.014+07:00,0.943,112324,38427,0
1783264952014974600,2026-07-05T22:22:32.014+07:00,0.943,112324,38393,0
1783264952014974600,2026-07-05T22:22:32.014+07:00,0.943,112368,38393,0
1783264952014974600,2026-07-05T22:22:32.014+07:00,0.943,112258,38331,0
1783264952014974600,2026-07-05T22:22:32.014+07:00,0.943,112346,38427,0
1783264952057038200,2026-07-05T22:22:32.057+07:00,0.985,112434,38495,0
1783264952057038200,2026-07-05T22:22:32.057+07:00,0.985,112434,38482,0
1783264952057038200,2026-07-05T22:22:32.057+07:00,0.985,112434,38461,0
1783264952057038200,2026-07-05T22:22:32.057+07:00,0.985,112434,38441,0
1783264952057038200,2026-07-05T22:22:32.057+07:00,0.985,112368,38454,0
1783264952057038200,2026-07-05T22:22:32.057+07:00,0.985,112390,38434,0
1783264952057038200,2026-07-05T22:22:32.057+07:00,0.985,112346,38365,0
1783264952057038200,2026-07-05T22:22:32.057+07:00,0.985,112390,38461,0
1783264952057038200,2026-07-05T22:22:32.057+07:00,0.985,112543,38537,0
1783264952057038200,2026-07-05T22:22:32.057+07:00,0.985,112500,38543,0
1783264952057038200,2026-07-05T22:22:32.057+07:00,0.985,112456,38516,0
1783264952057038200,2026-07-05T22:22:32.057+07:00,0.985,112456,38502,0
1783264952057038200,2026-07-05T22:22:32.057+07:00,0.985,112500,38482,0
1783264952057038200,2026-07-05T22:22:32.057+07:00,0.985,112456,38488,0
1783264952057038200,2026-07-05T22:22:32.057+07:00,0.985,112412,38413,0
1783264952057038200,2026-07-05T22:22:32.057+07:00,0.985,112456,38502,0
1783264952057038200,2026-07-05T22:22:32.057+07:00,0.985,112587,38592,0
1783264952097334200,2026-07-05T22:22:32.097+07:00,1.026,112565,38557,0
1783264952097334200,2026-07-05T22:22:32.097+07:00,1.026,112543,38537,0
1783264952097334200,2026-07-05T22:22:32.097+07:00,1.026,112543,38530,0
1783264952097334200,2026-07-05T22:22:32.097+07:00,1.026,112478,38543,0
1783264952097334200,2026-07-05T22:22:32.097+07:00,1.026,112500,38523,0
1783264952097334200,2026-07-05T22:22:32.097+07:00,1.026,112500,38468,0
1783264952097334200,2026-07-05T22:22:32.097+07:00,1.026,112521,38557,0
1783264952097334200,2026-07-05T22:22:32.097+07:00,1.026,112631,38647,0
1783264952097334200,2026-07-05T22:22:32.097+07:00,1.026,112654,38612,0
1783264952097334200,2026-07-05T22:22:32.097+07:00,1.026,112609,38585,0
1783264952097334200,2026-07-05T22:22:32.097+07:00,1.026,112631,38585,0
1783264952097334200,2026-07-05T22:22:32.097+07:00,1.026,112587,38571,0
1783264952097334200,2026-07-05T22:22:32.097+07:00,1.026,112543,38578,0
1783264952097334200,2026-07-05T22:22:32.097+07:00,1.026,112500,38502,0
1783264952097334200,2026-07-05T22:22:32.097+07:00,1.026,112587,38619,0
1783264952097334200,2026-07-05T22:22:32.097+07:00,1.026,112698,38675,0
1783264952097334200,2026-07-05T22:22:32.097+07:00,1.026,112676,38675,0
1783264952137335400,2026-07-05T22:22:32.137+07:00,1.066,112676,38640,0
1783264952137335400,2026-07-05T22:22:32.137+07:00,1.066,112676,38633,0
1783264952137335400,2026-07-05T22:22:32.137+07:00,1.066,112654,38640,0
1783264952137335400,2026-07-05T22:22:32.137+07:00,1.066,112631,38633,0
1783264952137335400,2026-07-05T22:22:32.137+07:00,1.066,112609,38557,0
1783264952137335400,2026-07-05T22:22:32.137+07:00,1.066,112654,38633,0
1783264952137335400,2026-07-05T22:22:32.137+07:00,1.066,112720,38716,0
1783264952137335400,2026-07-05T22:22:32.137+07:00,1.066,112764,38695,0
1783264952137335400,2026-07-05T22:22:32.137+07:00,1.066,112742,38688,0
1783264952137335400,2026-07-05T22:22:32.137+07:00,1.066,112764,38702,0
1783264952137335400,2026-07-05T22:22:32.137+07:00,1.066,112742,38695,0
1783264952137335400,2026-07-05T22:22:32.137+07:00,1.066,112742,38681,0
1783264952137335400,2026-07-05T22:22:32.137+07:00,1.066,112676,38592,0
1783264952137335400,2026-07-05T22:22:32.137+07:00,1.066,112742,38716,0
1783264952137335400,2026-07-05T22:22:32.137+07:00,1.066,112786,38765,0
1783264952137335400,2026-07-05T22:22:32.137+07:00,1.066,112808,38765,0
1783264952137335400,2026-07-05T22:22:32.137+07:00,1.066,112808,38737,0
1783264952185286100,2026-07-05T22:22:32.185+07:00,1.114,112786,38709,0
1783264952185286100,2026-07-05T22:22:32.185+07:00,1.114,112786,38744,0
1783264952185286100,2026-07-05T22:22:32.185+07:00,1.114,112830,38716,0
1783264952185286100,2026-07-05T22:22:32.185+07:00,1.114,112720,38633,0
1783264952185286100,2026-07-05T22:22:32.185+07:00,1.114,112786,38751,0
1783264952185286100,2026-07-05T22:22:32.185+07:00,1.114,112852,38800,0
1783264952185286100,2026-07-05T22:22:32.185+07:00,1.114,112896,38807,0
1783264952185286100,2026-07-05T22:22:32.185+07:00,1.114,112830,38793,0
1783264952185286100,2026-07-05T22:22:32.185+07:00,1.114,112852,38800,0
1783264952185286100,2026-07-05T22:22:32.185+07:00,1.114,112786,38807,0
1783264952185286100,2026-07-05T22:22:32.185+07:00,1.114,112830,38772,0
1783264952185286100,2026-07-05T22:22:32.185+07:00,1.114,112742,38695,0
1783264952185286100,2026-07-05T22:22:32.185+07:00,1.114,112786,38772,0
1783264952185286100,2026-07-05T22:22:32.185+07:00,1.114,112874,38841,0
1783264952185286100,2026-07-05T22:22:32.185+07:00,1.114,112874,38848,0
1783264952185286100,2026-07-05T22:22:32.185+07:00,1.114,112852,38807,0
1783264952185792200,2026-07-05T22:22:32.185+07:00,1.114,112808,38793,0
1783264952220669600,2026-07-05T22:22:32.220+07:00,1.149,112786,38793,0
1783264952220669600,2026-07-05T22:22:32.220+07:00,1.149,112742,38765,0
1783264952220669600,2026-07-05T22:22:32.220+07:00,1.149,112654,38688,0
1783264952220669600,2026-07-05T22:22:32.220+07:00,1.149,112698,38751,0
1783264952220669600,2026-07-05T22:22:32.220+07:00,1.149,112720,38827,0
1783264952220669600,2026-07-05T22:22:32.220+07:00,1.149,112764,38820,0
1783264952220669600,2026-07-05T22:22:32.220+07:00,1.149,112742,38765,0
1783264952220669600,2026-07-05T22:22:32.220+07:00,1.149,112654,38751,0
1783264952220669600,2026-07-05T22:22:32.220+07:00,1.149,112565,38758,0
1783264952220669600,2026-07-05T22:22:32.220+07:00,1.149,112521,38688,0
1783264952220669600,2026-07-05T22:22:32.220+07:00,1.149,112390,38605,0
1783264952220669600,2026-07-05T22:22:32.220+07:00,1.149,112412,38619,0
1783264952220669600,2026-07-05T22:22:32.220+07:00,1.149,112346,38675,0
1783264952220669600,2026-07-05T22:22:32.220+07:00,1.149,112390,38619,0
1783264952220669600,2026-07-05T22:22:32.220+07:00,1.149,112258,38530,0
1783264952220669600,2026-07-05T22:22:32.220+07:00,1.149,112127,38475,0
1783264952267284400,2026-07-05T22:22:32.267+07:00,1.196,111953,38413,0
1783264952267284400,2026-07-05T22:22:32.267+07:00,1.196,111844,38352,0
1783264952267284400,2026-07-05T22:22:32.267+07:00,1.196,111671,38209,0
1783264952267284400,2026-07-05T22:22:32.267+07:00,1.196,111563,38182,0
1783264952267284400,2026-07-05T22:22:32.267+07:00,1.196,111519,38203,0
1783264952267284400,2026-07-05T22:22:32.267+07:00,1.196,111433,38115,0
1783264952267284400,2026-07-05T22:22:32.267+07:00,1.196,111261,38008,0
1783264952267284400,2026-07-05T22:22:32.267+07:00,1.196,111068,37901,0
1783264952267284400,2026-07-05T22:22:32.267+07:00,1.196,110897,37788,0
1783264952267284400,2026-07-05T22:22:32.267+07:00,1.196,110705,37689,0
1783264952267284400,2026-07-05T22:22:32.267+07:00,1.196,110450,37532,0
1783264952267284400,2026-07-05T22:22:32.267+07:00,1.196,110344,37480,0
1783264952267284400,2026-07-05T22:22:32.267+07:00,1.196,110197,37486,0
1783264952267284400,2026-07-05T22:22:32.267+07:00,1.196,110091,37363,0
1783264952267284400,2026-07-05T22:22:32.267+07:00,1.196,109944,37241,0
1783264952267284400,2026-07-05T22:22:32.267+07:00,1.196,109672,37100,0
1783264952267284400,2026-07-05T22:22:32.267+07:00,1.196,109505,37011,0
1783264952302118700,2026-07-05T22:22:32.302+07:00,1.230,109318,36904,0
1783264952302118700,2026-07-05T22:22:32.302+07:00,1.230,109070,36734,0
1783264952302118700,2026-07-05T22:22:32.302+07:00,1.230,109028,36715,0
1783264952302118700,2026-07-05T22:22:32.302+07:00,1.230,108864,36734,0
1783264952302118700,2026-07-05T22:22:32.302+07:00,1.230,108802,36635,0
1783264952302118700,2026-07-05T22:22:32.302+07:00,1.230,108699,36498,0
1783264952302118700,2026-07-05T22:22:32.302+07:00,1.230,108413,36431,0
1783264952302118700,2026-07-05T22:22:32.302+07:00,1.230,108311,36308,0
1783264952302118700,2026-07-05T22:22:32.302+07:00,1.230,108169,36235,0
1783264952302118700,2026-07-05T22:22:32.302+07:00,1.230,107905,36090,0
1783264952302118700,2026-07-05T22:22:32.302+07:00,1.230,107865,36084,0
1783264952302118700,2026-07-05T22:22:32.302+07:00,1.230,107844,36126,0
1783264952302118700,2026-07-05T22:22:32.302+07:00,1.230,107804,36060,0
1783264952302118700,2026-07-05T22:22:32.302+07:00,1.230,107744,35919,0
1783264952302118700,2026-07-05T22:22:32.302+07:00,1.230,107563,35865,0
1783264952346977100,2026-07-05T22:22:32.346+07:00,1.275,107442,35829,0
1783264952346977100,2026-07-05T22:22:32.346+07:00,1.275,107322,35794,0
1783264952346977100,2026-07-05T22:22:32.346+07:00,1.275,107162,35661,0
1783264952346977100,2026-07-05T22:22:32.346+07:00,1.275,107182,35687,0
1783264952346977100,2026-07-05T22:22:32.346+07:00,1.275,107162,35803,0
1783264952346977100,2026-07-05T22:22:32.346+07:00,1.275,107202,35723,0
1783264952346977100,2026-07-05T22:22:32.346+07:00,1.275,107142,35625,0
1783264952346977100,2026-07-05T22:22:32.346+07:00,1.275,107063,35599,0
1783264952346977100,2026-07-05T22:22:32.346+07:00,1.275,106963,35546,0
1783264952346977100,2026-07-05T22:22:32.346+07:00,1.275,106904,35529,0
1783264952346977100,2026-07-05T22:22:32.346+07:00,1.275,106725,35415,0
1783264952346977100,2026-07-05T22:22:32.346+07:00,1.275,106765,35450,0
1783264952346977100,2026-07-05T22:22:32.346+07:00,1.275,106765,35529,0
1783264952346977100,2026-07-05T22:22:32.346+07:00,1.275,106785,35485,0
1783264952346977100,2026-07-05T22:22:32.346+07:00,1.275,106725,35415,0
1783264952346977100,2026-07-05T22:22:32.346+07:00,1.275,106567,35398,0
1783264952346977100,2026-07-05T22:22:32.346+07:00,1.275,106469,35320,0
1783264952387660600,2026-07-05T22:22:32.387+07:00,1.316,106331,35268,0
1783264952387660600,2026-07-05T22:22:32.387+07:00,1.316,106214,35182,0
1783264952387660600,2026-07-05T22:22:32.387+07:00,1.316,106175,35190,0
1783264952387660600,2026-07-05T22:22:32.387+07:00,1.316,106116,35268,0
1783264952387660600,2026-07-05T22:22:32.387+07:00,1.316,106135,35216,0
1783264952387660600,2026-07-05T22:22:32.387+07:00,1.316,106155,35173,0
1783264952387660600,2026-07-05T22:22:32.387+07:00,1.316,105940,35182,0
1783264952387660600,2026-07-05T22:22:32.387+07:00,1.316,105862,35087,0
1783264952387660600,2026-07-05T22:22:32.387+07:00,1.316,105746,35062,0
1783264952387660600,2026-07-05T22:22:32.387+07:00,1.316,105629,34959,0
1783264952387660600,2026-07-05T22:22:32.387+07:00,1.316,105629,35002,0
1783264952387660600,2026-07-05T22:22:32.387+07:00,1.316,105629,35070,0
1783264952387660600,2026-07-05T22:22:32.387+07:00,1.316,105649,35062,0
1783264952387660600,2026-07-05T22:22:32.387+07:00,1.316,105668,35019,0
1783264952387660600,2026-07-05T22:22:32.387+07:00,1.316,105513,35045,0
1783264952387660600,2026-07-05T22:22:32.387+07:00,1.316,105417,34934,0
1783264952387660600,2026-07-05T22:22:32.387+07:00,1.316,105282,34849,0
1783264952429937000,2026-07-05T22:22:32.429+07:00,1.358,105128,34816,0
1783264952429937000,2026-07-05T22:22:32.429+07:00,1.358,105224,34833,0
1783264952429937000,2026-07-05T22:22:32.429+07:00,1.358,105320,34900,0
1783264952429937000,2026-07-05T22:22:32.429+07:00,1.358,105475,34934,0
1783264952429937000,2026-07-05T22:22:32.429+07:00,1.358,105629,34926,0
1783264952429937000,2026-07-05T22:22:32.429+07:00,1.358,105629,34942,0
1783264952429937000,2026-07-05T22:22:32.429+07:00,1.358,105707,34959,0
1783264952429937000,2026-07-05T22:22:32.429+07:00,1.358,105765,34951,0
1783264952429937000,2026-07-05T22:22:32.429+07:00,1.358,105823,34926,0
1783264952429937000,2026-07-05T22:22:32.429+07:00,1.358,105901,35002,0
1783264952429937000,2026-07-05T22:22:32.429+07:00,1.358,106057,35062,0
1783264952429937000,2026-07-05T22:22:32.429+07:00,1.358,106233,35147,0
1783264952429937000,2026-07-05T22:22:32.429+07:00,1.358,106312,35096,0
1783264952429937000,2026-07-05T22:22:32.429+07:00,1.358,106273,35139,0
1783264952429937000,2026-07-05T22:22:32.429+07:00,1.358,106331,35156,0
1783264952429937000,2026-07-05T22:22:32.429+07:00,1.358,106371,35173,0
1783264952471774200,2026-07-05T22:22:32.471+07:00,1.400,106371,35130,0
1783264952471774200,2026-07-05T22:22:32.471+07:00,1.400,106430,35233,0
1783264952471774200,2026-07-05T22:22:32.471+07:00,1.400,106489,35302,0
1783264952471774200,2026-07-05T22:22:32.471+07:00,1.400,106666,35372,0
1783264952471774200,2026-07-05T22:22:32.471+07:00,1.400,106725,35372,0
1783264952471774200,2026-07-05T22:22:32.471+07:00,1.400,106686,35398,0
1783264952471774200,2026-07-05T22:22:32.471+07:00,1.400,106686,35398,0
1783264952471774200,2026-07-05T22:22:32.471+07:00,1.400,106745,35398,0
1783264952471774200,2026-07-05T22:22:32.471+07:00,1.400,106725,35380,0
1783264952471774200,2026-07-05T22:22:32.471+07:00,1.400,106725,35441,0
1783264952471774200,2026-07-05T22:22:32.471+07:00,1.400,106785,35511,0
1783264952471774200,2026-07-05T22:22:32.471+07:00,1.400,106884,35538,0
1783264952471774200,2026-07-05T22:22:32.471+07:00,1.400,106924,35643,0
1783264952471774200,2026-07-05T22:22:32.471+07:00,1.400,106824,35573,0
1783264952471774200,2026-07-05T22:22:32.471+07:00,1.400,106805,35564,0
1783264952471774200,2026-07-05T22:22:32.471+07:00,1.400,106824,35573,0
1783264952471774200,2026-07-05T22:22:32.471+07:00,1.400,106844,35538,0
1783264952511826600,2026-07-05T22:22:32.511+07:00,1.440,106824,35581,0
1783264952511826600,2026-07-05T22:22:32.511+07:00,1.440,106904,35643,0
1783264952511826600,2026-07-05T22:22:32.511+07:00,1.440,107003,35705,0
1783264952511826600,2026-07-05T22:22:32.511+07:00,1.440,107083,35767,0
1783264952511826600,2026-07-05T22:22:32.511+07:00,1.440,107003,35670,0
1783264952511826600,2026-07-05T22:22:32.511+07:00,1.440,107023,35670,0
1783264952511826600,2026-07-05T22:22:32.511+07:00,1.440,107003,35670,0
1783264952511826600,2026-07-05T22:22:32.511+07:00,1.440,106983,35581,0
1783264952511826600,2026-07-05T22:22:32.511+07:00,1.440,107023,35670,0
1783264952511826600,2026-07-05T22:22:32.511+07:00,1.440,107083,35705,0
1783264952511826600,2026-07-05T22:22:32.511+07:00,1.440,107242,35776,0
1783264952511826600,2026-07-05T22:22:32.511+07:00,1.440,107302,35829,0
1783264952511826600,2026-07-05T22:22:32.511+07:00,1.440,107182,35740,0
1783264952511826600,2026-07-05T22:22:32.511+07:00,1.440,107162,35732,0
1783264952511826600,2026-07-05T22:22:32.511+07:00,1.440,107162,35705,0
1783264952511826600,2026-07-05T22:22:32.511+07:00,1.440,107162,35625,0
1783264952511826600,2026-07-05T22:22:32.511+07:00,1.440,107103,35670,0
1783264952557078100,2026-07-05T22:22:32.557+07:00,1.485,107162,35758,0
1783264952557078100,2026-07-05T22:22:32.557+07:00,1.485,107262,35794,0
1783264952557078100,2026-07-05T22:22:32.557+07:00,1.485,107302,35856,0
1783264952557078100,2026-07-05T22:22:32.557+07:00,1.485,107202,35776,0
1783264952557078100,2026-07-05T22:22:32.557+07:00,1.485,107242,35732,0
1783264952557078100,2026-07-05T22:22:32.557+07:00,1.485,107222,35732,0
1783264952557078100,2026-07-05T22:22:32.557+07:00,1.485,107162,35670,0
1783264952557078100,2026-07-05T22:22:32.557+07:00,1.485,107142,35714,0
1783264952557078100,2026-07-05T22:22:32.557+07:00,1.485,107222,35785,0
1783264952557078100,2026-07-05T22:22:32.557+07:00,1.485,107302,35847,0
1783264952557078100,2026-07-05T22:22:32.557+07:00,1.485,107322,35892,0
1783264952557078100,2026-07-05T22:22:32.557+07:00,1.485,107262,35838,0
1783264952557078100,2026-07-05T22:22:32.557+07:00,1.485,107262,35803,0
1783264952557078100,2026-07-05T22:22:32.557+07:00,1.485,107282,35803,0
1783264952557078100,2026-07-05T22:22:32.557+07:00,1.485,107262,35696,0
1783264952557078100,2026-07-05T22:22:32.557+07:00,1.485,107222,35794,0
1783264952557078100,2026-07-05T22:22:32.557+07:00,1.485,107322,35820,0
1783264952591404200,2026-07-05T22:22:32.591+07:00,1.520,107462,35928,0
1783264952591404200,2026-07-05T22:22:32.591+07:00,1.520,107422,35982,0
1783264952591404200,2026-07-05T22:22:32.591+07:00,1.520,107442,35910,0
1783264952591404200,2026-07-05T22:22:32.591+07:00,1.520,107442,35919,0
1783264952591404200,2026-07-05T22:22:32.591+07:00,1.520,107462,35901,0
1783264952591404200,2026-07-05T22:22:32.591+07:00,1.520,107462,35829,0
1783264952591404200,2026-07-05T22:22:32.591+07:00,1.520,107462,35910,0
1783264952591404200,2026-07-05T22:22:32.591+07:00,1.520,107583,35964,0
1783264952591404200,2026-07-05T22:22:32.591+07:00,1.520,107744,36078,0
1783264952591404200,2026-07-05T22:22:32.591+07:00,1.520,107744,36114,0
1783264952591404200,2026-07-05T22:22:32.591+07:00,1.520,107744,36072,0
1783264952591404200,2026-07-05T22:22:32.591+07:00,1.520,107703,36042,0
1783264952591404200,2026-07-05T22:22:32.591+07:00,1.520,107764,36042,0
1783264952591404200,2026-07-05T22:22:32.591+07:00,1.520,107764,35955,0
1783264952591404200,2026-07-05T22:22:32.591+07:00,1.520,107764,36066,0
1783264952636887700,2026-07-05T22:22:32.636+07:00,1.565,107885,36126,0
1783264952636887700,2026-07-05T22:22:32.636+07:00,1.565,107986,36211,0
1783264952636887700,2026-07-05T22:22:32.636+07:00,1.565,107966,36253,0
1783264952636887700,2026-07-05T22:22:32.636+07:00,1.565,107986,36168,0
1783264952636887700,2026-07-05T22:22:32.636+07:00,1.565,107986,36156,0
1783264952636887700,2026-07-05T22:22:32.636+07:00,1.565,107986,36162,0
1783264952636887700,2026-07-05T22:22:32.636+07:00,1.565,107966,36102,0
1783264952636887700,2026-07-05T22:22:32.636+07:00,1.565,107966,36180,0
1783264952636887700,2026-07-05T22:22:32.636+07:00,1.565,108047,36229,0
1783264952636887700,2026-07-05T22:22:32.636+07:00,1.565,108148,36290,0
1783264952636887700,2026-07-05T22:22:32.636+07:00,1.565,108148,36351,0
1783264952636887700,2026-07-05T22:22:32.636+07:00,1.565,108128,36278,0
1783264952636887700,2026-07-05T22:22:32.636+07:00,1.565,108087,36278,0
1783264952636887700,2026-07-05T22:22:32.636+07:00,1.565,108128,36253,0
1783264952636887700,2026-07-05T22:22:32.636+07:00,1.565,108128,36180,0
1783264952636887700,2026-07-05T22:22:32.636+07:00,1.565,108108,36284,0
1783264952636887700,2026-07-05T22:22:32.636+07:00,1.565,108209,36314,0
1783264952677276200,2026-07-05T22:22:32.677+07:00,1.606,108311,36394,0
1783264952677276200,2026-07-05T22:22:32.677+07:00,1.606,108291,36468,0
1783264952677276200,2026-07-05T22:22:32.677+07:00,1.606,108331,36369,0
1783264952677276200,2026-07-05T22:22:32.677+07:00,1.606,108291,36357,0
1783264952677276200,2026-07-05T22:22:32.677+07:00,1.606,108311,36345,0
1783264952677276200,2026-07-05T22:22:32.677+07:00,1.606,108270,36302,0
1783264952677276200,2026-07-05T22:22:32.677+07:00,1.606,108270,36326,0
1783264952677276200,2026-07-05T22:22:32.677+07:00,1.606,108352,36400,0
1783264952677276200,2026-07-05T22:22:32.677+07:00,1.606,108454,36455,0
1783264952677276200,2026-07-05T22:22:32.677+07:00,1.606,108454,36529,0
1783264952677276200,2026-07-05T22:22:32.677+07:00,1.606,108495,36455,0
1783264952677276200,2026-07-05T22:22:32.677+07:00,1.606,108495,36418,0
1783264952677276200,2026-07-05T22:22:32.677+07:00,1.606,108515,36412,0
1783264952677276200,2026-07-05T22:22:32.677+07:00,1.606,108454,36369,0
1783264952677276200,2026-07-05T22:22:32.677+07:00,1.606,108454,36412,0
1783264952677276200,2026-07-05T22:22:32.677+07:00,1.606,108556,36455,0
1783264952677276200,2026-07-05T22:22:32.677+07:00,1.606,108658,36529,0
1783264952720386400,2026-07-05T22:22:32.720+07:00,1.649,108658,36597,0
1783264952720386400,2026-07-05T22:22:32.720+07:00,1.649,108638,36492,0
1783264952720386400,2026-07-05T22:22:32.720+07:00,1.649,108597,36474,0
1783264952720386400,2026-07-05T22:22:32.720+07:00,1.649,108576,36480,0
1783264952720386400,2026-07-05T22:22:32.720+07:00,1.649,108617,36468,0
1783264952720386400,2026-07-05T22:22:32.720+07:00,1.649,108535,36461,0
1783264952720386400,2026-07-05T22:22:32.720+07:00,1.649,108658,36529,0
1783264952720386400,2026-07-05T22:22:32.720+07:00,1.649,108740,36591,0
1783264952720386400,2026-07-05T22:22:32.720+07:00,1.649,108720,36641,0
1783264952720386400,2026-07-05T22:22:32.720+07:00,1.649,108720,36548,0
1783264952720386400,2026-07-05T22:22:32.720+07:00,1.649,108699,36560,0
1783264952720386400,2026-07-05T22:22:32.720+07:00,1.649,108699,36554,0
1783264952720386400,2026-07-05T22:22:32.720+07:00,1.649,108699,36554,0
1783264952720386400,2026-07-05T22:22:32.720+07:00,1.649,108679,36548,0
1783264952720386400,2026-07-05T22:22:32.720+07:00,1.649,108740,36622,0
1783264952720386400,2026-07-05T22:22:32.720+07:00,1.649,108843,36691,0
1783264952720386400,2026-07-05T22:22:32.720+07:00,1.649,108843,36747,0
1783264952764225900,2026-07-05T22:22:32.764+07:00,1.693,108843,36635,0
1783264952764225900,2026-07-05T22:22:32.764+07:00,1.693,108802,36653,0
1783264952764225900,2026-07-05T22:22:32.764+07:00,1.693,108843,36647,0
1783264952764225900,2026-07-05T22:22:32.764+07:00,1.693,108864,36641,0
1783264952764225900,2026-07-05T22:22:32.764+07:00,1.693,108843,36635,0
1783264952764225900,2026-07-05T22:22:32.764+07:00,1.693,108925,36697,0
1783264952764225900,2026-07-05T22:22:32.764+07:00,1.693,109008,36803,0
1783264952764225900,2026-07-05T22:22:32.764+07:00,1.693,108987,36841,0
1783264952764225900,2026-07-05T22:22:32.764+07:00,1.693,109008,36734,0
1783264952764225900,2026-07-05T22:22:32.764+07:00,1.693,108967,36703,0
1783264952764225900,2026-07-05T22:22:32.764+07:00,1.693,108925,36747,0
1783264952764225900,2026-07-05T22:22:32.764+07:00,1.693,108967,36697,0
1783264952764225900,2026-07-05T22:22:32.764+07:00,1.693,108884,36691,0
1783264952764225900,2026-07-05T22:22:32.764+07:00,1.693,109028,36747,0
1783264952764225900,2026-07-05T22:22:32.764+07:00,1.693,109111,36834,0
1783264952764225900,2026-07-05T22:22:32.764+07:00,1.693,109111,36866,0
1783264952764225900,2026-07-05T22:22:32.764+07:00,1.693,109090,36778,0
1783264952764225900,2026-07-05T22:22:32.764+07:00,1.693,109028,36784,0
1783264952803206700,2026-07-05T22:22:32.803+07:00,1.732,109049,36772,0
1783264952803206700,2026-07-05T22:22:32.803+07:00,1.732,109049,36759,0
1783264952803206700,2026-07-05T22:22:32.803+07:00,1.732,109028,36734,0
1783264952803206700,2026-07-05T22:22:32.803+07:00,1.732,109090,36809,0
1783264952803206700,2026-07-05T22:22:32.803+07:00,1.732,109215,36897,0
1783264952803206700,2026-07-05T22:22:32.803+07:00,1.732,109173,36960,0
1783264952803206700,2026-07-05T22:22:32.803+07:00,1.732,109152,36860,0
1783264952803206700,2026-07-05T22:22:32.803+07:00,1.732,109132,36860,0
1783264952803206700,2026-07-05T22:22:32.803+07:00,1.732,109152,36834,0
1783264952803206700,2026-07-05T22:22:32.803+07:00,1.732,109173,36834,0
1783264952803206700,2026-07-05T22:22:32.803+07:00,1.732,109111,36803,0
1783264952803206700,2026-07-05T22:22:32.803+07:00,1.732,109194,36866,0
1783264952803206700,2026-07-05T22:22:32.803+07:00,1.732,109277,36954,0
1783264952803206700,2026-07-05T22:22:32.803+07:00,1.732,109297,37017,0
1783264952803206700,2026-07-05T22:22:32.803+07:00,1.732,109318,36916,0
1783264952846985000,2026-07-05T22:22:32.846+07:00,1.775,109256,36897,0
1783264952846985000,2026-07-05T22:22:32.846+07:00,1.775,109256,36891,0
1783264952846985000,2026-07-05T22:22:32.846+07:00,1.775,109235,36872,0
1783264952846985000,2026-07-05T22:22:32.846+07:00,1.775,109173,36834,0
1783264952846985000,2026-07-05T22:22:32.846+07:00,1.775,109297,36929,0
1783264952846985000,2026-07-05T22:22:32.846+07:00,1.775,109380,37011,0
1783264952846985000,2026-07-05T22:22:32.846+07:00,1.775,109339,37056,0
1783264952846985000,2026-07-05T22:22:32.846+07:00,1.775,109339,36954,0
1783264952846985000,2026-07-05T22:22:32.846+07:00,1.775,109297,36935,0
1783264952846985000,2026-07-05T22:22:32.846+07:00,1.775,109277,36929,0
1783264952846985000,2026-07-05T22:22:32.846+07:00,1.775,109277,36891,0
1783264952846985000,2026-07-05T22:22:32.846+07:00,1.775,109215,36866,0
1783264952846985000,2026-07-05T22:22:32.846+07:00,1.775,109277,36942,0
1783264952846985000,2026-07-05T22:22:32.846+07:00,1.775,109360,37030,0
1783264952846985000,2026-07-05T22:22:32.846+07:00,1.775,109360,37017,0
1783264952846985000,2026-07-05T22:22:32.846+07:00,1.775,109339,36979,0
1783264952846985000,2026-07-05T22:22:32.846+07:00,1.775,109297,36929,0
1783264952887318000,2026-07-05T22:22:32.887+07:00,1.816,109297,36916,0
1783264952887318000,2026-07-05T22:22:32.887+07:00,1.816,109277,36897,0
1783264952887318000,2026-07-05T22:22:32.887+07:00,1.816,109215,36904,0
1783264952887318000,2026-07-05T22:22:32.887+07:00,1.816,109297,36960,0
1783264952887318000,2026-07-05T22:22:32.887+07:00,1.816,109380,37043,0
1783264952887318000,2026-07-05T22:22:32.887+07:00,1.816,109380,37005,0
1783264952887318000,2026-07-05T22:22:32.887+07:00,1.816,109339,36979,0
1783264952887318000,2026-07-05T22:22:32.887+07:00,1.816,109297,36954,0
1783264952887318000,2026-07-05T22:22:32.887+07:00,1.816,109256,36954,0
1783264952887318000,2026-07-05T22:22:32.887+07:00,1.816,109256,36935,0
1783264952887318000,2026-07-05T22:22:32.887+07:00,1.816,109215,36897,0
1783264952887318000,2026-07-05T22:22:32.887+07:00,1.816,109318,36979,0
1783264952887318000,2026-07-05T22:22:32.887+07:00,1.816,109380,37037,0
1783264952887318000,2026-07-05T22:22:32.887+07:00,1.816,109380,37030,0
1783264952887318000,2026-07-05T22:22:32.887+07:00,1.816,109401,37024,0
1783264952887318000,2026-07-05T22:22:32.887+07:00,1.816,109360,36986,0
1783264952887318000,2026-07-05T22:22:32.887+07:00,1.816,109339,36973,0
1783264952928668800,2026-07-05T22:22:32.928+07:00,1.857,109318,36935,0
1783264952928668800,2026-07-05T22:22:32.928+07:00,1.857,109256,36923,0
1783264952928668800,2026-07-05T22:22:32.928+07:00,1.857,109380,36998,0
1783264952928668800,2026-07-05T22:22:32.928+07:00,1.857,109484,37081,0
1783264952928668800,2026-07-05T22:22:32.928+07:00,1.857,109401,37068,0
1783264952928668800,2026-07-05T22:22:32.928+07:00,1.857,109422,37049,0
1783264952928668800,2026-07-05T22:22:32.928+07:00,1.857,109422,37017,0
1783264952928668800,2026-07-05T22:22:32.928+07:00,1.857,109401,37017,0
1783264952928668800,2026-07-05T22:22:32.928+07:00,1.857,109422,37005,0
1783264952928668800,2026-07-05T22:22:32.928+07:00,1.857,109339,36986,0
1783264952928668800,2026-07-05T22:22:32.928+07:00,1.857,109443,37049,0
1783264952928668800,2026-07-05T22:22:32.928+07:00,1.857,109547,37132,0
1783264952928668800,2026-07-05T22:22:32.928+07:00,1.857,109484,37113,0
1783264952928668800,2026-07-05T22:22:32.928+07:00,1.857,109526,37107,0
1783264952928668800,2026-07-05T22:22:32.928+07:00,1.857,109526,37113,0
1783264952928668800,2026-07-05T22:22:32.928+07:00,1.857,109568,37100,0
1783264952928668800,2026-07-05T22:22:32.928+07:00,1.857,109526,37068,0
1783264952970253900,2026-07-05T22:22:32.970+07:00,1.899,109505,37075,0
1783264952970253900,2026-07-05T22:22:32.970+07:00,1.899,109589,37132,0
1783264952970253900,2026-07-05T22:22:32.970+07:00,1.899,109693,37247,0
1783264952970253900,2026-07-05T22:22:32.970+07:00,1.899,109672,37215,0
1783264952970253900,2026-07-05T22:22:32.970+07:00,1.899,109672,37209,0
1783264952970253900,2026-07-05T22:22:32.970+07:00,1.899,109714,37190,0
1783264952970253900,2026-07-05T22:22:32.970+07:00,1.899,109672,37183,0
1783264952970253900,2026-07-05T22:22:32.970+07:00,1.899,109693,37170,0
1783264952970253900,2026-07-05T22:22:32.970+07:00,1.899,109609,37158,0
1783264952970253900,2026-07-05T22:22:32.970+07:00,1.899,109735,37234,0
1783264952970253900,2026-07-05T22:22:32.970+07:00,1.899,109818,37318,0
1783264952970253900,2026-07-05T22:22:32.970+07:00,1.899,109839,37305,0
1783264952970253900,2026-07-05T22:22:32.970+07:00,1.899,109881,37279,0
1783264952970253900,2026-07-05T22:22:32.970+07:00,1.899,109818,37247,0
1783264952970253900,2026-07-05T22:22:32.970+07:00,1.899,109818,37279,0
1783264952970253900,2026-07-05T22:22:32.970+07:00,1.899,109818,37247,0
1783264952970253900,2026-07-05T22:22:32.970+07:00,1.899,109797,37215,0
1783264953008567100,2026-07-05T22:22:33.008+07:00,1.937,109881,37331,0
1783264953008567100,2026-07-05T22:22:33.008+07:00,1.937,109986,37435,0
1783264953008567100,2026-07-05T22:22:33.008+07:00,1.937,110007,37376,0
1783264953008567100,2026-07-05T22:22:33.008+07:00,1.937,109986,37383,0
1783264953008567100,2026-07-05T22:22:33.008+07:00,1.937,109944,37383,0
1783264953008567100,2026-07-05T22:22:33.008+07:00,1.937,110049,37383,0
1783264953008567100,2026-07-05T22:22:33.008+07:00,1.937,110049,37350,0
1783264953008567100,2026-07-05T22:22:33.008+07:00,1.937,109986,37344,0
1783264953008567100,2026-07-05T22:22:33.008+07:00,1.937,110091,37441,0
1783264953008567100,2026-07-05T22:22:33.008+07:00,1.937,110175,37519,0
1783264953008567100,2026-07-05T22:22:33.008+07:00,1.937,110239,37545,0
1783264953008567100,2026-07-05T22:22:33.008+07:00,1.937,110218,37545,0
1783264953008567100,2026-07-05T22:22:33.008+07:00,1.937,110281,37526,0
1783264953008567100,2026-07-05T22:22:33.008+07:00,1.937,110302,37532,0
1783264953008567100,2026-07-05T22:22:33.008+07:00,1.937,110302,37519,0
1783264953054431700,2026-07-05T22:22:33.054+07:00,1.983,110239,37493,0
1783264953054431700,2026-07-05T22:22:33.054+07:00,1.983,110387,37597,0
1783264953054431700,2026-07-05T22:22:33.054+07:00,1.983,110492,37676,0
1783264953054431700,2026-07-05T22:22:33.054+07:00,1.983,110471,37656,0
1783264953054431700,2026-07-05T22:22:33.054+07:00,1.983,110556,37650,0
1783264953054431700,2026-07-05T22:22:33.054+07:00,1.983,110471,37611,0
1783264953054431700,2026-07-05T22:22:33.054+07:00,1.983,110514,37630,0
1783264953054431700,2026-07-05T22:22:33.054+07:00,1.983,110492,37552,0
1783264953054431700,2026-07-05T22:22:33.054+07:00,1.983,110302,37473,0
1783264953054431700,2026-07-05T22:22:33.054+07:00,1.983,110365,37545,0
1783264953054431700,2026-07-05T22:22:33.054+07:00,1.983,110408,37571,0
1783264953054431700,2026-07-05T22:22:33.054+07:00,1.983,110365,37545,0
1783264953054431700,2026-07-05T22:22:33.054+07:00,1.983,110260,37650,0
1783264953054431700,2026-07-05T22:22:33.054+07:00,1.983,110197,37396,0
1783264953054431700,2026-07-05T22:22:33.054+07:00,1.983,110154,37363,0
1783264953054431700,2026-07-05T22:22:33.054+07:00,1.983,110049,37279,0
1783264953054431700,2026-07-05T22:22:33.054+07:00,1.983,109923,37164,0
1783264953054431700,2026-07-05T22:22:33.054+07:00,1.983,109923,37209,0
1783264953096890200,2026-07-05T22:22:33.096+07:00,2.025,109902,37228,0
1783264953096890200,2026-07-05T22:22:33.096+07:00,2.025,109839,37170,0
1783264953096890200,2026-07-05T22:22:33.096+07:00,2.025,109756,37100,0
1783264953096890200,2026-07-05T22:22:33.096+07:00,2.025,109672,36992,0
1783264953096890200,2026-07-05T22:22:33.096+07:00,2.025,109589,36942,0
1783264953096890200,2026-07-05T22:22:33.096+07:00,2.025,109505,36853,0
1783264953096890200,2026-07-05T22:22:33.096+07:00,2.025,109318,36740,0
1783264953096890200,2026-07-05T22:22:33.096+07:00,2.025,109297,36822,0
1783264953096890200,2026-07-05T22:22:33.096+07:00,2.025,109339,36834,0
1783264953096890200,2026-07-05T22:22:33.096+07:00,2.025,109277,36778,0
1783264953096890200,2026-07-05T22:22:33.096+07:00,2.025,109235,36747,0
1783264953096890200,2026-07-05T22:22:33.096+07:00,2.025,109132,36666,0
1783264953096890200,2026-07-05T22:22:33.096+07:00,2.025,109090,36616,0
1783264953096890200,2026-07-05T22:22:33.096+07:00,2.025,109049,36566,0
1783264953096890200,2026-07-05T22:22:33.096+07:00,2.025,108905,36468,0
1783264953096890200,2026-07-05T22:22:33.096+07:00,2.025,108925,36542,0
1783264953096890200,2026-07-05T22:22:33.096+07:00,2.025,109028,36585,0
1783264953136915200,2026-07-05T22:22:33.136+07:00,2.065,108967,36560,0
1783264953136915200,2026-07-05T22:22:33.136+07:00,2.065,108864,36498,0
1783264953136915200,2026-07-05T22:22:33.136+07:00,2.065,108843,36455,0
1783264953136915200,2026-07-05T22:22:33.136+07:00,2.065,108864,36468,0
1783264953136915200,2026-07-05T22:22:33.136+07:00,2.065,108843,36406,0
1783264953136915200,2026-07-05T22:22:33.136+07:00,2.065,108761,36369,0
1783264953136915200,2026-07-05T22:22:33.136+07:00,2.065,108822,36449,0
1783264953136915200,2026-07-05T22:22:33.136+07:00,2.065,108905,36535,0
1783264953136915200,2026-07-05T22:22:33.136+07:00,2.065,108905,36486,0
1783264953136915200,2026-07-05T22:22:33.136+07:00,2.065,108864,36474,0
1783264953136915200,2026-07-05T22:22:33.136+07:00,2.065,108843,36443,0
1783264953136915200,2026-07-05T22:22:33.136+07:00,2.065,108802,36443,0
1783264953136915200,2026-07-05T22:22:33.136+07:00,2.065,108843,36431,0
1783264953136915200,2026-07-05T22:22:33.136+07:00,2.065,108740,36351,0
1783264953136915200,2026-07-05T22:22:33.136+07:00,2.065,108822,36455,0
1783264953136915200,2026-07-05T22:22:33.136+07:00,2.065,108925,36542,0
1783264953136915200,2026-07-05T22:22:33.136+07:00,2.065,108925,36504,0
1783264953183040300,2026-07-05T22:22:33.183+07:00,2.111,108905,36504,0
1783264953183040300,2026-07-05T22:22:33.183+07:00,2.111,108822,36474,0
1783264953183040300,2026-07-05T22:22:33.183+07:00,2.111,108884,36480,0
1783264953183040300,2026-07-05T22:22:33.183+07:00,2.111,108905,36468,0
1783264953183040300,2026-07-05T22:22:33.183+07:00,2.111,108822,36394,0
1783264953183040300,2026-07-05T22:22:33.183+07:00,2.111,108864,36498,0
1783264953183040300,2026-07-05T22:22:33.183+07:00,2.111,109008,36610,0
1783264953183040300,2026-07-05T22:22:33.183+07:00,2.111,108987,36529,0
1783264953183040300,2026-07-05T22:22:33.183+07:00,2.111,108967,36529,0
1783264953183040300,2026-07-05T22:22:33.183+07:00,2.111,108946,36511,0
1783264953183040300,2026-07-05T22:22:33.183+07:00,2.111,108905,36504,0
1783264953183040300,2026-07-05T22:22:33.183+07:00,2.111,108925,36492,0
1783264953183040300,2026-07-05T22:22:33.183+07:00,2.111,108843,36449,0
1783264953183040300,2026-07-05T22:22:33.183+07:00,2.111,108905,36529,0
1783264953183040300,2026-07-05T22:22:33.183+07:00,2.111,109070,36591,0
1783264953183040300,2026-07-05T22:22:33.183+07:00,2.111,109008,36572,0
1783264953183040300,2026-07-05T22:22:33.183+07:00,2.111,108987,36548,0
1783264953219854600,2026-07-05T22:22:33.219+07:00,2.148,109008,36554,0
1783264953221869600,2026-07-05T22:22:33.221+07:00,2.150,108946,36517,0
1783264953221869600,2026-07-05T22:22:33.221+07:00,2.150,108987,36523,0
1783264953221869600,2026-07-05T22:22:33.221+07:00,2.150,108884,36443,0
1783264953221869600,2026-07-05T22:22:33.221+07:00,2.150,108925,36542,0
1783264953221869600,2026-07-05T22:22:33.221+07:00,2.150,109028,36616,0
1783264953221869600,2026-07-05T22:22:33.221+07:00,2.150,109028,36585,0
1783264953221869600,2026-07-05T22:22:33.221+07:00,2.150,109008,36566,0
1783264953221869600,2026-07-05T22:22:33.221+07:00,2.150,108987,36560,0
1783264953221869600,2026-07-05T22:22:33.221+07:00,2.150,108967,36554,0
1783264953221869600,2026-07-05T22:22:33.221+07:00,2.150,109008,36529,0
1783264953221869600,2026-07-05T22:22:33.221+07:00,2.150,108967,36455,0
1783264953221869600,2026-07-05T22:22:33.221+07:00,2.150,108967,36560,0
1783264953221869600,2026-07-05T22:22:33.221+07:00,2.150,109090,36653,0
1783264953221869600,2026-07-05T22:22:33.221+07:00,2.150,109132,36628,0
1783264953263465600,2026-07-05T22:22:33.263+07:00,2.192,109132,36610,0
1783264953263465600,2026-07-05T22:22:33.263+07:00,2.192,109111,36603,0
1783264953263465600,2026-07-05T22:22:33.263+07:00,2.192,109152,36603,0
1783264953263465600,2026-07-05T22:22:33.263+07:00,2.192,109132,36616,0
1783264953263465600,2026-07-05T22:22:33.263+07:00,2.192,109070,36579,0
1783264953263465600,2026-07-05T22:22:33.263+07:00,2.192,109152,36672,0
1783264953263465600,2026-07-05T22:22:33.263+07:00,2.192,109297,36759,0
1783264953263465600,2026-07-05T22:22:33.263+07:00,2.192,109318,36753,0
1783264953263465600,2026-07-05T22:22:33.263+07:00,2.192,109318,36753,0
1783264953263465600,2026-07-05T22:22:33.263+07:00,2.192,109380,36772,0
1783264953263465600,2026-07-05T22:22:33.263+07:00,2.192,109318,36753,0
1783264953263465600,2026-07-05T22:22:33.263+07:00,2.192,109360,36747,0
1783264953263465600,2026-07-05T22:22:33.263+07:00,2.192,109318,36691,0
1783264953263465600,2026-07-05T22:22:33.263+07:00,2.192,109360,36778,0
1783264953263465600,2026-07-05T22:22:33.263+07:00,2.192,109464,36878,0
1783264953263465600,2026-07-05T22:22:33.263+07:00,2.192,109505,36866,0
1783264953263465600,2026-07-05T22:22:33.263+07:00,2.192,109505,36847,0
1783264953301576800,2026-07-05T22:22:33.301+07:00,2.230,109505,36866,0
1783264953301576800,2026-07-05T22:22:33.301+07:00,2.230,109464,36834,0
1783264953301576800,2026-07-05T22:22:33.301+07:00,2.230,109464,36847,0
1783264953301576800,2026-07-05T22:22:33.301+07:00,2.230,109443,36772,0
1783264953301576800,2026-07-05T22:22:33.301+07:00,2.230,109484,36860,0
1783264953301576800,2026-07-05T22:22:33.301+07:00,2.230,109526,36910,0
1783264953301576800,2026-07-05T22:22:33.301+07:00,2.230,109589,36897,0
1783264953301576800,2026-07-05T22:22:33.301+07:00,2.230,109526,36910,0
1783264953301576800,2026-07-05T22:22:33.301+07:00,2.230,109505,36885,0
1783264953301576800,2026-07-05T22:22:33.301+07:00,2.230,109484,36866,0
1783264953301576800,2026-07-05T22:22:33.301+07:00,2.230,109484,36841,0
1783264953301576800,2026-07-05T22:22:33.301+07:00,2.230,109422,36778,0
1783264953301576800,2026-07-05T22:22:33.301+07:00,2.230,109464,36841,0
1783264953301576800,2026-07-05T22:22:33.301+07:00,2.230,109505,36916,0
1783264953301576800,2026-07-05T22:22:33.301+07:00,2.230,109609,36910,0
1783264953301576800,2026-07-05T22:22:33.301+07:00,2.230,109526,36866,0
1783264953346038800,2026-07-05T22:22:33.346+07:00,2.274,109505,36847,0
1783264953346038800,2026-07-05T22:22:33.346+07:00,2.274,109443,36828,0
1783264953346038800,2026-07-05T22:22:33.346+07:00,2.274,109505,36822,0
1783264953346038800,2026-07-05T22:22:33.346+07:00,2.274,109380,36759,0
1783264953346038800,2026-07-05T22:22:33.346+07:00,2.274,109422,36828,0
1783264953346038800,2026-07-05T22:22:33.346+07:00,2.274,109443,36885,0
1783264953346038800,2026-07-05T22:22:33.346+07:00,2.274,109505,36866,0
1783264953346038800,2026-07-05T22:22:33.346+07:00,2.274,109526,36847,0
1783264953346038800,2026-07-05T22:22:33.346+07:00,2.274,109422,36822,0
1783264953346038800,2026-07-05T22:22:33.346+07:00,2.274,109401,36816,0
1783264953346038800,2026-07-05T22:22:33.346+07:00,2.274,109380,36784,0
1783264953346038800,2026-07-05T22:22:33.346+07:00,2.274,109339,36709,0
1783264953346038800,2026-07-05T22:22:33.346+07:00,2.274,109360,36791,0
1783264953346038800,2026-07-05T22:22:33.346+07:00,2.274,109422,36853,0
1783264953346038800,2026-07-05T22:22:33.346+07:00,2.274,109443,36853,0
1783264953346038800,2026-07-05T22:22:33.346+07:00,2.274,109505,36828,0
1783264953346038800,2026-07-05T22:22:33.346+07:00,2.274,109380,36797,0
1783264953389109100,2026-07-05T22:22:33.389+07:00,2.317,109401,36809,0
1783264953389109100,2026-07-05T22:22:33.389+07:00,2.317,109380,36778,0
1783264953389109100,2026-07-05T22:22:33.389+07:00,2.317,109277,36722,0
1783264953389109100,2026-07-05T22:22:33.389+07:00,2.317,109380,36784,0
1783264953389109100,2026-07-05T22:22:33.389+07:00,2.317,109422,36853,0
1783264953389109100,2026-07-05T22:22:33.389+07:00,2.317,109484,36885,0
1783264953389109100,2026-07-05T22:22:33.389+07:00,2.317,109526,36847,0
1783264953389109100,2026-07-05T22:22:33.389+07:00,2.317,109464,36841,0
1783264953389109100,2026-07-05T22:22:33.389+07:00,2.317,109464,36841,0
1783264953389109100,2026-07-05T22:22:33.389+07:00,2.317,109443,36828,0
1783264953389109100,2026-07-05T22:22:33.389+07:00,2.317,109380,36772,0
1783264953389109100,2026-07-05T22:22:33.389+07:00,2.317,109464,36828,0
1783264953389109100,2026-07-05T22:22:33.389+07:00,2.317,109484,36929,0
1783264953389109100,2026-07-05T22:22:33.389+07:00,2.317,109609,36929,0
1783264953389109100,2026-07-05T22:22:33.389+07:00,2.317,109609,36904,0
1783264953389109100,2026-07-05T22:22:33.389+07:00,2.317,109589,36910,0
1783264953389109100,2026-07-05T22:22:33.389+07:00,2.317,109630,36897,0
1783264953425543200,2026-07-05T22:22:33.425+07:00,2.354,109547,36910,0
1783264953425543200,2026-07-05T22:22:33.425+07:00,2.354,109505,36866,0
1783264953425543200,2026-07-05T22:22:33.425+07:00,2.354,109589,36897,0
1783264953425543200,2026-07-05T22:22:33.425+07:00,2.354,109651,37017,0
1783264953425543200,2026-07-05T22:22:33.425+07:00,2.354,109756,37011,0
1783264953425543200,2026-07-05T22:22:33.425+07:00,2.354,109818,36992,0
1783264953425543200,2026-07-05T22:22:33.425+07:00,2.354,109735,36992,0
1783264953425543200,2026-07-05T22:22:33.425+07:00,2.354,109714,36986,0
1783264953425543200,2026-07-05T22:22:33.425+07:00,2.354,109714,36992,0
1783264953425543200,2026-07-05T22:22:33.425+07:00,2.354,109651,36929,0
1783264953425543200,2026-07-05T22:22:33.425+07:00,2.354,109756,36986,0
1783264953425543200,2026-07-05T22:22:33.425+07:00,2.354,109839,37132,0
1783264953425543200,2026-07-05T22:22:33.425+07:00,2.354,109923,37113,0
1783264953425543200,2026-07-05T22:22:33.425+07:00,2.354,110007,37100,0
1783264953425543200,2026-07-05T22:22:33.425+07:00,2.354,109881,37094,0
1783264953468149300,2026-07-05T22:22:33.468+07:00,2.396,109902,37107,0
1783264953468149300,2026-07-05T22:22:33.468+07:00,2.396,109902,37100,0
1783264953468149300,2026-07-05T22:22:33.468+07:00,2.396,109860,37075,0
1783264953468149300,2026-07-05T22:22:33.468+07:00,2.396,109965,37119,0
1783264953468149300,2026-07-05T22:22:33.468+07:00,2.396,110028,37247,0
1783264953468149300,2026-07-05T22:22:33.468+07:00,2.396,110154,37241,0
1783264953468149300,2026-07-05T22:22:33.468+07:00,2.396,110218,37215,0
1783264953468149300,2026-07-05T22:22:33.468+07:00,2.396,110091,37228,0
1783264953468149300,2026-07-05T22:22:33.468+07:00,2.396,110112,37222,0
1783264953468149300,2026-07-05T22:22:33.468+07:00,2.396,110133,37177,0
1783264953468149300,2026-07-05T22:22:33.468+07:00,2.396,110091,37158,0
1783264953468149300,2026-07-05T22:22:33.468+07:00,2.396,110175,37234,0
1783264953468149300,2026-07-05T22:22:33.468+07:00,2.396,110239,37350,0
1783264953468149300,2026-07-05T22:22:33.468+07:00,2.396,110302,37344,0
1783264953468149300,2026-07-05T22:22:33.468+07:00,2.396,110387,37318,0
1783264953468149300,2026-07-05T22:22:33.468+07:00,2.396,110302,37337,0
1783264953468149300,2026-07-05T22:22:33.468+07:00,2.396,110302,37337,0
1783264953510286600,2026-07-05T22:22:33.510+07:00,2.439,110302,37331,0
1783264953510286600,2026-07-05T22:22:33.510+07:00,2.439,110260,37292,0
1783264953510286600,2026-07-05T22:22:33.510+07:00,2.439,110344,37350,0
1783264953510286600,2026-07-05T22:22:33.510+07:00,2.439,110429,37473,0
1783264953510286600,2026-07-05T22:22:33.510+07:00,2.439,110556,37467,0
1783264953510286600,2026-07-05T22:22:33.510+07:00,2.439,110577,37447,0
1783264953510286600,2026-07-05T22:22:33.510+07:00,2.439,110535,37473,0
1783264953510286600,2026-07-05T22:22:33.510+07:00,2.439,110514,37460,0
1783264953510286600,2026-07-05T22:22:33.510+07:00,2.439,110514,37441,0
1783264953510286600,2026-07-05T22:22:33.510+07:00,2.439,110492,37396,0
1783264953510286600,2026-07-05T22:22:33.510+07:00,2.439,110577,37467,0
1783264953510286600,2026-07-05T22:22:33.510+07:00,2.439,110641,37552,0
1783264953510286600,2026-07-05T22:22:33.510+07:00,2.439,110747,37584,0
1783264953510286600,2026-07-05T22:22:33.510+07:00,2.439,110811,37545,0
1783264953510286600,2026-07-05T22:22:33.510+07:00,2.439,110684,37558,0
1783264953510286600,2026-07-05T22:22:33.510+07:00,2.439,110662,37532,0
1783264953510286600,2026-07-05T22:22:33.510+07:00,2.439,110662,37558,0
1783264953553538800,2026-07-05T22:22:33.553+07:00,2.482,110620,37493,0
1783264953553538800,2026-07-05T22:22:33.553+07:00,2.482,110705,37558,0
1783264953553538800,2026-07-05T22:22:33.553+07:00,2.482,110769,37617,0
1783264953553538800,2026-07-05T22:22:33.553+07:00,2.482,110811,37650,0
1783264953553538800,2026-07-05T22:22:33.553+07:00,2.482,110918,37643,0
1783264953553538800,2026-07-05T22:22:33.553+07:00,2.482,110769,37656,0
1783264953553538800,2026-07-05T22:22:33.553+07:00,2.482,110833,37637,0
1783264953553538800,2026-07-05T22:22:33.553+07:00,2.482,110811,37637,0
1783264953553538800,2026-07-05T22:22:33.553+07:00,2.482,110769,37591,0
1783264953553538800,2026-07-05T22:22:33.553+07:00,2.482,110854,37656,0
1783264953553538800,2026-07-05T22:22:33.553+07:00,2.482,110918,37716,0
1783264953553538800,2026-07-05T22:22:33.553+07:00,2.482,111004,37762,0
1783264953553538800,2026-07-05T22:22:33.553+07:00,2.482,111111,37749,0
1783264953553538800,2026-07-05T22:22:33.553+07:00,2.482,110939,37755,0
1783264953553538800,2026-07-05T22:22:33.553+07:00,2.482,111004,37749,0
1783264953553538800,2026-07-05T22:22:33.553+07:00,2.482,111004,37762,0
1783264953553538800,2026-07-05T22:22:33.553+07:00,2.482,110982,37709,0
1783264953592519100,2026-07-05T22:22:33.592+07:00,2.521,111046,37808,0
1783264953592519100,2026-07-05T22:22:33.592+07:00,2.521,111089,37841,0
1783264953592519100,2026-07-05T22:22:33.592+07:00,2.521,111261,37894,0
1783264953592519100,2026-07-05T22:22:33.592+07:00,2.521,111347,37874,0
1783264953592519100,2026-07-05T22:22:33.592+07:00,2.521,111218,37908,0
1783264953592519100,2026-07-05T22:22:33.592+07:00,2.521,111196,37881,0
1783264953592519100,2026-07-05T22:22:33.592+07:00,2.521,111261,37894,0
1783264953592519100,2026-07-05T22:22:33.592+07:00,2.521,111261,37868,0
1783264953592519100,2026-07-05T22:22:33.592+07:00,2.521,111261,37914,0
1783264953592519100,2026-07-05T22:22:33.592+07:00,2.521,111411,37974,0
1783264953592519100,2026-07-05T22:22:33.592+07:00,2.521,111498,38041,0
1783264953592519100,2026-07-05T22:22:33.592+07:00,2.521,111563,38101,0
1783264953592519100,2026-07-05T22:22:33.592+07:00,2.521,111519,38014,0
1783264953592519100,2026-07-05T22:22:33.592+07:00,2.521,111476,38048,0
1783264953592519100,2026-07-05T22:22:33.592+07:00,2.521,111498,38054,0
1783264953592519100,2026-07-05T22:22:33.592+07:00,2.521,111455,37988,0
1783264953634758300,2026-07-05T22:22:33.634+07:00,2.563,111519,38075,0
1783264953634758300,2026-07-05T22:22:33.634+07:00,2.563,111584,38128,0
1783264953634758300,2026-07-05T22:22:33.634+07:00,2.563,111714,38182,0
1783264953636506600,2026-07-05T22:22:33.636+07:00,2.565,111779,38250,0
1783264953636506600,2026-07-05T22:22:33.636+07:00,2.565,111736,38209,0
1783264953636506600,2026-07-05T22:22:33.636+07:00,2.565,111736,38203,0
1783264953636506600,2026-07-05T22:22:33.636+07:00,2.565,111736,38196,0
1783264953636506600,2026-07-05T22:22:33.636+07:00,2.565,111736,38162,0
1783264953636506600,2026-07-05T22:22:33.636+07:00,2.565,111736,38223,0
1783264953636506600,2026-07-05T22:22:33.636+07:00,2.565,111844,38284,0
1783264953636506600,2026-07-05T22:22:33.636+07:00,2.565,111953,38352,0
1783264953636506600,2026-07-05T22:22:33.636+07:00,2.565,112040,38427,0
1783264953636506600,2026-07-05T22:22:33.636+07:00,2.565,112018,38372,0
1783264953636506600,2026-07-05T22:22:33.636+07:00,2.565,112018,38365,0
1783264953636506600,2026-07-05T22:22:33.636+07:00,2.565,111996,38372,0
1783264953636506600,2026-07-05T22:22:33.636+07:00,2.565,112062,38304,0
1783264953636506600,2026-07-05T22:22:33.636+07:00,2.565,112040,38400,0
1783264953677053400,2026-07-05T22:22:33.677+07:00,2.605,112127,38454,0
1783264953677053400,2026-07-05T22:22:33.677+07:00,2.605,112302,38537,0
1783264953677053400,2026-07-05T22:22:33.677+07:00,2.605,112390,38633,0
1783264953677053400,2026-07-05T22:22:33.677+07:00,2.605,112280,38543,0
1783264953677053400,2026-07-05T22:22:33.677+07:00,2.605,112346,38537,0
1783264953677053400,2026-07-05T22:22:33.677+07:00,2.605,112302,38543,0
1783264953677053400,2026-07-05T22:22:33.677+07:00,2.605,112324,38502,0
1783264953677053400,2026-07-05T22:22:33.677+07:00,2.605,112346,38564,0
1783264953677053400,2026-07-05T22:22:33.677+07:00,2.605,112478,38633,0
1783264953677053400,2026-07-05T22:22:33.677+07:00,2.605,112543,38688,0
1783264953677053400,2026-07-05T22:22:33.677+07:00,2.605,112654,38800,0
1783264953677053400,2026-07-05T22:22:33.677+07:00,2.605,112565,38695,0
1783264953677053400,2026-07-05T22:22:33.677+07:00,2.605,112609,38702,0
1783264953677053400,2026-07-05T22:22:33.677+07:00,2.605,112631,38702,0
1783264953677053400,2026-07-05T22:22:33.677+07:00,2.605,112654,38668,0
1783264953677053400,2026-07-05T22:22:33.677+07:00,2.605,112654,38744,0
1783264953677053400,2026-07-05T22:22:33.677+07:00,2.605,112764,38786,0
1783264953720394600,2026-07-05T22:22:33.720+07:00,2.649,112896,38890,0
1783264953720394600,2026-07-05T22:22:33.720+07:00,2.649,112941,38954,0
1783264953720394600,2026-07-05T22:22:33.720+07:00,2.649,112874,38862,0
1783264953720394600,2026-07-05T22:22:33.720+07:00,2.649,112896,38855,0
1783264953720394600,2026-07-05T22:22:33.720+07:00,2.649,112941,38883,0
1783264953720394600,2026-07-05T22:22:33.720+07:00,2.649,112941,38834,0
1783264953720394600,2026-07-05T22:22:33.720+07:00,2.649,112985,38904,0
1783264953720394600,2026-07-05T22:22:33.720+07:00,2.649,113074,38982,0
1783264953720394600,2026-07-05T22:22:33.720+07:00,2.649,113185,39031,0
1783264953720394600,2026-07-05T22:22:33.720+07:00,2.649,113252,39116,0
1783264953720394600,2026-07-05T22:22:33.720+07:00,2.649,113185,39031,0
1783264953720394600,2026-07-05T22:22:33.720+07:00,2.649,113185,39052,0
1783264953720394600,2026-07-05T22:22:33.720+07:00,2.649,113252,39045,0
1783264953720394600,2026-07-05T22:22:33.720+07:00,2.649,113207,38975,0
1783264953720394600,2026-07-05T22:22:33.720+07:00,2.649,113207,39052,0
1783264953720394600,2026-07-05T22:22:33.720+07:00,2.649,113318,39102,0
1783264953720394600,2026-07-05T22:22:33.720+07:00,2.649,113408,39173,0
1783264953763305400,2026-07-05T22:22:33.763+07:00,2.692,113408,39258,0
1783264953763305400,2026-07-05T22:22:33.763+07:00,2.692,113430,39165,0
1783264953763305400,2026-07-05T22:22:33.763+07:00,2.692,113363,39158,0
1783264953763305400,2026-07-05T22:22:33.763+07:00,2.692,113363,39151,0
1783264953763305400,2026-07-05T22:22:33.763+07:00,2.692,113318,39080,0
1783264953763305400,2026-07-05T22:22:33.763+07:00,2.692,113341,39151,0
1783264953763305400,2026-07-05T22:22:33.763+07:00,2.692,113408,39208,0
1783264953763305400,2026-07-05T22:22:33.763+07:00,2.692,113497,39279,0
1783264953763305400,2026-07-05T22:22:33.763+07:00,2.692,113519,39329,0
1783264953763305400,2026-07-05T22:22:33.763+07:00,2.692,113497,39237,0
1783264953763305400,2026-07-05T22:22:33.763+07:00,2.692,113430,39237,0
1783264953763305400,2026-07-05T22:22:33.763+07:00,2.692,113452,39251,0
1783264953763305400,2026-07-05T22:22:33.763+07:00,2.692,113452,39158,0
1783264953763305400,2026-07-05T22:22:33.763+07:00,2.692,113430,39222,0
1783264953763305400,2026-07-05T22:22:33.763+07:00,2.692,113475,39294,0
1783264953763305400,2026-07-05T22:22:33.763+07:00,2.692,113631,39358,0
1783264953763305400,2026-07-05T22:22:33.763+07:00,2.692,113631,39401,0
1783264953800566500,2026-07-05T22:22:33.800+07:00,2.729,113587,39344,0
1783264953800566500,2026-07-05T22:22:33.800+07:00,2.729,113609,39329,0
1783264953800566500,2026-07-05T22:22:33.800+07:00,2.729,113609,39294,0
1783264953800566500,2026-07-05T22:22:33.800+07:00,2.729,113587,39294,0
1783264953800566500,2026-07-05T22:22:33.800+07:00,2.729,113609,39337,0
1783264953800566500,2026-07-05T22:22:33.800+07:00,2.729,113654,39394,0
1783264953800566500,2026-07-05T22:22:33.800+07:00,2.729,113833,39480,0
1783264953800566500,2026-07-05T22:22:33.800+07:00,2.729,113789,39437,0
1783264953800566500,2026-07-05T22:22:33.800+07:00,2.729,113766,39423,0
1783264953800566500,2026-07-05T22:22:33.800+07:00,2.729,113721,39430,0
1783264953800566500,2026-07-05T22:22:33.800+07:00,2.729,113766,39437,0
1783264953800566500,2026-07-05T22:22:33.800+07:00,2.729,113744,39365,0
1783264953800566500,2026-07-05T22:22:33.800+07:00,2.729,113676,39408,0
1783264953800566500,2026-07-05T22:22:33.800+07:00,2.729,113744,39459,0
1783264953800566500,2026-07-05T22:22:33.800+07:00,2.729,113879,39517,0
1783264953843157000,2026-07-05T22:22:33.843+07:00,2.771,113833,39560,0
1783264953843157000,2026-07-05T22:22:33.843+07:00,2.771,113766,39430,0
1783264953843157000,2026-07-05T22:22:33.843+07:00,2.771,113699,39416,0
1783264953843157000,2026-07-05T22:22:33.843+07:00,2.771,113654,39365,0
1783264953843157000,2026-07-05T22:22:33.843+07:00,2.771,113587,39308,0
1783264953843157000,2026-07-05T22:22:33.843+07:00,2.771,113452,39279,0
1783264953843157000,2026-07-05T22:22:33.843+07:00,2.771,113452,39279,0
1783264953843157000,2026-07-05T22:22:33.843+07:00,2.771,113475,39287,0
1783264953844109400,2026-07-05T22:22:33.844+07:00,2.772,113385,39294,0
1783264953844109400,2026-07-05T22:22:33.844+07:00,2.772,113207,39130,0
1783264953844109400,2026-07-05T22:22:33.844+07:00,2.772,113163,39052,0
1783264953844109400,2026-07-05T22:22:33.844+07:00,2.772,113052,39003,0
1783264953844109400,2026-07-05T22:22:33.844+07:00,2.772,112852,38869,0
1783264953844109400,2026-07-05T22:22:33.844+07:00,2.772,112720,38814,0
1783264953844109400,2026-07-05T22:22:33.844+07:00,2.772,112676,38786,0
1783264953844109400,2026-07-05T22:22:33.844+07:00,2.772,112565,38744,0
1783264953844109400,2026-07-05T22:22:33.844+07:00,2.772,112456,38716,0
1783264953877114000,2026-07-05T22:22:33.877+07:00,2.805,112280,38530,0
1783264953877114000,2026-07-05T22:22:33.877+07:00,2.805,112084,38420,0
1783264953877114000,2026-07-05T22:22:33.877+07:00,2.805,111931,38331,0
1783264953877114000,2026-07-05T22:22:33.877+07:00,2.805,111779,38216,0
1783264953877114000,2026-07-05T22:22:33.877+07:00,2.805,111627,38101,0
1783264953877114000,2026-07-05T22:22:33.877+07:00,2.805,111519,38088,0
1783264953877114000,2026-07-05T22:22:33.877+07:00,2.805,111498,38081,0
1783264953877114000,2026-07-05T22:22:33.877+07:00,2.805,111304,38034,0
1783264953877114000,2026-07-05T22:22:33.877+07:00,2.805,111153,37848,0
1783264953877114000,2026-07-05T22:22:33.877+07:00,2.805,110982,37762,0
1783264953877114000,2026-07-05T22:22:33.877+07:00,2.805,110854,37656,0
1783264953877114000,2026-07-05T22:22:33.877+07:00,2.805,110705,37578,0
1783264953877114000,2026-07-05T22:22:33.877+07:00,2.805,110556,37506,0
1783264953877114000,2026-07-05T22:22:33.877+07:00,2.805,110535,37480,0
1783264953877114000,2026-07-05T22:22:33.877+07:00,2.805,110535,37513,0
1783264953877114000,2026-07-05T22:22:33.877+07:00,2.805,110408,37506,0
1783264953877114000,2026-07-05T22:22:33.877+07:00,2.805,110281,37357,0
1783264953877114000,2026-07-05T22:22:33.877+07:00,2.805,110197,37279,0
1783264953927217500,2026-07-05T22:22:33.927+07:00,2.856,110091,37234,0
1783264953927217500,2026-07-05T22:22:33.927+07:00,2.856,109986,37151,0
1783264953927217500,2026-07-05T22:22:33.927+07:00,2.856,109881,37119,0
1783264953927217500,2026-07-05T22:22:33.927+07:00,2.856,109944,37132,0
1783264953927217500,2026-07-05T22:22:33.927+07:00,2.856,109902,37164,0
1783264953927217500,2026-07-05T22:22:33.927+07:00,2.856,109860,37177,0
1783264953927217500,2026-07-05T22:22:33.927+07:00,2.856,109839,37081,0
1783264953927217500,2026-07-05T22:22:33.927+07:00,2.856,109735,37030,0
1783264953927217500,2026-07-05T22:22:33.927+07:00,2.856,109735,37024,0
1783264953927217500,2026-07-05T22:22:33.927+07:00,2.856,109630,36948,0
1783264953927217500,2026-07-05T22:22:33.927+07:00,2.856,109568,36904,0
1783264953927217500,2026-07-05T22:22:33.927+07:00,2.856,109651,36979,0
1783264953927217500,2026-07-05T22:22:33.927+07:00,2.856,109693,37049,0
1783264953927217500,2026-07-05T22:22:33.927+07:00,2.856,109651,37056,0
1783264953927217500,2026-07-05T22:22:33.927+07:00,2.856,109609,36960,0
1783264953927217500,2026-07-05T22:22:33.927+07:00,2.856,109547,36942,0
1783264953927217500,2026-07-05T22:22:33.927+07:00,2.856,109526,36923,0
1783264953971775100,2026-07-05T22:22:33.971+07:00,2.900,109484,36866,0
1783264953971775100,2026-07-05T22:22:33.971+07:00,2.900,109443,36853,0
1783264953971775100,2026-07-05T22:22:33.971+07:00,2.900,109484,36910,0
1783264953971775100,2026-07-05T22:22:33.971+07:00,2.900,109547,36986,0
1783264953971775100,2026-07-05T22:22:33.971+07:00,2.900,109547,36998,0
1783264953971775100,2026-07-05T22:22:33.971+07:00,2.900,109526,36923,0
1783264953971775100,2026-07-05T22:22:33.971+07:00,2.900,109443,36891,0
1783264953971775100,2026-07-05T22:22:33.971+07:00,2.900,109464,36891,0
1783264953971775100,2026-07-05T22:22:33.971+07:00,2.900,109422,36847,0
1783264953971775100,2026-07-05T22:22:33.971+07:00,2.900,109339,36803,0
1783264953971775100,2026-07-05T22:22:33.971+07:00,2.900,109422,36878,0
1783264953971775100,2026-07-05T22:22:33.971+07:00,2.900,109547,36948,0
1783264953971775100,2026-07-05T22:22:33.971+07:00,2.900,109505,36942,0
1783264953971775100,2026-07-05T22:22:33.971+07:00,2.900,109464,36891,0
1783264953971775100,2026-07-05T22:22:33.971+07:00,2.900,109422,36878,0
1783264953971775100,2026-07-05T22:22:33.971+07:00,2.900,109401,36853,0
1783264953971775100,2026-07-05T22:22:33.971+07:00,2.900,109401,36847,0
1783264954007343400,2026-07-05T22:22:34.007+07:00,2.936,109339,36791,0
1783264954007343400,2026-07-05T22:22:34.007+07:00,2.936,109401,36860,0
1783264954007343400,2026-07-05T22:22:34.007+07:00,2.936,109505,36935,0
1783264954007343400,2026-07-05T22:22:34.007+07:00,2.936,109484,36935,0
1783264954007343400,2026-07-05T22:22:34.007+07:00,2.936,109443,36891,0
1783264954007343400,2026-07-05T22:22:34.007+07:00,2.936,109422,36866,0
1783264954007343400,2026-07-05T22:22:34.007+07:00,2.936,109422,36847,0
1783264954007343400,2026-07-05T22:22:34.007+07:00,2.936,109360,36841,0
1783264954007343400,2026-07-05T22:22:34.007+07:00,2.936,109318,36803,0
1783264954007343400,2026-07-05T22:22:34.007+07:00,2.936,109422,36872,0
1783264954007343400,2026-07-05T22:22:34.007+07:00,2.936,109526,36979,0
1783264954007343400,2026-07-05T22:22:34.007+07:00,2.936,109526,36967,0
1783264954007343400,2026-07-05T22:22:34.007+07:00,2.936,109547,36929,0
1783264954007343400,2026-07-05T22:22:34.007+07:00,2.936,109568,36929,0
1783264954007343400,2026-07-05T22:22:34.007+07:00,2.936,109526,36948,0
1783264954048160600,2026-07-05T22:22:34.048+07:00,2.976,109589,36897,0
1783264954048160600,2026-07-05T22:22:34.048+07:00,2.976,109568,36960,0
1783264954048160600,2026-07-05T22:22:34.048+07:00,2.976,109714,37011,0
1783264954048160600,2026-07-05T22:22:34.048+07:00,2.976,109839,37119,0
1783264954048160600,2026-07-05T22:22:34.048+07:00,2.976,109818,37126,0
1783264954048160600,2026-07-05T22:22:34.048+07:00,2.976,109818,37119,0
1783264954048160600,2026-07-05T22:22:34.048+07:00,2.976,109860,37100,0
1783264954048160600,2026-07-05T22:22:34.048+07:00,2.976,109860,37126,0
1783264954048160600,2026-07-05T22:22:34.048+07:00,2.976,109902,37113,0
1783264954048160600,2026-07-05T22:22:34.048+07:00,2.976,109902,37113,0
1783264954048160600,2026-07-05T22:22:34.048+07:00,2.976,110007,37215,0
1783264954048160600,2026-07-05T22:22:34.048+07:00,2.976,110133,37312,0
1783264954048160600,2026-07-05T22:22:34.048+07:00,2.976,110154,37331,0
1783264954048160600,2026-07-05T22:22:34.048+07:00,2.976,110154,37299,0
1783264954048160600,2026-07-05T22:22:34.048+07:00,2.976,110154,37325,0
1783264954089717100,2026-07-05T22:22:34.089+07:00,3.018,110239,37337,0
1783264954089717100,2026-07-05T22:22:34.089+07:00,3.018,110197,37331,0
1783264954089717100,2026-07-05T22:22:34.089+07:00,3.018,110197,37305,0
1783264954089717100,2026-07-05T22:22:34.089+07:00,3.018,110281,37396,0
1783264954089717100,2026-07-05T22:22:34.089+07:00,3.018,110471,37486,0
1783264954089717100,2026-07-05T22:22:34.089+07:00,3.018,110471,37473,0
1783264954089717100,2026-07-05T22:22:34.089+07:00,3.018,110471,37486,0
1783264954089717100,2026-07-05T22:22:34.089+07:00,3.018,110429,37467,0
1783264954089717100,2026-07-05T22:22:34.089+07:00,3.018,110450,37460,0
1783264954089717100,2026-07-05T22:22:34.089+07:00,3.018,110429,37486,0
1783264954089717100,2026-07-05T22:22:34.089+07:00,3.018,110408,37447,0
1783264954089717100,2026-07-05T22:22:34.089+07:00,3.018,110514,37513,0
1783264954089717100,2026-07-05T22:22:34.089+07:00,3.018,110620,37611,0
1783264954089717100,2026-07-05T22:22:34.089+07:00,3.018,110599,37597,0
1783264954089717100,2026-07-05T22:22:34.089+07:00,3.018,110599,37571,0
1783264954089717100,2026-07-05T22:22:34.089+07:00,3.018,110556,37545,0
1783264954089717100,2026-07-05T22:22:34.089+07:00,3.018,110577,37558,0
1783264954130775600,2026-07-05T22:22:34.130+07:00,3.059,110556,37519,0
1783264954130775600,2026-07-05T22:22:34.130+07:00,3.059,110471,37486,0
1783264954133558100,2026-07-05T22:22:34.133+07:00,3.062,110577,37558,0
1783264954133558100,2026-07-05T22:22:34.133+07:00,3.062,110599,37637,0
1783264954133558100,2026-07-05T22:22:34.133+07:00,3.062,110662,37650,0
1783264954133558100,2026-07-05T22:22:34.133+07:00,3.062,110641,37604,0
1783264954133558100,2026-07-05T22:22:34.133+07:00,3.062,110599,37578,0
1783264954133558100,2026-07-05T22:22:34.133+07:00,3.062,110662,37591,0
1783264954133558100,2026-07-05T22:22:34.133+07:00,3.062,110556,37539,0
1783264954133558100,2026-07-05T22:22:34.133+07:00,3.062,110514,37519,0
1783264954133558100,2026-07-05T22:22:34.133+07:00,3.062,110641,37584,0
1783264954133558100,2026-07-05T22:22:34.133+07:00,3.062,110662,37650,0
1783264954133558100,2026-07-05T22:22:34.133+07:00,3.062,110662,37643,0
1783264954133558100,2026-07-05T22:22:34.133+07:00,3.062,110662,37624,0
1783264954133558100,2026-07-05T22:22:34.133+07:00,3.062,110599,37611,0
1783264954133558100,2026-07-05T22:22:34.133+07:00,3.062,110620,37604,0
1783264954133558100,2026-07-05T22:22:34.133+07:00,3.062,110599,37552,0
1783264954169654100,2026-07-05T22:22:34.169+07:00,3.098,110556,37519,0
1783264954169654100,2026-07-05T22:22:34.169+07:00,3.098,110641,37597,0
1783264954169654100,2026-07-05T22:22:34.169+07:00,3.098,110684,37650,0
1783264954169654100,2026-07-05T22:22:34.169+07:00,3.098,110747,37663,0
1783264954169654100,2026-07-05T22:22:34.169+07:00,3.098,110684,37637,0
1783264954169654100,2026-07-05T22:22:34.169+07:00,3.098,110684,37637,0
1783264954169654100,2026-07-05T22:22:34.169+07:00,3.098,110705,37617,0
1783264954169654100,2026-07-05T22:22:34.169+07:00,3.098,110662,37597,0
1783264954169654100,2026-07-05T22:22:34.169+07:00,3.098,110620,37565,0
1783264954169654100,2026-07-05T22:22:34.169+07:00,3.098,110705,37663,0
1783264954169654100,2026-07-05T22:22:34.169+07:00,3.098,110833,37729,0
1783264954169654100,2026-07-05T22:22:34.169+07:00,3.098,110833,37735,0
1783264954169654100,2026-07-05T22:22:34.169+07:00,3.098,110833,37716,0
1783264954169654100,2026-07-05T22:22:34.169+07:00,3.098,110811,37709,0
1783264954169654100,2026-07-05T22:22:34.169+07:00,3.098,110833,37696,0
1783264954169654100,2026-07-05T22:22:34.169+07:00,3.098,110811,37683,0
1783264954169654100,2026-07-05T22:22:34.169+07:00,3.098,110790,37650,0
1783264954169654100,2026-07-05T22:22:34.169+07:00,3.098,110875,37729,0
1783264954210402300,2026-07-05T22:22:34.210+07:00,3.139,110982,37834,0
1783264954210402300,2026-07-05T22:22:34.210+07:00,3.139,111046,37815,0
1783264954210402300,2026-07-05T22:22:34.210+07:00,3.139,110982,37821,0
1783264954210402300,2026-07-05T22:22:34.210+07:00,3.139,110961,37775,0
1783264954210402300,2026-07-05T22:22:34.210+07:00,3.139,111025,37808,0
1783264954210402300,2026-07-05T22:22:34.210+07:00,3.139,111025,37762,0
1783264954210402300,2026-07-05T22:22:34.210+07:00,3.139,110939,37735,0
1783264954210402300,2026-07-05T22:22:34.210+07:00,3.139,111004,37808,0
1783264954210402300,2026-07-05T22:22:34.210+07:00,3.139,111132,37908,0
1783264954210402300,2026-07-05T22:22:34.210+07:00,3.139,111175,37914,0
1783264954210402300,2026-07-05T22:22:34.210+07:00,3.139,111153,37874,0
1783264954210402300,2026-07-05T22:22:34.210+07:00,3.139,111153,37894,0
1783264954210402300,2026-07-05T22:22:34.210+07:00,3.139,111153,37868,0
1783264954210402300,2026-07-05T22:22:34.210+07:00,3.139,111175,37854,0
1783264954210402300,2026-07-05T22:22:34.210+07:00,3.139,111111,37834,0
1783264954257212400,2026-07-05T22:22:34.257+07:00,3.186,111175,37908,0
1783264954257212400,2026-07-05T22:22:34.257+07:00,3.186,111304,38028,0
1783264954257212400,2026-07-05T22:22:34.257+07:00,3.186,111282,38014,0
1783264954257212400,2026-07-05T22:22:34.257+07:00,3.186,111282,37961,0
1783264954257212400,2026-07-05T22:22:34.257+07:00,3.186,111304,37981,0
1783264954257212400,2026-07-05T22:22:34.257+07:00,3.186,111304,37981,0
1783264954257212400,2026-07-05T22:22:34.257+07:00,3.186,111239,37928,0
1783264954257212400,2026-07-05T22:22:34.257+07:00,3.186,111196,37894,0
1783264954257212400,2026-07-05T22:22:34.257+07:00,3.186,111239,37981,0
1783264954257212400,2026-07-05T22:22:34.257+07:00,3.186,111368,38048,0
1783264954257212400,2026-07-05T22:22:34.257+07:00,3.186,111347,38034,0
1783264954257212400,2026-07-05T22:22:34.257+07:00,3.186,111347,38001,0
1783264954257212400,2026-07-05T22:22:34.257+07:00,3.186,111325,38001,0
1783264954257212400,2026-07-05T22:22:34.257+07:00,3.186,111368,38021,0
1783264954257212400,2026-07-05T22:22:34.257+07:00,3.186,111347,37988,0
1783264954257212400,2026-07-05T22:22:34.257+07:00,3.186,111282,37941,0
1783264954257212400,2026-07-05T22:22:34.257+07:00,3.186,111368,38048,0
1783264954297302100,2026-07-05T22:22:34.297+07:00,3.226,111519,38128,0
1783264954297302100,2026-07-05T22:22:34.297+07:00,3.226,111519,38095,0
1783264954297302100,2026-07-05T22:22:34.297+07:00,3.226,111455,38088,0
1783264954297302100,2026-07-05T22:22:34.297+07:00,3.226,111476,38081,0
1783264954297302100,2026-07-05T22:22:34.297+07:00,3.226,111498,38095,0
1783264954297302100,2026-07-05T22:22:34.297+07:00,3.226,111519,38075,0
1783264954297302100,2026-07-05T22:22:34.297+07:00,3.226,111455,38041,0
1783264954297302100,2026-07-05T22:22:34.297+07:00,3.226,111519,38149,0
1783264954297302100,2026-07-05T22:22:34.297+07:00,3.226,111692,38230,0
1783264954297302100,2026-07-05T22:22:34.297+07:00,3.226,111714,38223,0
1783264954297302100,2026-07-05T22:22:34.297+07:00,3.226,111714,38230,0
1783264954297302100,2026-07-05T22:22:34.297+07:00,3.226,111692,38230,0
1783264954297302100,2026-07-05T22:22:34.297+07:00,3.226,111736,38223,0
1783264954297302100,2026-07-05T22:22:34.297+07:00,3.226,111779,38236,0
1783264954297302100,2026-07-05T22:22:34.297+07:00,3.226,111692,38176,0
1783264954297302100,2026-07-05T22:22:34.297+07:00,3.226,111779,38291,0
1783264954340343800,2026-07-05T22:22:34.340+07:00,3.269,111931,38379,0
1783264954340343800,2026-07-05T22:22:34.340+07:00,3.269,111975,38372,0
1783264954340343800,2026-07-05T22:22:34.340+07:00,3.269,111975,38338,0
1783264954340343800,2026-07-05T22:22:34.340+07:00,3.269,111953,38352,0
1783264954340343800,2026-07-05T22:22:34.340+07:00,3.269,111996,38331,0
1783264954340343800,2026-07-05T22:22:34.340+07:00,3.269,111975,38338,0
1783264954340343800,2026-07-05T22:22:34.340+07:00,3.269,111931,38297,0
1783264954340343800,2026-07-05T22:22:34.340+07:00,3.269,112062,38406,0
1783264954340343800,2026-07-05T22:22:34.340+07:00,3.269,112149,38482,0
1783264954340343800,2026-07-05T22:22:34.340+07:00,3.269,112171,38475,0
1783264954340343800,2026-07-05T22:22:34.340+07:00,3.269,112127,38454,0
1783264954340343800,2026-07-05T22:22:34.340+07:00,3.269,112149,38468,0
1783264954340343800,2026-07-05T22:22:34.340+07:00,3.269,112127,38482,0
1783264954340343800,2026-07-05T22:22:34.340+07:00,3.269,112149,38468,0
1783264954340343800,2026-07-05T22:22:34.340+07:00,3.269,112105,38420,0
1783264954340343800,2026-07-05T22:22:34.340+07:00,3.269,112193,38516,0
1783264954340343800,2026-07-05T22:22:34.340+07:00,3.269,112215,38605,0
1783264954382386900,2026-07-05T22:22:34.382+07:00,3.311,112302,38598,0
1783264954382386900,2026-07-05T22:22:34.382+07:00,3.311,112258,38585,0
1783264954382386900,2026-07-05T22:22:34.382+07:00,3.311,112346,38605,0
1783264954382386900,2026-07-05T22:22:34.382+07:00,3.311,112346,38592,0
1783264954382386900,2026-07-05T22:22:34.382+07:00,3.311,112324,38592,0
1783264954382386900,2026-07-05T22:22:34.382+07:00,3.311,112280,38543,0
1783264954382386900,2026-07-05T22:22:34.382+07:00,3.311,112368,38633,0
1783264954382386900,2026-07-05T22:22:34.382+07:00,3.311,112456,38716,0
1783264954382386900,2026-07-05T22:22:34.382+07:00,3.311,112543,38737,0
1783264954382386900,2026-07-05T22:22:34.382+07:00,3.311,112521,38737,0
1783264954382386900,2026-07-05T22:22:34.382+07:00,3.311,112521,38730,0
1783264954382386900,2026-07-05T22:22:34.382+07:00,3.311,112565,38723,0
1783264954382386900,2026-07-05T22:22:34.382+07:00,3.311,112521,38716,0
1783264954382386900,2026-07-05T22:22:34.382+07:00,3.311,112521,38668,0
1783264954382386900,2026-07-05T22:22:34.382+07:00,3.311,112609,38779,0
1783264954382386900,2026-07-05T22:22:34.382+07:00,3.311,112654,38862,0
1783264954382386900,2026-07-05T22:22:34.382+07:00,3.311,112742,38869,0
1783264954419190900,2026-07-05T22:22:34.419+07:00,3.348,112742,38855,0
1783264954419190900,2026-07-05T22:22:34.419+07:00,3.348,112764,38848,0
1783264954419190900,2026-07-05T22:22:34.419+07:00,3.348,112808,38848,0
1783264954419190900,2026-07-05T22:22:34.419+07:00,3.348,112786,38834,0
1783264954419190900,2026-07-05T22:22:34.419+07:00,3.348,112720,38772,0
1783264954419190900,2026-07-05T22:22:34.419+07:00,3.348,112808,38876,0
1783264954419190900,2026-07-05T22:22:34.419+07:00,3.348,112874,38961,0
1783264954419190900,2026-07-05T22:22:34.419+07:00,3.348,112941,38954,0
1783264954419190900,2026-07-05T22:22:34.419+07:00,3.348,112963,38968,0
1783264954419190900,2026-07-05T22:22:34.419+07:00,3.348,112941,38918,0
1783264954419190900,2026-07-05T22:22:34.419+07:00,3.348,112919,38961,0
1783264954419190900,2026-07-05T22:22:34.419+07:00,3.348,112896,38968,0
1783264954419190900,2026-07-05T22:22:34.419+07:00,3.348,112896,38904,0
1783264954419190900,2026-07-05T22:22:34.419+07:00,3.348,112919,38968,0
1783264954419190900,2026-07-05T22:22:34.419+07:00,3.348,112985,39052,0
1783264954462550300,2026-07-05T22:22:34.462+07:00,3.391,113074,39045,0
1783264954462550300,2026-07-05T22:22:34.462+07:00,3.391,113074,39066,0
1783264954462550300,2026-07-05T22:22:34.462+07:00,3.391,113052,39045,0
1783264954462550300,2026-07-05T22:22:34.462+07:00,3.391,113052,39073,0
1783264954462550300,2026-07-05T22:22:34.462+07:00,3.391,113029,39052,0
1783264954462550300,2026-07-05T22:22:34.462+07:00,3.391,113029,38989,0
1783264954462550300,2026-07-05T22:22:34.462+07:00,3.391,113096,39095,0
1783264954462550300,2026-07-05T22:22:34.462+07:00,3.391,113163,39165,0
1783264954462550300,2026-07-05T22:22:34.462+07:00,3.391,113274,39194,0
1783264954462550300,2026-07-05T22:22:34.462+07:00,3.391,113274,39201,0
1783264954462550300,2026-07-05T22:22:34.462+07:00,3.391,113296,39180,0
1783264954462550300,2026-07-05T22:22:34.462+07:00,3.391,113252,39194,0
1783264954462550300,2026-07-05T22:22:34.462+07:00,3.391,113274,39201,0
1783264954462550300,2026-07-05T22:22:34.462+07:00,3.391,113229,39144,0
1783264954462550300,2026-07-05T22:22:34.462+07:00,3.391,113296,39229,0
1783264954462550300,2026-07-05T22:22:34.462+07:00,3.391,113385,39301,0
1783264954462550300,2026-07-05T22:22:34.462+07:00,3.391,113497,39315,0
1783264954501497900,2026-07-05T22:22:34.501+07:00,3.430,113564,39337,0
1783264954501497900,2026-07-05T22:22:34.501+07:00,3.430,113497,39294,0
1783264954501497900,2026-07-05T22:22:34.501+07:00,3.430,113519,39329,0
1783264954501497900,2026-07-05T22:22:34.501+07:00,3.430,113475,39329,0
1783264954501497900,2026-07-05T22:22:34.501+07:00,3.430,113452,39279,0
1783264954501497900,2026-07-05T22:22:34.501+07:00,3.430,113497,39337,0
1783264954501497900,2026-07-05T22:22:34.501+07:00,3.430,113587,39459,0
1783264954501497900,2026-07-05T22:22:34.501+07:00,3.430,113721,39452,0
1783264954501497900,2026-07-05T22:22:34.501+07:00,3.430,113789,39416,0
1783264954501497900,2026-07-05T22:22:34.501+07:00,3.430,113699,39459,0
1783264954501497900,2026-07-05T22:22:34.501+07:00,3.430,113699,39437,0
1783264954501497900,2026-07-05T22:22:34.501+07:00,3.430,113676,39444,0
1783264954501497900,2026-07-05T22:22:34.501+07:00,3.430,113631,39380,0
1783264954501497900,2026-07-05T22:22:34.501+07:00,3.430,113721,39437,0
1783264954501497900,2026-07-05T22:22:34.501+07:00,3.430,113789,39553,0
1783264954501497900,2026-07-05T22:22:34.501+07:00,3.430,113833,39538,0
1783264954501497900,2026-07-05T22:22:34.501+07:00,3.430,113946,39545,0
1783264954547032100,2026-07-05T22:22:34.547+07:00,3.475,113833,39545,0
1783264954547032100,2026-07-05T22:22:34.547+07:00,3.475,113879,39553,0
1783264954547032100,2026-07-05T22:22:34.547+07:00,3.475,113879,39567,0
1783264954547032100,2026-07-05T22:22:34.547+07:00,3.475,113744,39466,0
1783264954547032100,2026-07-05T22:22:34.547+07:00,3.475,113856,39545,0
1783264954547032100,2026-07-05T22:22:34.547+07:00,3.475,113946,39698,0
1783264954547032100,2026-07-05T22:22:34.547+07:00,3.475,114014,39654,0
1783264954547032100,2026-07-05T22:22:34.547+07:00,3.475,114104,39625,0
1783264954547032100,2026-07-05T22:22:34.547+07:00,3.475,114036,39647,0
1783264954547032100,2026-07-05T22:22:34.547+07:00,3.475,113969,39640,0
1783264954547032100,2026-07-05T22:22:34.547+07:00,3.475,113991,39633,0
1783264954547032100,2026-07-05T22:22:34.547+07:00,3.475,113946,39589,0
1783264954547032100,2026-07-05T22:22:34.547+07:00,3.475,114014,39647,0
1783264954547032100,2026-07-05T22:22:34.547+07:00,3.475,114036,39786,0
1783264954547032100,2026-07-05T22:22:34.547+07:00,3.475,114149,39757,0
1783264954547032100,2026-07-05T22:22:34.547+07:00,3.475,114217,39713,0
1783264954547032100,2026-07-05T22:22:34.547+07:00,3.475,114149,39735,0
1783264954590290000,2026-07-05T22:22:34.590+07:00,3.519,114127,39720,0
1783264954590290000,2026-07-05T22:22:34.590+07:00,3.519,114149,39727,0
1783264954590290000,2026-07-05T22:22:34.590+07:00,3.519,114059,39683,0
1783264954590290000,2026-07-05T22:22:34.590+07:00,3.519,114127,39735,0
1783264954590290000,2026-07-05T22:22:34.590+07:00,3.519,114240,39874,0
1783264954590290000,2026-07-05T22:22:34.590+07:00,3.519,114308,39837,0
1783264954590290000,2026-07-05T22:22:34.590+07:00,3.519,114376,39837,0
1783264954590290000,2026-07-05T22:22:34.590+07:00,3.519,114308,39845,0
1783264954590290000,2026-07-05T22:22:34.590+07:00,3.519,114285,39808,0
1783264954590290000,2026-07-05T22:22:34.590+07:00,3.519,114263,39823,0
1783264954590290000,2026-07-05T22:22:34.590+07:00,3.519,114217,39764,0
1783264954590290000,2026-07-05T22:22:34.590+07:00,3.519,114285,39815,0
1783264954590290000,2026-07-05T22:22:34.590+07:00,3.519,114353,39874,0
1783264954590290000,2026-07-05T22:22:34.590+07:00,3.519,114399,39918,0
1783264954590290000,2026-07-05T22:22:34.590+07:00,3.519,114444,39845,0
1783264954590290000,2026-07-05T22:22:34.590+07:00,3.519,114376,39881,0
1783264954590290000,2026-07-05T22:22:34.590+07:00,3.519,114353,39867,0
1783264954627903700,2026-07-05T22:22:34.627+07:00,3.556,114331,39852,0
1783264954627903700,2026-07-05T22:22:34.627+07:00,3.556,114217,39823,0
1783264954627903700,2026-07-05T22:22:34.627+07:00,3.556,114308,39815,0
1783264954627903700,2026-07-05T22:22:34.627+07:00,3.556,114331,39918,0
1783264954627903700,2026-07-05T22:22:34.627+07:00,3.556,114467,39918,0
1783264954627903700,2026-07-05T22:22:34.627+07:00,3.556,114444,39852,0
1783264954627903700,2026-07-05T22:22:34.627+07:00,3.556,114331,39859,0
1783264954627903700,2026-07-05T22:22:34.627+07:00,3.556,114263,39808,0
1783264954627903700,2026-07-05T22:22:34.627+07:00,3.556,114195,39779,0
1783264954627903700,2026-07-05T22:22:34.627+07:00,3.556,114104,39662,0
1783264954627903700,2026-07-05T22:22:34.627+07:00,3.556,114104,39691,0
1783264954627903700,2026-07-05T22:22:34.627+07:00,3.556,114059,39713,0
1783264954627903700,2026-07-05T22:22:34.627+07:00,3.556,114036,39691,0
1783264954627903700,2026-07-05T22:22:34.627+07:00,3.556,113991,39567,0
1783264954627903700,2026-07-05T22:22:34.627+07:00,3.556,113833,39524,0
1783264954627903700,2026-07-05T22:22:34.627+07:00,3.556,113721,39437,0
1783264954671290200,2026-07-05T22:22:34.671+07:00,3.600,113564,39351,0
1783264954671290200,2026-07-05T22:22:34.671+07:00,3.600,113363,39222,0
1783264954671290200,2026-07-05T22:22:34.671+07:00,3.600,113252,39165,0
1783264954671290200,2026-07-05T22:22:34.671+07:00,3.600,113185,39137,0
1783264954671290200,2026-07-05T22:22:34.671+07:00,3.600,113118,39073,0
1783264954671290200,2026-07-05T22:22:34.671+07:00,3.600,113052,38939,0
1783264954671290200,2026-07-05T22:22:34.671+07:00,3.600,112786,38855,0
1783264954671290200,2026-07-05T22:22:34.671+07:00,3.600,112565,38737,0
1783264954671290200,2026-07-05T22:22:34.671+07:00,3.600,112412,38612,0
1783264954671290200,2026-07-05T22:22:34.671+07:00,3.600,112149,38427,0
1783264954671290200,2026-07-05T22:22:34.671+07:00,3.600,112018,38400,0
1783264954671290200,2026-07-05T22:22:34.671+07:00,3.600,111909,38325,0
1783264954671290200,2026-07-05T22:22:34.671+07:00,3.600,111822,38250,0
1783264954671290200,2026-07-05T22:22:34.671+07:00,3.600,111692,38155,0
1783264954671290200,2026-07-05T22:22:34.671+07:00,3.600,111433,38034,0
1783264954671290200,2026-07-05T22:22:34.671+07:00,3.600,111304,37914,0
1783264954671290200,2026-07-05T22:22:34.671+07:00,3.600,111068,37795,0
1783264954706866200,2026-07-05T22:22:34.706+07:00,3.635,110939,37637,0
1783264954706866200,2026-07-05T22:22:34.706+07:00,3.635,110726,37591,0
1783264954706866200,2026-07-05T22:22:34.706+07:00,3.635,110662,37565,0
1783264954706866200,2026-07-05T22:22:34.706+07:00,3.635,110662,37526,0
1783264954706866200,2026-07-05T22:22:34.706+07:00,3.635,110556,37441,0
1783264954706866200,2026-07-05T22:22:34.706+07:00,3.635,110281,37337,0
1783264954706866200,2026-07-05T22:22:34.706+07:00,3.635,110133,37222,0
1783264954706866200,2026-07-05T22:22:34.706+07:00,3.635,110028,37158,0
1783264954706866200,2026-07-05T22:22:34.706+07:00,3.635,109881,37017,0
1783264954706866200,2026-07-05T22:22:34.706+07:00,3.635,109797,37017,0
1783264954706866200,2026-07-05T22:22:34.706+07:00,3.635,109756,36986,0
1783264954706866200,2026-07-05T22:22:34.706+07:00,3.635,109714,36973,0
1783264954706866200,2026-07-05T22:22:34.706+07:00,3.635,109735,36986,0
1783264954706866200,2026-07-05T22:22:34.706+07:00,3.635,109505,36872,0
1783264954706866200,2026-07-05T22:22:34.706+07:00,3.635,109401,36797,0
1783264954706866200,2026-07-05T22:22:34.706+07:00,3.635,109339,36722,0
1783264954706866200,2026-07-05T22:22:34.706+07:00,3.635,109215,36641,0
1783264954757146700,2026-07-05T22:22:34.757+07:00,3.685,109194,36659,0
1783264954757146700,2026-07-05T22:22:34.757+07:00,3.685,109194,36684,0
1783264954757146700,2026-07-05T22:22:34.757+07:00,3.685,109256,36703,0
1783264954757146700,2026-07-05T22:22:34.757+07:00,3.685,109277,36722,0
1783264954757146700,2026-07-05T22:22:34.757+07:00,3.685,109090,36610,0
1783264954757146700,2026-07-05T22:22:34.757+07:00,3.685,108987,36554,0
1783264954757146700,2026-07-05T22:22:34.757+07:00,3.685,108925,36529,0
1783264954757146700,2026-07-05T22:22:34.757+07:00,3.685,108864,36437,0
1783264954757146700,2026-07-05T22:22:34.757+07:00,3.685,108781,36468,0
1783264954757146700,2026-07-05T22:22:34.757+07:00,3.685,108843,36486,0
1783264954757146700,2026-07-05T22:22:34.757+07:00,3.685,108884,36511,0
1783264954757146700,2026-07-05T22:22:34.757+07:00,3.685,108843,36572,0
1783264954757146700,2026-07-05T22:22:34.757+07:00,3.685,108699,36418,0
1783264954757146700,2026-07-05T22:22:34.757+07:00,3.685,108699,36400,0
1783264954757146700,2026-07-05T22:22:34.757+07:00,3.685,108658,36375,0
1783264954757146700,2026-07-05T22:22:34.757+07:00,3.685,108638,36284,0
1783264954757146700,2026-07-05T22:22:34.757+07:00,3.685,108576,36326,0
1783264954790339400,2026-07-05T22:22:34.790+07:00,3.719,108597,36363,0
1783264954790339400,2026-07-05T22:22:34.790+07:00,3.719,108658,36418,0
1783264954790339400,2026-07-05T22:22:34.790+07:00,3.719,108720,36449,0
1783264954790339400,2026-07-05T22:22:34.790+07:00,3.719,108638,36382,0
1783264954790339400,2026-07-05T22:22:34.790+07:00,3.719,108617,36357,0
1783264954790339400,2026-07-05T22:22:34.790+07:00,3.719,108617,36363,0
1783264954790339400,2026-07-05T22:22:34.790+07:00,3.719,108597,36290,0
1783264954790339400,2026-07-05T22:22:34.790+07:00,3.719,108576,36345,0
1783264954790339400,2026-07-05T22:22:34.790+07:00,3.719,108699,36412,0
1783264954790339400,2026-07-05T22:22:34.790+07:00,3.719,108843,36480,0
1783264954790339400,2026-07-05T22:22:34.790+07:00,3.719,108843,36548,0
1783264954790339400,2026-07-05T22:22:34.790+07:00,3.719,108802,36443,0
1783264954790339400,2026-07-05T22:22:34.790+07:00,3.719,108822,36449,0
1783264954790339400,2026-07-05T22:22:34.790+07:00,3.719,108822,36418,0
1783264954790339400,2026-07-05T22:22:34.790+07:00,3.719,108822,36357,0
1783264954837307800,2026-07-05T22:22:34.837+07:00,3.766,108802,36437,0
1783264954837307800,2026-07-05T22:22:34.837+07:00,3.766,108905,36511,0
1783264954837307800,2026-07-05T22:22:34.837+07:00,3.766,109008,36554,0
1783264954837307800,2026-07-05T22:22:34.837+07:00,3.766,109028,36653,0
1783264954837307800,2026-07-05T22:22:34.837+07:00,3.766,109008,36548,0
1783264954837307800,2026-07-05T22:22:34.837+07:00,3.766,109028,36554,0
1783264954837307800,2026-07-05T22:22:34.837+07:00,3.766,109028,36560,0
1783264954837307800,2026-07-05T22:22:34.837+07:00,3.766,109070,36498,0
1783264954837307800,2026-07-05T22:22:34.837+07:00,3.766,109049,36622,0
1783264954838314800,2026-07-05T22:22:34.838+07:00,3.767,109152,36641,0
1783264954838314800,2026-07-05T22:22:34.838+07:00,3.767,109277,36740,0
1783264954838314800,2026-07-05T22:22:34.838+07:00,3.767,109277,36841,0
1783264954838314800,2026-07-05T22:22:34.838+07:00,3.767,109297,36734,0
1783264954838314800,2026-07-05T22:22:34.838+07:00,3.767,109360,36765,0
1783264954838314800,2026-07-05T22:22:34.838+07:00,3.767,109380,36759,0
1783264954838314800,2026-07-05T22:22:34.838+07:00,3.767,109422,36697,0
1783264954838314800,2026-07-05T22:22:34.838+07:00,3.767,109422,36803,0
1783264954877196000,2026-07-05T22:22:34.877+07:00,3.806,109526,36897,0
1783264954877196000,2026-07-05T22:22:34.877+07:00,3.806,109651,36979,0
1783264954877196000,2026-07-05T22:22:34.877+07:00,3.806,109693,37062,0
1783264954877196000,2026-07-05T22:22:34.877+07:00,3.806,109714,36973,0
1783264954877196000,2026-07-05T22:22:34.877+07:00,3.806,109714,36998,0
1783264954877196000,2026-07-05T22:22:34.877+07:00,3.806,109735,36998,0
1783264954877196000,2026-07-05T22:22:34.877+07:00,3.806,109756,36923,0
1783264954877196000,2026-07-05T22:22:34.877+07:00,3.806,109735,37024,0
1783264954877196000,2026-07-05T22:22:34.877+07:00,3.806,109860,37081,0
1783264954877196000,2026-07-05T22:22:34.877+07:00,3.806,110007,37190,0
1783264954877196000,2026-07-05T22:22:34.877+07:00,3.806,110028,37241,0
1783264954877196000,2026-07-05T22:22:34.877+07:00,3.806,109986,37151,0
1783264954877196000,2026-07-05T22:22:34.877+07:00,3.806,109986,37138,0
1783264954877196000,2026-07-05T22:22:34.877+07:00,3.806,109986,37145,0
1783264954877196000,2026-07-05T22:22:34.877+07:00,3.806,109965,37062,0
1783264954877196000,2026-07-05T22:22:34.877+07:00,3.806,109923,37126,0
1783264954877196000,2026-07-05T22:22:34.877+07:00,3.806,110028,37196,0
1783264954921672900,2026-07-05T22:22:34.921+07:00,3.850,110154,37241,0
1783264954921672900,2026-07-05T22:22:34.921+07:00,3.850,110133,37279,0
1783264954921672900,2026-07-05T22:22:34.921+07:00,3.850,110112,37215,0
1783264954921672900,2026-07-05T22:22:34.921+07:00,3.850,110070,37202,0
1783264954921672900,2026-07-05T22:22:34.921+07:00,3.850,110070,37170,0
1783264954921672900,2026-07-05T22:22:34.921+07:00,3.850,110049,37132,0
1783264954921672900,2026-07-05T22:22:34.921+07:00,3.850,110007,37170,0
1783264954921672900,2026-07-05T22:22:34.921+07:00,3.850,110070,37228,0
1783264954921672900,2026-07-05T22:22:34.921+07:00,3.850,110154,37292,0
1783264954921672900,2026-07-05T22:22:34.921+07:00,3.850,110133,37337,0
1783264954921672900,2026-07-05T22:22:34.921+07:00,3.850,110091,37247,0
1783264954921672900,2026-07-05T22:22:34.921+07:00,3.850,110091,37234,0
1783264954921672900,2026-07-05T22:22:34.921+07:00,3.850,110049,37241,0
1783264954921672900,2026-07-05T22:22:34.921+07:00,3.850,110091,37228,0
1783264954921672900,2026-07-05T22:22:34.921+07:00,3.850,110007,37254,0
1783264954921672900,2026-07-05T22:22:34.921+07:00,3.850,110112,37292,0
1783264954921672900,2026-07-05T22:22:34.921+07:00,3.850,110260,37370,0
1783264954962640700,2026-07-05T22:22:34.962+07:00,3.891,110239,37454,0
1783264954962640700,2026-07-05T22:22:34.962+07:00,3.891,110281,37357,0
1783264954962640700,2026-07-05T22:22:34.962+07:00,3.891,110260,37363,0
1783264954962640700,2026-07-05T22:22:34.962+07:00,3.891,110239,37370,0
1783264954962640700,2026-07-05T22:22:34.962+07:00,3.891,110260,37337,0
1783264954962640700,2026-07-05T22:22:34.962+07:00,3.891,110218,37357,0
1783264954962640700,2026-07-05T22:22:34.962+07:00,3.891,110365,37435,0
1783264954962640700,2026-07-05T22:22:34.962+07:00,3.891,110471,37539,0
1783264954962640700,2026-07-05T22:22:34.962+07:00,3.891,110471,37558,0
1783264954962640700,2026-07-05T22:22:34.962+07:00,3.891,110492,37493,0
1783264954962640700,2026-07-05T22:22:34.962+07:00,3.891,110535,37506,0
1783264954962640700,2026-07-05T22:22:34.962+07:00,3.891,110535,37486,0
1783264954962640700,2026-07-05T22:22:34.962+07:00,3.891,110514,37467,0
1783264954962640700,2026-07-05T22:22:34.962+07:00,3.891,110535,37506,0
1783264954962640700,2026-07-05T22:22:34.962+07:00,3.891,110684,37565,0
1783264954962640700,2026-07-05T22:22:34.962+07:00,3.891,110811,37670,0
1783264954962640700,2026-07-05T22:22:34.962+07:00,3.891,110854,37722,0
1783264955001318100,2026-07-05T22:22:35.001+07:00,3.930,110854,37656,0
1783264955001318100,2026-07-05T22:22:35.001+07:00,3.930,110833,37650,0
1783264955001318100,2026-07-05T22:22:35.001+07:00,3.930,110897,37643,0
1783264955001318100,2026-07-05T22:22:35.001+07:00,3.930,110897,37670,0
1783264955001318100,2026-07-05T22:22:35.001+07:00,3.930,110918,37663,0
1783264955001318100,2026-07-05T22:22:35.001+07:00,3.930,111046,37749,0
1783264955001318100,2026-07-05T22:22:35.001+07:00,3.930,111153,37834,0
1783264955001318100,2026-07-05T22:22:35.001+07:00,3.930,111175,37881,0
1783264955001318100,2026-07-05T22:22:35.001+07:00,3.930,111218,37828,0
1783264955001318100,2026-07-05T22:22:35.001+07:00,3.930,111196,37828,0
1783264955001318100,2026-07-05T22:22:35.001+07:00,3.930,111175,37828,0
1783264955001318100,2026-07-05T22:22:35.001+07:00,3.930,111196,37801,0
1783264955001318100,2026-07-05T22:22:35.001+07:00,3.930,111196,37815,0
1783264955001318100,2026-07-05T22:22:35.001+07:00,3.930,111304,37881,0
1783264955001318100,2026-07-05T22:22:35.001+07:00,3.930,111390,38001,0
1783264955001318100,2026-07-05T22:22:35.001+07:00,3.930,111390,38028,0
1783264955047357600,2026-07-05T22:22:35.047+07:00,3.976,111433,37968,0
1783264955047357600,2026-07-05T22:22:35.047+07:00,3.976,111390,37968,0
1783264955047357600,2026-07-05T22:22:35.047+07:00,3.976,111411,37974,0
1783264955047357600,2026-07-05T22:22:35.047+07:00,3.976,111411,37947,0
1783264955047357600,2026-07-05T22:22:35.047+07:00,3.976,111411,37947,0
1783264955047357600,2026-07-05T22:22:35.047+07:00,3.976,111541,38041,0
1783264955047357600,2026-07-05T22:22:35.047+07:00,3.976,111584,38142,0
1783264955047357600,2026-07-05T22:22:35.047+07:00,3.976,111627,38176,0
1783264955047357600,2026-07-05T22:22:35.047+07:00,3.976,111671,38142,0
1783264955047357600,2026-07-05T22:22:35.047+07:00,3.976,111671,38108,0
1783264955047357600,2026-07-05T22:22:35.047+07:00,3.976,111627,38128,0
1783264955047357600,2026-07-05T22:22:35.047+07:00,3.976,111584,38081,0
1783264955047357600,2026-07-05T22:22:35.047+07:00,3.976,111606,38095,0
1783264955047357600,2026-07-05T22:22:35.047+07:00,3.976,111714,38169,0
1783264955047357600,2026-07-05T22:22:35.047+07:00,3.976,111822,38277,0
1783264955047357600,2026-07-05T22:22:35.047+07:00,3.976,111866,38304,0
1783264955047357600,2026-07-05T22:22:35.047+07:00,3.976,111909,38263,0
1783264955088089700,2026-07-05T22:22:35.088+07:00,4.016,111844,38250,0
1783264955090105800,2026-07-05T22:22:35.090+07:00,4.018,111888,38263,0
1783264955090105800,2026-07-05T22:22:35.090+07:00,4.018,111888,38263,0
1783264955090105800,2026-07-05T22:22:35.090+07:00,4.018,111888,38230,0
1783264955090105800,2026-07-05T22:22:35.090+07:00,4.018,111975,38304,0
1783264955090105800,2026-07-05T22:22:35.090+07:00,4.018,112084,38406,0
1783264955090105800,2026-07-05T22:22:35.090+07:00,4.018,112084,38393,0
1783264955090105800,2026-07-05T22:22:35.090+07:00,4.018,112127,38386,0
1783264955090105800,2026-07-05T22:22:35.090+07:00,4.018,112105,38365,0
1783264955090105800,2026-07-05T22:22:35.090+07:00,4.018,112084,38352,0
1783264955090105800,2026-07-05T22:22:35.090+07:00,4.018,112084,38352,0
1783264955090105800,2026-07-05T22:22:35.090+07:00,4.018,112062,38345,0
1783264955090105800,2026-07-05T22:22:35.090+07:00,4.018,112171,38413,0
1783264955090105800,2026-07-05T22:22:35.090+07:00,4.018,112236,38495,0
1783264955090105800,2026-07-05T22:22:35.090+07:00,4.018,112215,38502,0
1783264955090105800,2026-07-05T22:22:35.090+07:00,4.018,112236,38447,0
1783264955090105800,2026-07-05T22:22:35.090+07:00,4.018,112193,38420,0
1783264955127077500,2026-07-05T22:22:35.127+07:00,4.055,112171,38413,0
1783264955127077500,2026-07-05T22:22:35.127+07:00,4.055,112193,38393,0
1783264955127077500,2026-07-05T22:22:35.127+07:00,4.055,112127,38386,0
1783264955127077500,2026-07-05T22:22:35.127+07:00,4.055,112171,38441,0
1783264955127077500,2026-07-05T22:22:35.127+07:00,4.055,112302,38509,0
1783264955127077500,2026-07-05T22:22:35.127+07:00,4.055,112258,38488,0
1783264955127077500,2026-07-05T22:22:35.127+07:00,4.055,112215,38454,0
1783264955127077500,2026-07-05T22:22:35.127+07:00,4.055,112215,38447,0
1783264955127077500,2026-07-05T22:22:35.127+07:00,4.055,112215,38434,0
1783264955127077500,2026-07-05T22:22:35.127+07:00,4.055,112171,38400,0
1783264955127077500,2026-07-05T22:22:35.127+07:00,4.055,112127,38372,0
1783264955127077500,2026-07-05T22:22:35.127+07:00,4.055,112193,38434,0
1783264955127077500,2026-07-05T22:22:35.127+07:00,4.055,112280,38488,0
1783264955127077500,2026-07-05T22:22:35.127+07:00,4.055,112258,38488,0
1783264955127077500,2026-07-05T22:22:35.127+07:00,4.055,112171,38454,0
1783264955127077500,2026-07-05T22:22:35.127+07:00,4.055,112149,38413,0
1783264955127077500,2026-07-05T22:22:35.127+07:00,4.055,112105,38406,0
1783264955174941200,2026-07-05T22:22:35.174+07:00,4.103,112084,38338,0
1783264955174941200,2026-07-05T22:22:35.174+07:00,4.103,112040,38318,0
1783264955174941200,2026-07-05T22:22:35.174+07:00,4.103,112084,38406,0
1783264955174941200,2026-07-05T22:22:35.174+07:00,4.103,112193,38468,0
1783264955174941200,2026-07-05T22:22:35.174+07:00,4.103,112127,38441,0
1783264955174941200,2026-07-05T22:22:35.174+07:00,4.103,112105,38386,0
1783264955174941200,2026-07-05T22:22:35.174+07:00,4.103,112062,38359,0
1783264955174941200,2026-07-05T22:22:35.174+07:00,4.103,112062,38345,0
1783264955174941200,2026-07-05T22:22:35.174+07:00,4.103,112084,38331,0
1783264955174941200,2026-07-05T22:22:35.174+07:00,4.103,111975,38304,0
1783264955174941200,2026-07-05T22:22:35.174+07:00,4.103,112018,38365,0
1783264955174941200,2026-07-05T22:22:35.174+07:00,4.103,112149,38434,0
1783264955174941200,2026-07-05T22:22:35.174+07:00,4.103,112084,38434,0
1783264955174941200,2026-07-05T22:22:35.174+07:00,4.103,112084,38427,0
1783264955174941200,2026-07-05T22:22:35.174+07:00,4.103,112084,38393,0
1783264955174941200,2026-07-05T22:22:35.174+07:00,4.103,112040,38400,0
1783264955174941200,2026-07-05T22:22:35.174+07:00,4.103,112040,38393,0
1783264955207003200,2026-07-05T22:22:35.207+07:00,4.135,111996,38318,0
1783264955207003200,2026-07-05T22:22:35.207+07:00,4.135,112084,38420,0
1783264955207003200,2026-07-05T22:22:35.207+07:00,4.135,112171,38495,0
1783264955207003200,2026-07-05T22:22:35.207+07:00,4.135,112171,38495,0
1783264955207003200,2026-07-05T22:22:35.207+07:00,4.135,112149,38461,0
1783264955207003200,2026-07-05T22:22:35.207+07:00,4.135,112171,38447,0
1783264955207003200,2026-07-05T22:22:35.207+07:00,4.135,112171,38447,0
1783264955207003200,2026-07-05T22:22:35.207+07:00,4.135,112127,38434,0
1783264955207003200,2026-07-05T22:22:35.207+07:00,4.135,112062,38386,0
1783264955207003200,2026-07-05T22:22:35.207+07:00,4.135,112127,38475,0
1783264955207003200,2026-07-05T22:22:35.207+07:00,4.135,112236,38530,0
1783264955207003200,2026-07-05T22:22:35.207+07:00,4.135,112280,38530,0
1783264955207003200,2026-07-05T22:22:35.207+07:00,4.135,112236,38537,0
1783264955207003200,2026-07-05T22:22:35.207+07:00,4.135,112215,38475,0
1783264955207003200,2026-07-05T22:22:35.207+07:00,4.135,112215,38495,0
1783264955254876000,2026-07-05T22:22:35.254+07:00,4.183,112215,38461,0
1783264955254876000,2026-07-05T22:22:35.254+07:00,4.183,112149,38427,0
1783264955254876000,2026-07-05T22:22:35.254+07:00,4.183,112193,38495,0
1783264955254876000,2026-07-05T22:22:35.254+07:00,4.183,112280,38564,0
1783264955254876000,2026-07-05T22:22:35.254+07:00,4.183,112324,38564,0
1783264955254876000,2026-07-05T22:22:35.254+07:00,4.183,112280,38571,0
1783264955254876000,2026-07-05T22:22:35.254+07:00,4.183,112302,38537,0
1783264955254876000,2026-07-05T22:22:35.254+07:00,4.183,112280,38530,0
1783264955254876000,2026-07-05T22:22:35.254+07:00,4.183,112302,38488,0
1783264955254876000,2026-07-05T22:22:35.254+07:00,4.183,112171,38461,0
1783264955254876000,2026-07-05T22:22:35.254+07:00,4.183,112302,38509,0
1783264955254876000,2026-07-05T22:22:35.254+07:00,4.183,112346,38598,0
1783264955254876000,2026-07-05T22:22:35.254+07:00,4.183,112412,38647,0
1783264955254876000,2026-07-05T22:22:35.254+07:00,4.183,112324,38543,0
1783264955254876000,2026-07-05T22:22:35.254+07:00,4.183,112302,38537,0
1783264955254876000,2026-07-05T22:22:35.254+07:00,4.183,112346,38557,0
1783264955254876000,2026-07-05T22:22:35.254+07:00,4.183,112302,38516,0
1783264955290442000,2026-07-05T22:22:35.290+07:00,4.219,112236,38475,0
1783264955290442000,2026-07-05T22:22:35.290+07:00,4.219,112346,38571,0
1783264955290442000,2026-07-05T22:22:35.290+07:00,4.219,112434,38647,0
1783264955290442000,2026-07-05T22:22:35.290+07:00,4.219,112434,38640,0
1783264955290442000,2026-07-05T22:22:35.290+07:00,4.219,112434,38612,0
1783264955290442000,2026-07-05T22:22:35.290+07:00,4.219,112456,38592,0
1783264955290442000,2026-07-05T22:22:35.290+07:00,4.219,112434,38564,0
1783264955290442000,2026-07-05T22:22:35.290+07:00,4.219,112412,38564,0
1783264955290442000,2026-07-05T22:22:35.290+07:00,4.219,112368,38516,0
1783264955290442000,2026-07-05T22:22:35.290+07:00,4.219,112478,38605,0
1783264955290442000,2026-07-05T22:22:35.290+07:00,4.219,112543,38709,0
1783264955290442000,2026-07-05T22:22:35.290+07:00,4.219,112587,38702,0
1783264955290442000,2026-07-05T22:22:35.290+07:00,4.219,112587,38702,0
1783264955290442000,2026-07-05T22:22:35.290+07:00,4.219,112587,38661,0
1783264955290442000,2026-07-05T22:22:35.290+07:00,4.219,112609,38668,0
1783264955290442000,2026-07-05T22:22:35.290+07:00,4.219,112587,38647,0
1783264955337239300,2026-07-05T22:22:35.337+07:00,4.266,112521,38592,0
1783264955337239300,2026-07-05T22:22:35.337+07:00,4.266,112654,38730,0
1783264955337239300,2026-07-05T22:22:35.337+07:00,4.266,112720,38793,0
1783264955337239300,2026-07-05T22:22:35.337+07:00,4.266,112720,38786,0
1783264955337239300,2026-07-05T22:22:35.337+07:00,4.266,112742,38793,0
1783264955337239300,2026-07-05T22:22:35.337+07:00,4.266,112742,38765,0
1783264955337239300,2026-07-05T22:22:35.337+07:00,4.266,112764,38758,0
1783264955337239300,2026-07-05T22:22:35.337+07:00,4.266,112786,38744,0
1783264955337239300,2026-07-05T22:22:35.337+07:00,4.266,112720,38716,0
1783264955337239300,2026-07-05T22:22:35.337+07:00,4.266,112808,38807,0
1783264955337239300,2026-07-05T22:22:35.337+07:00,4.266,112874,38897,0
