host_timestamp_ns,host_timestamp_iso,elapsed_s,red,infrared,background
1783771271889732706,2026-07-11T19:01:11.889+07:00,0.052,98248,37597,0
1783771271889732707,2026-07-11T19:01:11.889+07:00,0.052,99224,40251,0
1783771271889732708,2026-07-11T19:01:11.889+07:00,0.052,99464,40874,0
1783771271889732709,2026-07-11T19:01:11.889+07:00,0.052,99533,41060,0
1783771271889732710,2026-07-11T19:01:11.889+07:00,0.052,99567,41125,0
1783771271889732711,2026-07-11T19:01:11.889+07:00,0.052,99602,41166,0
1783771271889732712,2026-07-11T19:01:11.889+07:00,0.052,99602,41195,0
1783771271889732713,2026-07-11T19:01:11.889+07:00,0.052,99636,41207,0
1783771271889732714,2026-07-11T19:01:11.889+07:00,0.052,99688,41225,0
1783771271889732715,2026-07-11T19:01:11.889+07:00,0.052,99705,41207,0
1783771271889732716,2026-07-11T19:01:11.889+07:00,0.052,99688,41225,0
1783771271889732717,2026-07-11T19:01:11.889+07:00,0.052,99705,41219,0
1783771271889732718,2026-07-11T19:01:11.889+07:00,0.052,99757,41219,0
1783771271889732719,2026-07-11T19:01:11.889+07:00,0.052,99740,41248,0
1783771271889732720,2026-07-11T19:01:11.889+07:00,0.052,99792,41266,0
1783771271889732721,2026-07-11T19:01:11.889+07:00,0.052,99792,41266,0
1783771271889732722,2026-07-11T19:01:11.889+07:00,0.052,99826,41278,0
1783771271932282267,2026-07-11T19:01:11.932+07:00,0.095,99843,41254,0
1783771271932282268,2026-07-11T19:01:11.932+07:00,0.095,99861,41272,0
1783771271932282269,2026-07-11T19:01:11.932+07:00,0.095,99861,41278,0
1783771271932282270,2026-07-11T19:01:11.932+07:00,0.095,99878,41290,0
1783771271932282271,2026-07-11T19:01:11.932+07:00,0.095,99826,41314,0
1783771271932282272,2026-07-11T19:01:11.932+07:00,0.095,99930,41325,0
1783771271932282273,2026-07-11T19:01:11.932+07:00,0.095,99913,41331,0
1783771271932282274,2026-07-11T19:01:11.932+07:00,0.095,99947,41337,0
1783771271932282275,2026-07-11T19:01:11.932+07:00,0.095,99947,41337,0
1783771271932282276,2026-07-11T19:01:11.932+07:00,0.095,99982,41349,0
1783771271932282277,2026-07-11T19:01:11.932+07:00,0.095,99965,41361,0
1783771271932282278,2026-07-11T19:01:11.932+07:00,0.095,99982,41349,0
1783771271932282279,2026-07-11T19:01:11.932+07:00,0.095,100000,41379,0
1783771271932282280,2026-07-11T19:01:11.932+07:00,0.095,100017,41373,0
1783771271932282281,2026-07-11T19:01:11.932+07:00,0.095,100034,41385,0
1783771271932282282,2026-07-11T19:01:11.932+07:00,0.095,100034,41373,0
1783771271932282283,2026-07-11T19:01:11.932+07:00,0.095,100017,41361,0
1783771271969880497,2026-07-11T19:01:11.969+07:00,0.132,100000,41343,0
1783771271969880498,2026-07-11T19:01:11.969+07:00,0.132,99982,41314,0
1783771271969880499,2026-07-11T19:01:11.969+07:00,0.132,99947,41290,0
1783771271969880500,2026-07-11T19:01:11.969+07:00,0.132,99930,41296,0
1783771271969880501,2026-07-11T19:01:11.969+07:00,0.132,99895,41248,0
1783771271969880502,2026-07-11T19:01:11.969+07:00,0.132,99826,41213,0
1783771271969880503,2026-07-11T19:01:11.969+07:00,0.132,99792,41172,0
1783771271969880504,2026-07-11T19:01:11.969+07:00,0.132,99722,41107,0
1783771271969880505,2026-07-11T19:01:11.969+07:00,0.132,99688,41054,0
1783771271969880506,2026-07-11T19:01:11.969+07:00,0.132,99602,40990,0
1783771271969880507,2026-07-11T19:01:11.969+07:00,0.132,99516,40932,0
1783771271969880508,2026-07-11T19:01:11.969+07:00,0.132,99481,40880,0
1783771271969880509,2026-07-11T19:01:11.969+07:00,0.132,99430,40851,0
1783771271969880510,2026-07-11T19:01:11.969+07:00,0.132,99361,40798,0
1783771271969880511,2026-07-11T19:01:11.969+07:00,0.132,99327,40741,0
1783771272012322270,2026-07-11T19:01:12.012+07:00,0.175,99259,40695,0
1783771272012322271,2026-07-11T19:01:12.012+07:00,0.175,99207,40649,0
1783771272012322272,2026-07-11T19:01:12.012+07:00,0.175,99156,40574,0
1783771272012322273,2026-07-11T19:01:12.012+07:00,0.175,99088,40523,0
1783771272012322274,2026-07-11T19:01:12.012+07:00,0.175,99054,40500,0
1783771272012322275,2026-07-11T19:01:12.012+07:00,0.175,99054,40472,0
1783771272012322276,2026-07-11T19:01:12.012+07:00,0.175,99003,40432,0
1783771272012322277,2026-07-11T19:01:12.012+07:00,0.175,98952,40392,0
1783771272012322278,2026-07-11T19:01:12.012+07:00,0.175,98918,40370,0
1783771272012322279,2026-07-11T19:01:12.012+07:00,0.175,98901,40347,0
1783771272012322280,2026-07-11T19:01:12.012+07:00,0.175,98884,40319,0
1783771272012322281,2026-07-11T19:01:12.012+07:00,0.175,98833,40290,0
1783771272012322282,2026-07-11T19:01:12.012+07:00,0.175,98867,40290,0
1783771272012322283,2026-07-11T19:01:12.012+07:00,0.175,98850,40268,0
1783771272012322284,2026-07-11T19:01:12.012+07:00,0.175,98850,40274,0
1783771272012322285,2026-07-11T19:01:12.012+07:00,0.175,98816,40251,0
1783771272012322286,2026-07-11T19:01:12.012+07:00,0.175,98833,40251,0
1783771272054676562,2026-07-11T19:01:12.054+07:00,0.217,98816,40245,0
1783771272054676563,2026-07-11T19:01:12.054+07:00,0.217,98816,40240,0
1783771272054676564,2026-07-11T19:01:12.054+07:00,0.217,98799,40223,0
1783771272054676565,2026-07-11T19:01:12.054+07:00,0.217,98833,40229,0
1783771272054676566,2026-07-11T19:01:12.054+07:00,0.217,98833,40234,0
1783771272054676567,2026-07-11T19:01:12.054+07:00,0.217,98850,40268,0
1783771272054676568,2026-07-11T19:01:12.054+07:00,0.217,98850,40245,0
1783771272054676569,2026-07-11T19:01:12.054+07:00,0.217,98816,40251,0
1783771272054676570,2026-07-11T19:01:12.054+07:00,0.217,98850,40245,0
1783771272054676571,2026-07-11T19:01:12.054+07:00,0.217,98867,40285,0
1783771272054676572,2026-07-11T19:01:12.054+07:00,0.217,98850,40245,0
1783771272054676573,2026-07-11T19:01:12.054+07:00,0.217,98918,40285,0
1783771272054676574,2026-07-11T19:01:12.054+07:00,0.217,98884,40285,0
1783771272054676575,2026-07-11T19:01:12.054+07:00,0.217,98901,40302,0
1783771272054676576,2026-07-11T19:01:12.054+07:00,0.217,98918,40319,0
1783771272054676577,2026-07-11T19:01:12.054+07:00,0.217,98969,40307,0
1783771272054676578,2026-07-11T19:01:12.054+07:00,0.217,98969,40307,0
1783771272097427082,2026-07-11T19:01:12.097+07:00,0.260,98986,40336,0
1783771272097427083,2026-07-11T19:01:12.097+07:00,0.260,98986,40353,0
1783771272097427084,2026-07-11T19:01:12.097+07:00,0.260,99020,40370,0
1783771272097427085,2026-07-11T19:01:12.097+07:00,0.260,99054,40375,0
1783771272097427086,2026-07-11T19:01:12.097+07:00,0.260,99105,40387,0
1783771272097427087,2026-07-11T19:01:12.097+07:00,0.260,99088,40409,0
1783771272097427088,2026-07-11T19:01:12.097+07:00,0.260,99105,40415,0
1783771272097427089,2026-07-11T19:01:12.097+07:00,0.260,99071,40426,0
1783771272097427090,2026-07-11T19:01:12.097+07:00,0.260,99088,40421,0
1783771272097427091,2026-07-11T19:01:12.097+07:00,0.260,99156,40432,0
1783771272097427092,2026-07-11T19:01:12.097+07:00,0.260,99105,40460,0
1783771272097427093,2026-07-11T19:01:12.097+07:00,0.260,99173,40483,0
1783771272097427094,2026-07-11T19:01:12.097+07:00,0.260,99173,40512,0
1783771272097427095,2026-07-11T19:01:12.097+07:00,0.260,99190,40494,0
1783771272097427096,2026-07-11T19:01:12.097+07:00,0.260,99207,40494,0
1783771272097427097,2026-07-11T19:01:12.097+07:00,0.260,99241,40523,0
1783771272097427098,2026-07-11T19:01:12.097+07:00,0.260,99259,40529,0
1783771272140009444,2026-07-11T19:01:12.140+07:00,0.302,99241,40517,0
1783771272140009445,2026-07-11T19:01:12.140+07:00,0.302,99259,40546,0
1783771272140009446,2026-07-11T19:01:12.140+07:00,0.302,99276,40557,0
1783771272140009447,2026-07-11T19:01:12.140+07:00,0.302,99276,40597,0
1783771272140009448,2026-07-11T19:01:12.140+07:00,0.302,99310,40591,0
1783771272140009449,2026-07-11T19:01:12.140+07:00,0.302,99344,40603,0
1783771272140009450,2026-07-11T19:01:12.140+07:00,0.302,99327,40620,0
1783771272140009451,2026-07-11T19:01:12.140+07:00,0.302,99344,40603,0
1783771272140009452,2026-07-11T19:01:12.140+07:00,0.302,99327,40632,0
1783771272140009453,2026-07-11T19:01:12.140+07:00,0.302,99396,40666,0
1783771272140009454,2026-07-11T19:01:12.140+07:00,0.302,99413,40672,0
1783771272140009455,2026-07-11T19:01:12.140+07:00,0.302,99413,40683,0
1783771272140009456,2026-07-11T19:01:12.140+07:00,0.302,99447,40712,0
1783771272140009457,2026-07-11T19:01:12.140+07:00,0.302,99464,40706,0
1783771272140009458,2026-07-11T19:01:12.140+07:00,0.302,99499,40741,0
1783771272140009459,2026-07-11T19:01:12.140+07:00,0.302,99481,40747,0
1783771272140009460,2026-07-11T19:01:12.140+07:00,0.302,99481,40752,0
1783771272179552889,2026-07-11T19:01:12.179+07:00,0.342,99499,40781,0
1783771272179552890,2026-07-11T19:01:12.179+07:00,0.342,99516,40775,0
1783771272179552891,2026-07-11T19:01:12.179+07:00,0.342,99567,40798,0
1783771272179552892,2026-07-11T19:01:12.179+07:00,0.342,99550,40816,0
1783771272179552893,2026-07-11T19:01:12.179+07:00,0.342,99585,40822,0
1783771272179552894,2026-07-11T19:01:12.179+07:00,0.342,99567,40816,0
1783771272179552895,2026-07-11T19:01:12.179+07:00,0.342,99602,40833,0
1783771272179552896,2026-07-11T19:01:12.179+07:00,0.342,99602,40839,0
1783771272179552897,2026-07-11T19:01:12.179+07:00,0.342,99602,40845,0
1783771272179552898,2026-07-11T19:01:12.179+07:00,0.342,99653,40868,0
1783771272179552899,2026-07-11T19:01:12.179+07:00,0.342,99653,40868,0
1783771272179552900,2026-07-11T19:01:12.179+07:00,0.342,99636,40874,0
1783771272179552901,2026-07-11T19:01:12.179+07:00,0.342,99671,40874,0
1783771272179552902,2026-07-11T19:01:12.179+07:00,0.342,99636,40874,0
1783771272179552903,2026-07-11T19:01:12.179+07:00,0.342,99671,40885,0
1783771272179552904,2026-07-11T19:01:12.179+07:00,0.342,99653,40880,0
1783771272222004283,2026-07-11T19:01:12.222+07:00,0.384,99688,40897,0
1783771272222004284,2026-07-11T19:01:12.222+07:00,0.384,99688,40914,0
1783771272222004285,2026-07-11T19:01:12.222+07:00,0.384,99705,40909,0
1783771272222004286,2026-07-11T19:01:12.222+07:00,0.384,99705,40932,0
1783771272222004287,2026-07-11T19:01:12.222+07:00,0.384,99688,40914,0
1783771272222004288,2026-07-11T19:01:12.222+07:00,0.384,99722,40897,0
1783771272222004289,2026-07-11T19:01:12.222+07:00,0.384,99688,40891,0
1783771272222004290,2026-07-11T19:01:12.222+07:00,0.384,99705,40909,0
1783771272222004291,2026-07-11T19:01:12.222+07:00,0.384,99705,40920,0
1783771272222004292,2026-07-11T19:01:12.222+07:00,0.384,99722,40932,0
1783771272222004293,2026-07-11T19:01:12.222+07:00,0.384,99722,40914,0
1783771272222004294,2026-07-11T19:01:12.222+07:00,0.384,99740,40920,0
1783771272222004295,2026-07-11T19:01:12.222+07:00,0.384,99705,40920,0
1783771272222004296,2026-07-11T19:01:12.222+07:00,0.384,99722,40897,0
1783771272222004297,2026-07-11T19:01:12.222+07:00,0.384,99688,40903,0
1783771272222004298,2026-07-11T19:01:12.222+07:00,0.384,99688,40903,0
1783771272222004299,2026-07-11T19:01:12.222+07:00,0.384,99705,40891,0
1783771272264722753,2026-07-11T19:01:12.264+07:00,0.427,99722,40909,0
1783771272264722754,2026-07-11T19:01:12.264+07:00,0.427,99705,40920,0
1783771272264722755,2026-07-11T19:01:12.264+07:00,0.427,99722,40926,0
1783771272264722756,2026-07-11T19:01:12.264+07:00,0.427,99740,40891,0
1783771272264722757,2026-07-11T19:01:12.264+07:00,0.427,99722,40909,0
1783771272264722758,2026-07-11T19:01:12.264+07:00,0.427,99740,40891,0
1783771272264722759,2026-07-11T19:01:12.264+07:00,0.427,99740,40909,0
1783771272264722760,2026-07-11T19:01:12.264+07:00,0.427,99705,40897,0
1783771272264722761,2026-07-11T19:01:12.264+07:00,0.427,99705,40903,0
1783771272264722762,2026-07-11T19:01:12.264+07:00,0.427,99722,40909,0
1783771272264722763,2026-07-11T19:01:12.264+07:00,0.427,99705,40914,0
1783771272264722764,2026-07-11T19:01:12.264+07:00,0.427,99705,40897,0
1783771272264722765,2026-07-11T19:01:12.264+07:00,0.427,99688,40909,0
1783771272264722766,2026-07-11T19:01:12.264+07:00,0.427,99705,40885,0
1783771272264722767,2026-07-11T19:01:12.264+07:00,0.427,99722,40897,0
1783771272264722768,2026-07-11T19:01:12.264+07:00,0.427,99705,40909,0
1783771272264722769,2026-07-11T19:01:12.264+07:00,0.427,99688,40909,0
1783771272307202419,2026-07-11T19:01:12.307+07:00,0.470,99722,40909,0
1783771272307202420,2026-07-11T19:01:12.307+07:00,0.470,99757,40909,0
1783771272307202421,2026-07-11T19:01:12.307+07:00,0.470,99705,40909,0
1783771272307202422,2026-07-11T19:01:12.307+07:00,0.470,99774,40926,0
1783771272307202423,2026-07-11T19:01:12.307+07:00,0.470,99722,40920,0
1783771272307202424,2026-07-11T19:01:12.307+07:00,0.470,99705,40909,0
1783771272307202425,2026-07-11T19:01:12.307+07:00,0.470,99740,40938,0
1783771272307202426,2026-07-11T19:01:12.307+07:00,0.470,99757,40943,0
1783771272307202427,2026-07-11T19:01:12.307+07:00,0.470,99774,40973,0
1783771272307202428,2026-07-11T19:01:12.307+07:00,0.470,99757,40961,0
1783771272307202429,2026-07-11T19:01:12.307+07:00,0.470,99774,40955,0
1783771272307202430,2026-07-11T19:01:12.307+07:00,0.470,99792,40961,0
1783771272307202431,2026-07-11T19:01:12.307+07:00,0.470,99774,40943,0
1783771272307202432,2026-07-11T19:01:12.307+07:00,0.470,99809,41002,0
1783771272307202433,2026-07-11T19:01:12.307+07:00,0.470,99826,41002,0
1783771272307202434,2026-07-11T19:01:12.307+07:00,0.470,99792,41002,0
1783771272307202435,2026-07-11T19:01:12.307+07:00,0.470,99861,41013,0
1783771272349742210,2026-07-11T19:01:12.349+07:00,0.512,99843,41019,0
1783771272349742211,2026-07-11T19:01:12.349+07:00,0.512,99861,41019,0
1783771272349742212,2026-07-11T19:01:12.349+07:00,0.512,99913,41013,0
1783771272349742213,2026-07-11T19:01:12.349+07:00,0.512,99913,41025,0
1783771272349742214,2026-07-11T19:01:12.349+07:00,0.512,99895,41025,0
1783771272349742215,2026-07-11T19:01:12.349+07:00,0.512,99930,41054,0
1783771272349742216,2026-07-11T19:01:12.349+07:00,0.512,99895,41078,0
1783771272349742217,2026-07-11T19:01:12.349+07:00,0.512,99965,41072,0
1783771272349742218,2026-07-11T19:01:12.349+07:00,0.512,99930,41066,0
1783771272349742219,2026-07-11T19:01:12.349+07:00,0.512,99930,41095,0
1783771272349742220,2026-07-11T19:01:12.349+07:00,0.512,99947,41084,0
1783771272349742221,2026-07-11T19:01:12.349+07:00,0.512,99930,41084,0
1783771272349742222,2026-07-11T19:01:12.349+07:00,0.512,99965,41101,0
1783771272349742223,2026-07-11T19:01:12.349+07:00,0.512,99982,41113,0
1783771272349742224,2026-07-11T19:01:12.349+07:00,0.512,100017,41119,0
1783771272349742225,2026-07-11T19:01:12.349+07:00,0.512,100000,41125,0
1783771272349742226,2026-07-11T19:01:12.349+07:00,0.512,100017,41142,0
1783771272388437743,2026-07-11T19:01:12.388+07:00,0.551,100034,41154,0
1783771272388437744,2026-07-11T19:01:12.388+07:00,0.551,100069,41148,0
1783771272388437745,2026-07-11T19:01:12.388+07:00,0.551,100017,41172,0
1783771272388437746,2026-07-11T19:01:12.388+07:00,0.551,100052,41166,0
1783771272388437747,2026-07-11T19:01:12.388+07:00,0.551,100052,41166,0
1783771272388437748,2026-07-11T19:01:12.388+07:00,0.551,100069,41184,0
1783771272388437749,2026-07-11T19:01:12.388+07:00,0.551,100086,41178,0
1783771272388437750,2026-07-11T19:01:12.388+07:00,0.551,100086,41225,0
1783771272388437751,2026-07-11T19:01:12.388+07:00,0.551,100069,41195,0
1783771272388437752,2026-07-11T19:01:12.388+07:00,0.551,100121,41219,0
1783771272388437753,2026-07-11T19:01:12.388+07:00,0.551,100086,41213,0
1783771272388437754,2026-07-11T19:01:12.388+07:00,0.551,100139,41219,0
1783771272388437755,2026-07-11T19:01:12.388+07:00,0.551,100121,41243,0
1783771272388437756,2026-07-11T19:01:12.388+07:00,0.551,100104,41243,0
1783771272388437757,2026-07-11T19:01:12.388+07:00,0.551,100156,41260,0
1783771272429891334,2026-07-11T19:01:12.429+07:00,0.592,100173,41266,0
1783771272429891335,2026-07-11T19:01:12.429+07:00,0.592,100121,41278,0
1783771272429891336,2026-07-11T19:01:12.429+07:00,0.592,100191,41278,0
1783771272429891337,2026-07-11T19:01:12.429+07:00,0.592,100156,41302,0
1783771272429891338,2026-07-11T19:01:12.429+07:00,0.592,100156,41296,0
1783771272429891339,2026-07-11T19:01:12.429+07:00,0.592,100191,41314,0
1783771272429891340,2026-07-11T19:01:12.429+07:00,0.592,100208,41319,0
1783771272429891341,2026-07-11T19:01:12.429+07:00,0.592,100208,41337,0
1783771272429891342,2026-07-11T19:01:12.429+07:00,0.592,100208,41349,0
1783771272429891343,2026-07-11T19:01:12.429+07:00,0.592,100243,41331,0
1783771272429891344,2026-07-11T19:01:12.429+07:00,0.592,100243,41331,0
1783771272429891345,2026-07-11T19:01:12.429+07:00,0.592,100296,41361,0
1783771272429891346,2026-07-11T19:01:12.429+07:00,0.592,100313,41379,0
1783771272429891347,2026-07-11T19:01:12.429+07:00,0.592,100296,41367,0
1783771272429891348,2026-07-11T19:01:12.429+07:00,0.592,100313,41403,0
1783771272429891349,2026-07-11T19:01:12.429+07:00,0.592,100330,41409,0
1783771272429891350,2026-07-11T19:01:12.429+07:00,0.592,100348,41420,0
1783771272471991108,2026-07-11T19:01:12.471+07:00,0.634,100348,41426,0
1783771272471991109,2026-07-11T19:01:12.471+07:00,0.634,100348,41426,0
1783771272471991110,2026-07-11T19:01:12.471+07:00,0.634,100330,41444,0
1783771272471991111,2026-07-11T19:01:12.471+07:00,0.634,100365,41438,0
1783771272471991112,2026-07-11T19:01:12.471+07:00,0.634,100348,41444,0
1783771272471991113,2026-07-11T19:01:12.471+07:00,0.634,100348,41420,0
1783771272471991114,2026-07-11T19:01:12.471+07:00,0.634,100330,41432,0
1783771272471991115,2026-07-11T19:01:12.471+07:00,0.634,100313,41403,0
1783771272471991116,2026-07-11T19:01:12.471+07:00,0.634,100243,41361,0
1783771272471991117,2026-07-11T19:01:12.471+07:00,0.634,100208,41325,0
1783771272471991118,2026-07-11T19:01:12.471+07:00,0.634,100208,41290,0
1783771272471991119,2026-07-11T19:01:12.471+07:00,0.634,100139,41254,0
1783771272471991120,2026-07-11T19:01:12.471+07:00,0.634,100069,41195,0
1783771272471991121,2026-07-11T19:01:12.471+07:00,0.634,99982,41166,0
1783771272471991122,2026-07-11T19:01:12.471+07:00,0.634,99982,41119,0
1783771272471991123,2026-07-11T19:01:12.471+07:00,0.634,99930,41066,0
1783771272471991124,2026-07-11T19:01:12.471+07:00,0.634,99843,41019,0
1783771272514636370,2026-07-11T19:01:12.514+07:00,0.677,99774,40955,0
1783771272514636371,2026-07-11T19:01:12.514+07:00,0.677,99740,40932,0
1783771272514636372,2026-07-11T19:01:12.514+07:00,0.677,99671,40874,0
1783771272514636373,2026-07-11T19:01:12.514+07:00,0.677,99602,40822,0
1783771272514636374,2026-07-11T19:01:12.514+07:00,0.677,99602,40781,0
1783771272514636375,2026-07-11T19:01:12.514+07:00,0.677,99516,40735,0
1783771272514636376,2026-07-11T19:01:12.514+07:00,0.677,99481,40706,0
1783771272514636377,2026-07-11T19:01:12.514+07:00,0.677,99447,40666,0
1783771272514636378,2026-07-11T19:01:12.514+07:00,0.677,99378,40626,0
1783771272514636379,2026-07-11T19:01:12.514+07:00,0.677,99344,40591,0
1783771272514636380,2026-07-11T19:01:12.514+07:00,0.677,99344,40569,0
1783771272514636381,2026-07-11T19:01:12.514+07:00,0.677,99293,40540,0
1783771272514636382,2026-07-11T19:01:12.514+07:00,0.677,99276,40540,0
1783771272514636383,2026-07-11T19:01:12.514+07:00,0.677,99276,40529,0
1783771272514636384,2026-07-11T19:01:12.514+07:00,0.677,99276,40506,0
1783771272514636385,2026-07-11T19:01:12.514+07:00,0.677,99241,40477,0
1783771272514636386,2026-07-11T19:01:12.514+07:00,0.677,99224,40472,0
1783771272554571472,2026-07-11T19:01:12.554+07:00,0.717,99190,40460,0
1783771272554571473,2026-07-11T19:01:12.554+07:00,0.717,99241,40438,0
1783771272554571474,2026-07-11T19:01:12.554+07:00,0.717,99241,40443,0
1783771272554571475,2026-07-11T19:01:12.554+07:00,0.717,99224,40460,0
1783771272554571476,2026-07-11T19:01:12.554+07:00,0.717,99259,40455,0
1783771272554571477,2026-07-11T19:01:12.554+07:00,0.717,99241,40449,0
1783771272554571478,2026-07-11T19:01:12.554+07:00,0.717,99190,40449,0
1783771272554571479,2026-07-11T19:01:12.554+07:00,0.717,99241,40449,0
1783771272554571480,2026-07-11T19:01:12.554+07:00,0.717,99224,40460,0
1783771272554571481,2026-07-11T19:01:12.554+07:00,0.717,99207,40443,0
1783771272554571482,2026-07-11T19:01:12.554+07:00,0.717,99276,40460,0
1783771272554571483,2026-07-11T19:01:12.554+07:00,0.717,99259,40472,0
1783771272554571484,2026-07-11T19:01:12.554+07:00,0.717,99293,40500,0
1783771272554571485,2026-07-11T19:01:12.554+07:00,0.717,99276,40517,0
1783771272554571486,2026-07-11T19:01:12.554+07:00,0.717,99276,40477,0
1783771272554571487,2026-07-11T19:01:12.554+07:00,0.717,99310,40506,0
1783771272598158597,2026-07-11T19:01:12.598+07:00,0.760,99276,40506,0
1783771272598158598,2026-07-11T19:01:12.598+07:00,0.760,99327,40529,0
1783771272598158599,2026-07-11T19:01:12.598+07:00,0.760,99327,40529,0
1783771272598158600,2026-07-11T19:01:12.598+07:00,0.760,99361,40551,0
1783771272598158601,2026-07-11T19:01:12.598+07:00,0.760,99396,40569,0
1783771272598158602,2026-07-11T19:01:12.598+07:00,0.760,99361,40557,0
1783771272598158603,2026-07-11T19:01:12.598+07:00,0.760,99378,40580,0
1783771272598158604,2026-07-11T19:01:12.598+07:00,0.760,99396,40586,0
1783771272598158605,2026-07-11T19:01:12.598+07:00,0.760,99413,40591,0
1783771272598158606,2026-07-11T19:01:12.598+07:00,0.760,99413,40609,0
1783771272598158607,2026-07-11T19:01:12.598+07:00,0.760,99430,40643,0
1783771272598158608,2026-07-11T19:01:12.598+07:00,0.760,99430,40660,0
1783771272598158609,2026-07-11T19:01:12.598+07:00,0.760,99464,40660,0
1783771272598158610,2026-07-11T19:01:12.598+07:00,0.760,99481,40660,0
1783771272598158611,2026-07-11T19:01:12.598+07:00,0.760,99499,40672,0
1783771272598158612,2026-07-11T19:01:12.598+07:00,0.760,99464,40677,0
1783771272598158613,2026-07-11T19:01:12.598+07:00,0.760,99499,40689,0
1783771272642805754,2026-07-11T19:01:12.642+07:00,0.805,99481,40695,0
1783771272642805755,2026-07-11T19:01:12.642+07:00,0.805,99550,40712,0
1783771272642805756,2026-07-11T19:01:12.642+07:00,0.805,99550,40729,0
1783771272642805757,2026-07-11T19:01:12.642+07:00,0.805,99567,40729,0
1783771272642805758,2026-07-11T19:01:12.642+07:00,0.805,99550,40747,0
1783771272642805759,2026-07-11T19:01:12.642+07:00,0.805,99636,40764,0
1783771272642805760,2026-07-11T19:01:12.642+07:00,0.805,99602,40781,0
1783771272642805761,2026-07-11T19:01:12.642+07:00,0.805,99602,40804,0
1783771272642805762,2026-07-11T19:01:12.642+07:00,0.805,99619,40810,0
1783771272642805763,2026-07-11T19:01:12.642+07:00,0.805,99671,40816,0
1783771272642805764,2026-07-11T19:01:12.642+07:00,0.805,99653,40827,0
1783771272642805765,2026-07-11T19:01:12.642+07:00,0.805,99671,40839,0
1783771272642805766,2026-07-11T19:01:12.642+07:00,0.805,99671,40868,0
1783771272642805767,2026-07-11T19:01:12.642+07:00,0.805,99688,40868,0
1783771272642805768,2026-07-11T19:01:12.642+07:00,0.805,99688,40891,0
1783771272642805769,2026-07-11T19:01:12.642+07:00,0.805,99740,40880,0
1783771272642805770,2026-07-11T19:01:12.642+07:00,0.805,99757,40891,0
1783771272681699248,2026-07-11T19:01:12.681+07:00,0.844,99757,40932,0
1783771272681699249,2026-07-11T19:01:12.681+07:00,0.844,99809,40949,0
1783771272681699250,2026-07-11T19:01:12.681+07:00,0.844,99792,40955,0
1783771272681699251,2026-07-11T19:01:12.681+07:00,0.844,99826,40967,0
1783771272681699252,2026-07-11T19:01:12.681+07:00,0.844,99826,40978,0
1783771272681699253,2026-07-11T19:01:12.681+07:00,0.844,99792,40955,0
1783771272681699254,2026-07-11T19:01:12.681+07:00,0.844,99826,40990,0
1783771272681699255,2026-07-11T19:01:12.681+07:00,0.844,99861,41008,0
1783771272681699256,2026-07-11T19:01:12.681+07:00,0.844,99861,40996,0
1783771272681699257,2026-07-11T19:01:12.681+07:00,0.844,99878,41031,0
1783771272681699258,2026-07-11T19:01:12.681+07:00,0.844,99861,41019,0
1783771272681699259,2026-07-11T19:01:12.681+07:00,0.844,99861,41037,0
1783771272681699260,2026-07-11T19:01:12.681+07:00,0.844,99913,41043,0
1783771272681699261,2026-07-11T19:01:12.681+07:00,0.844,99895,41043,0
1783771272681699262,2026-07-11T19:01:12.681+07:00,0.844,99878,41049,0
1783771272681699263,2026-07-11T19:01:12.681+07:00,0.844,99895,41066,0
1783771272681699264,2026-07-11T19:01:12.681+07:00,0.844,99913,41049,0
1783771272724416389,2026-07-11T19:01:12.724+07:00,0.887,99895,41066,0
1783771272724416390,2026-07-11T19:01:12.724+07:00,0.887,99930,41078,0
1783771272724416391,2026-07-11T19:01:12.724+07:00,0.887,99947,41072,0
1783771272724416392,2026-07-11T19:01:12.724+07:00,0.887,99895,41060,0
1783771272724416393,2026-07-11T19:01:12.724+07:00,0.887,99895,41066,0
1783771272724416394,2026-07-11T19:01:12.724+07:00,0.887,99878,41054,0
1783771272724416395,2026-07-11T19:01:12.724+07:00,0.887,99930,41060,0
1783771272724416396,2026-07-11T19:01:12.724+07:00,0.887,99913,41078,0
1783771272724416397,2026-07-11T19:01:12.724+07:00,0.887,99930,41095,0
1783771272724416398,2026-07-11T19:01:12.724+07:00,0.887,99947,41084,0
1783771272724416399,2026-07-11T19:01:12.724+07:00,0.887,99913,41090,0
1783771272724416400,2026-07-11T19:01:12.724+07:00,0.887,99965,41078,0
1783771272724416401,2026-07-11T19:01:12.724+07:00,0.887,99930,41084,0
1783771272724416402,2026-07-11T19:01:12.724+07:00,0.887,99895,41078,0
1783771272724416403,2026-07-11T19:01:12.724+07:00,0.887,99878,41078,0
1783771272724416404,2026-07-11T19:01:12.724+07:00,0.887,99913,41072,0
1783771272724416405,2026-07-11T19:01:12.724+07:00,0.887,99913,41084,0
1783771272761884881,2026-07-11T19:01:12.761+07:00,0.924,99930,41072,0
1783771272761884882,2026-07-11T19:01:12.761+07:00,0.924,99895,41078,0
1783771272761884883,2026-07-11T19:01:12.761+07:00,0.924,99895,41072,0
1783771272761884884,2026-07-11T19:01:12.761+07:00,0.924,99913,41054,0
1783771272761884885,2026-07-11T19:01:12.761+07:00,0.924,99913,41078,0
1783771272761884886,2026-07-11T19:01:12.761+07:00,0.924,99878,41060,0
1783771272761884887,2026-07-11T19:01:12.761+07:00,0.924,99930,41095,0
1783771272761884888,2026-07-11T19:01:12.761+07:00,0.924,99930,41119,0
1783771272761884889,2026-07-11T19:01:12.761+07:00,0.924,99930,41090,0
1783771272761884890,2026-07-11T19:01:12.761+07:00,0.924,99947,41119,0
1783771272761884891,2026-07-11T19:01:12.761+07:00,0.924,99982,41095,0
1783771272761884892,2026-07-11T19:01:12.761+07:00,0.924,99982,41101,0
1783771272761884893,2026-07-11T19:01:12.761+07:00,0.924,100034,41107,0
1783771272761884894,2026-07-11T19:01:12.761+07:00,0.924,99982,41125,0
1783771272761884895,2026-07-11T19:01:12.761+07:00,0.924,100000,41131,0
1783771272804133379,2026-07-11T19:01:12.804+07:00,0.966,100000,41142,0
1783771272804133380,2026-07-11T19:01:12.804+07:00,0.966,100052,41154,0
1783771272804133381,2026-07-11T19:01:12.804+07:00,0.966,100034,41136,0
1783771272804133382,2026-07-11T19:01:12.804+07:00,0.966,100034,41142,0
1783771272804133383,2026-07-11T19:01:12.804+07:00,0.966,100017,41136,0
1783771272804133384,2026-07-11T19:01:12.804+07:00,0.966,100052,41131,0
1783771272804133385,2026-07-11T19:01:12.804+07:00,0.966,100052,41148,0
1783771272804133386,2026-07-11T19:01:12.804+07:00,0.966,100104,41166,0
1783771272804133387,2026-07-11T19:01:12.804+07:00,0.966,100069,41166,0
1783771272804133388,2026-07-11T19:01:12.804+07:00,0.966,100104,41195,0
1783771272804133389,2026-07-11T19:01:12.804+07:00,0.966,100104,41172,0
1783771272804133390,2026-07-11T19:01:12.804+07:00,0.966,100139,41178,0
1783771272804133391,2026-07-11T19:01:12.804+07:00,0.966,100104,41189,0
1783771272804133392,2026-07-11T19:01:12.804+07:00,0.966,100121,41195,0
1783771272804133393,2026-07-11T19:01:12.804+07:00,0.966,100156,41195,0
1783771272804133394,2026-07-11T19:01:12.804+07:00,0.966,100139,41213,0
1783771272804133395,2026-07-11T19:01:12.804+07:00,0.966,100156,41225,0
1783771272844081800,2026-07-11T19:01:12.844+07:00,1.006,100173,41219,0
1783771272844081801,2026-07-11T19:01:12.844+07:00,1.006,100173,41237,0
1783771272844081802,2026-07-11T19:01:12.844+07:00,1.006,100191,41254,0
1783771272844081803,2026-07-11T19:01:12.844+07:00,1.006,100156,41243,0
1783771272844081804,2026-07-11T19:01:12.844+07:00,1.006,100173,41243,0
1783771272844081805,2026-07-11T19:01:12.844+07:00,1.006,100191,41254,0
1783771272844081806,2026-07-11T19:01:12.844+07:00,1.006,100191,41272,0
1783771272844081807,2026-07-11T19:01:12.844+07:00,1.006,100191,41278,0
1783771272844081808,2026-07-11T19:01:12.844+07:00,1.006,100226,41284,0
1783771272844081809,2026-07-11T19:01:12.844+07:00,1.006,100243,41319,0
1783771272844081810,2026-07-11T19:01:12.844+07:00,1.006,100313,41319,0
1783771272844081811,2026-07-11T19:01:12.844+07:00,1.006,100261,41314,0
1783771272844081812,2026-07-11T19:01:12.844+07:00,1.006,100278,41314,0
1783771272844081813,2026-07-11T19:01:12.844+07:00,1.006,100313,41331,0
1783771272844081814,2026-07-11T19:01:12.844+07:00,1.006,100296,41355,0
1783771272844081815,2026-07-11T19:01:12.844+07:00,1.006,100348,41361,0
1783771272886667895,2026-07-11T19:01:12.886+07:00,1.049,100365,41379,0
1783771272886667896,2026-07-11T19:01:12.886+07:00,1.049,100348,41397,0
1783771272886667897,2026-07-11T19:01:12.886+07:00,1.049,100348,41391,0
1783771272886667898,2026-07-11T19:01:12.886+07:00,1.049,100400,41409,0
1783771272886667899,2026-07-11T19:01:12.886+07:00,1.049,100400,41409,0
1783771272886667900,2026-07-11T19:01:12.886+07:00,1.049,100400,41415,0
1783771272886667901,2026-07-11T19:01:12.886+07:00,1.049,100453,41450,0
1783771272886667902,2026-07-11T19:01:12.886+07:00,1.049,100453,41444,0
1783771272886667903,2026-07-11T19:01:12.886+07:00,1.049,100470,41468,0
1783771272886667904,2026-07-11T19:01:12.886+07:00,1.049,100523,41474,0
1783771272886667905,2026-07-11T19:01:12.886+07:00,1.049,100541,41480,0
1783771272886667906,2026-07-11T19:01:12.886+07:00,1.049,100506,41492,0
1783771272886667907,2026-07-11T19:01:12.886+07:00,1.049,100541,41522,0
1783771272886667908,2026-07-11T19:01:12.886+07:00,1.049,100593,41534,0
1783771272886667909,2026-07-11T19:01:12.886+07:00,1.049,100593,41558,0
1783771272886667910,2026-07-11T19:01:12.886+07:00,1.049,100593,41582,0
1783771272886667911,2026-07-11T19:01:12.886+07:00,1.049,100646,41594,0
1783771272929275659,2026-07-11T19:01:12.929+07:00,1.092,100664,41588,0
1783771272929275660,2026-07-11T19:01:12.929+07:00,1.092,100628,41600,0
1783771272929275661,2026-07-11T19:01:12.929+07:00,1.092,100681,41600,0
1783771272929275662,2026-07-11T19:01:12.929+07:00,1.092,100681,41612,0
1783771272929275663,2026-07-11T19:01:12.929+07:00,1.092,100681,41612,0
1783771272929275664,2026-07-11T19:01:12.929+07:00,1.092,100681,41636,0
1783771272929275665,2026-07-11T19:01:12.929+07:00,1.092,100699,41636,0
1783771272929275666,2026-07-11T19:01:12.929+07:00,1.092,100716,41654,0
1783771272929275667,2026-07-11T19:01:12.929+07:00,1.092,100716,41630,0
1783771272929275668,2026-07-11T19:01:12.929+07:00,1.092,100681,41654,0
1783771272929275669,2026-07-11T19:01:12.929+07:00,1.092,100699,41648,0
1783771272929275670,2026-07-11T19:01:12.929+07:00,1.092,100681,41630,0
1783771272929275671,2026-07-11T19:01:12.929+07:00,1.092,100664,41666,0
1783771272929275672,2026-07-11T19:01:12.929+07:00,1.092,100699,41660,0
1783771272929275673,2026-07-11T19:01:12.929+07:00,1.092,100699,41672,0
1783771272929275674,2026-07-11T19:01:12.929+07:00,1.092,100681,41678,0
1783771272929275675,2026-07-11T19:01:12.929+07:00,1.092,100664,41684,0
1783771272966536654,2026-07-11T19:01:12.966+07:00,1.129,100681,41684,0
1783771272966536655,2026-07-11T19:01:12.966+07:00,1.129,100699,41690,0
1783771272966536656,2026-07-11T19:01:12.966+07:00,1.129,100681,41696,0
1783771272966536657,2026-07-11T19:01:12.966+07:00,1.129,100664,41696,0
1783771272966536658,2026-07-11T19:01:12.966+07:00,1.129,100699,41708,0
1783771272966536659,2026-07-11T19:01:12.966+07:00,1.129,100734,41708,0
1783771272966536660,2026-07-11T19:01:12.966+07:00,1.129,100699,41720,0
1783771272966536661,2026-07-11T19:01:12.966+07:00,1.129,100752,41727,0
1783771272966536662,2026-07-11T19:01:12.966+07:00,1.129,100734,41727,0
1783771272966536663,2026-07-11T19:01:12.966+07:00,1.129,100716,41727,0
1783771272966536664,2026-07-11T19:01:12.966+07:00,1.129,100752,41739,0
1783771272966536665,2026-07-11T19:01:12.966+07:00,1.129,100734,41739,0
1783771272966536666,2026-07-11T19:01:12.966+07:00,1.129,100787,41775,0
1783771272966536667,2026-07-11T19:01:12.966+07:00,1.129,100805,41817,0
1783771272966536668,2026-07-11T19:01:12.966+07:00,1.129,100805,41793,0
1783771272966536669,2026-07-11T19:01:12.966+07:00,1.129,100822,41805,0
1783771273011498801,2026-07-11T19:01:13.011+07:00,1.174,100840,41799,0
1783771273011498802,2026-07-11T19:01:13.011+07:00,1.174,100787,41775,0
1783771273011498803,2026-07-11T19:01:13.011+07:00,1.174,100787,41769,0
1783771273011498804,2026-07-11T19:01:13.011+07:00,1.174,100805,41763,0
1783771273011498805,2026-07-11T19:01:13.011+07:00,1.174,100787,41757,0
1783771273011498806,2026-07-11T19:01:13.011+07:00,1.174,100734,41714,0
1783771273011498807,2026-07-11T19:01:13.011+07:00,1.174,100699,41708,0
1783771273011498808,2026-07-11T19:01:13.011+07:00,1.174,100628,41672,0
1783771273011498809,2026-07-11T19:01:13.011+07:00,1.174,100593,41624,0
1783771273011498810,2026-07-11T19:01:13.011+07:00,1.174,100558,41588,0
1783771273011498811,2026-07-11T19:01:13.011+07:00,1.174,100506,41546,0
1783771273011498812,2026-07-11T19:01:13.011+07:00,1.174,100470,41498,0
1783771273011498813,2026-07-11T19:01:13.011+07:00,1.174,100418,41456,0
1783771273011498814,2026-07-11T19:01:13.011+07:00,1.174,100365,41420,0
1783771273011498815,2026-07-11T19:01:13.011+07:00,1.174,100348,41391,0
1783771273011498816,2026-07-11T19:01:13.011+07:00,1.174,100261,41319,0
1783771273011498817,2026-07-11T19:01:13.011+07:00,1.174,100226,41284,0
1783771273054016483,2026-07-11T19:01:13.054+07:00,1.216,100173,41231,0
1783771273054016484,2026-07-11T19:01:13.054+07:00,1.216,100104,41184,0
1783771273054016485,2026-07-11T19:01:13.054+07:00,1.216,100052,41166,0
1783771273054016486,2026-07-11T19:01:13.054+07:00,1.216,100017,41119,0
1783771273054016487,2026-07-11T19:01:13.054+07:00,1.216,100000,41066,0
1783771273054016488,2026-07-11T19:01:13.054+07:00,1.216,99965,41060,0
1783771273054016489,2026-07-11T19:01:13.054+07:00,1.216,99913,41008,0
1783771273054016490,2026-07-11T19:01:13.054+07:00,1.216,99878,40990,0
1783771273054016491,2026-07-11T19:01:13.054+07:00,1.216,99843,40949,0
1783771273054016492,2026-07-11T19:01:13.054+07:00,1.216,99792,40938,0
1783771273054016493,2026-07-11T19:01:13.054+07:00,1.216,99792,40897,0
1783771273054016494,2026-07-11T19:01:13.054+07:00,1.216,99792,40897,0
1783771273054016495,2026-07-11T19:01:13.054+07:00,1.216,99757,40897,0
1783771273054016496,2026-07-11T19:01:13.054+07:00,1.216,99740,40903,0
1783771273054016497,2026-07-11T19:01:13.054+07:00,1.216,99740,40862,0
1783771273054016498,2026-07-11T19:01:13.054+07:00,1.216,99774,40856,0
1783771273054016499,2026-07-11T19:01:13.054+07:00,1.216,99722,40851,0
1783771273096836217,2026-07-11T19:01:13.096+07:00,1.259,99705,40851,0
1783771273096836218,2026-07-11T19:01:13.096+07:00,1.259,99688,40845,0
1783771273096836219,2026-07-11T19:01:13.096+07:00,1.259,99722,40874,0
1783771273096836220,2026-07-11T19:01:13.096+07:00,1.259,99757,40862,0
1783771273096836221,2026-07-11T19:01:13.096+07:00,1.259,99740,40856,0
1783771273096836222,2026-07-11T19:01:13.096+07:00,1.259,99740,40868,0
1783771273096836223,2026-07-11T19:01:13.096+07:00,1.259,99774,40862,0
1783771273096836224,2026-07-11T19:01:13.096+07:00,1.259,99757,40885,0
1783771273096836225,2026-07-11T19:01:13.096+07:00,1.259,99774,40885,0
1783771273096836226,2026-07-11T19:01:13.096+07:00,1.259,99792,40874,0
1783771273096836227,2026-07-11T19:01:13.096+07:00,1.259,99809,40897,0
1783771273096836228,2026-07-11T19:01:13.096+07:00,1.259,99792,40932,0
1783771273096836229,2026-07-11T19:01:13.096+07:00,1.259,99809,40926,0
1783771273096836230,2026-07-11T19:01:13.096+07:00,1.259,99843,40932,0
1783771273096836231,2026-07-11T19:01:13.096+07:00,1.259,99843,40938,0
1783771273096836232,2026-07-11T19:01:13.096+07:00,1.259,99843,40961,0
1783771273096836233,2026-07-11T19:01:13.096+07:00,1.259,99843,40961,0
1783771273138763891,2026-07-11T19:01:13.138+07:00,1.301,99878,40961,0
1783771273138763892,2026-07-11T19:01:13.138+07:00,1.301,99895,40984,0
1783771273138763893,2026-07-11T19:01:13.138+07:00,1.301,99930,40984,0
1783771273138763894,2026-07-11T19:01:13.138+07:00,1.301,99930,40996,0
1783771273138763895,2026-07-11T19:01:13.138+07:00,1.301,99965,41013,0
1783771273138763896,2026-07-11T19:01:13.138+07:00,1.301,99947,41019,0
1783771273138763897,2026-07-11T19:01:13.138+07:00,1.301,99947,41049,0
1783771273138763898,2026-07-11T19:01:13.138+07:00,1.301,99965,41037,0
1783771273138763899,2026-07-11T19:01:13.138+07:00,1.301,99982,41043,0
1783771273138763900,2026-07-11T19:01:13.138+07:00,1.301,99982,41066,0
1783771273138763901,2026-07-11T19:01:13.138+07:00,1.301,99982,41101,0
1783771273138763902,2026-07-11T19:01:13.138+07:00,1.301,99982,41107,0
1783771273138763903,2026-07-11T19:01:13.138+07:00,1.301,100069,41119,0
1783771273138763904,2026-07-11T19:01:13.138+07:00,1.301,100052,41131,0
1783771273138763905,2026-07-11T19:01:13.138+07:00,1.301,100069,41107,0
1783771273138763906,2026-07-11T19:01:13.138+07:00,1.301,100052,41131,0
1783771273138763907,2026-07-11T19:01:13.138+07:00,1.301,100086,41136,0
1783771273176443216,2026-07-11T19:01:13.176+07:00,1.339,100104,41166,0
1783771273176443217,2026-07-11T19:01:13.176+07:00,1.339,100139,41207,0
1783771273176443218,2026-07-11T19:01:13.176+07:00,1.339,100156,41225,0
1783771273176443219,2026-07-11T19:01:13.176+07:00,1.339,100173,41213,0
1783771273176443220,2026-07-11T19:01:13.176+07:00,1.339,100156,41225,0
1783771273176443221,2026-07-11T19:01:13.176+07:00,1.339,100156,41248,0
1783771273176443222,2026-07-11T19:01:13.176+07:00,1.339,100173,41266,0
1783771273176443223,2026-07-11T19:01:13.176+07:00,1.339,100226,41272,0
1783771273176443224,2026-07-11T19:01:13.176+07:00,1.339,100208,41266,0
1783771273176443225,2026-07-11T19:01:13.176+07:00,1.339,100226,41308,0
1783771273176443226,2026-07-11T19:01:13.176+07:00,1.339,100261,41319,0
1783771273176443227,2026-07-11T19:01:13.176+07:00,1.339,100243,41337,0
1783771273176443228,2026-07-11T19:01:13.176+07:00,1.339,100278,41325,0
1783771273176443229,2026-07-11T19:01:13.176+07:00,1.339,100296,41367,0
1783771273176443230,2026-07-11T19:01:13.176+07:00,1.339,100296,41355,0
1783771273218783085,2026-07-11T19:01:13.218+07:00,1.381,100313,41391,0
1783771273218783086,2026-07-11T19:01:13.218+07:00,1.381,100296,41385,0
1783771273218783087,2026-07-11T19:01:13.218+07:00,1.381,100330,41420,0
1783771273218783088,2026-07-11T19:01:13.218+07:00,1.381,100383,41426,0
1783771273218783089,2026-07-11T19:01:13.218+07:00,1.381,100365,41456,0
1783771273218783090,2026-07-11T19:01:13.218+07:00,1.381,100383,41432,0
1783771273218783091,2026-07-11T19:01:13.218+07:00,1.381,100383,41456,0
1783771273218783092,2026-07-11T19:01:13.218+07:00,1.381,100400,41456,0
1783771273218783093,2026-07-11T19:01:13.218+07:00,1.381,100418,41474,0
1783771273218783094,2026-07-11T19:01:13.218+07:00,1.381,100418,41486,0
1783771273218783095,2026-07-11T19:01:13.218+07:00,1.381,100470,41510,0
1783771273218783096,2026-07-11T19:01:13.218+07:00,1.381,100435,41522,0
1783771273218783097,2026-07-11T19:01:13.218+07:00,1.381,100453,41516,0
1783771273218783098,2026-07-11T19:01:13.218+07:00,1.381,100453,41522,0
1783771273218783099,2026-07-11T19:01:13.218+07:00,1.381,100470,41528,0
1783771273218783100,2026-07-11T19:01:13.218+07:00,1.381,100488,41534,0
1783771273218783101,2026-07-11T19:01:13.218+07:00,1.381,100453,41510,0
1783771273261916949,2026-07-11T19:01:13.261+07:00,1.424,100470,41528,0
1783771273261916950,2026-07-11T19:01:13.261+07:00,1.424,100488,41546,0
1783771273261916951,2026-07-11T19:01:13.261+07:00,1.424,100470,41534,0
1783771273261916952,2026-07-11T19:01:13.261+07:00,1.424,100523,41528,0
1783771273261916953,2026-07-11T19:01:13.261+07:00,1.424,100470,41516,0
1783771273261916954,2026-07-11T19:01:13.261+07:00,1.424,100453,41540,0
1783771273261916955,2026-07-11T19:01:13.261+07:00,1.424,100470,41534,0
1783771273261916956,2026-07-11T19:01:13.261+07:00,1.424,100453,41522,0
1783771273261916957,2026-07-11T19:01:13.261+07:00,1.424,100470,41546,0
1783771273261916958,2026-07-11T19:01:13.261+07:00,1.424,100453,41534,0
1783771273261916959,2026-07-11T19:01:13.261+07:00,1.424,100453,41522,0
1783771273261916960,2026-07-11T19:01:13.261+07:00,1.424,100435,41522,0
1783771273261916961,2026-07-11T19:01:13.261+07:00,1.424,100418,41516,0
1783771273261916962,2026-07-11T19:01:13.261+07:00,1.424,100435,41522,0
1783771273261916963,2026-07-11T19:01:13.261+07:00,1.424,100435,41516,0
1783771273261916964,2026-07-11T19:01:13.261+07:00,1.424,100435,41510,0
1783771273261916965,2026-07-11T19:01:13.261+07:00,1.424,100418,41510,0
1783771273303823540,2026-07-11T19:01:13.303+07:00,1.466,100435,41510,0
1783771273303823541,2026-07-11T19:01:13.303+07:00,1.466,100400,41504,0
1783771273303823542,2026-07-11T19:01:13.303+07:00,1.466,100400,41510,0
1783771273303823543,2026-07-11T19:01:13.303+07:00,1.466,100400,41492,0
1783771273303823544,2026-07-11T19:01:13.303+07:00,1.466,100400,41498,0
1783771273303823545,2026-07-11T19:01:13.303+07:00,1.466,100400,41498,0
1783771273303823546,2026-07-11T19:01:13.303+07:00,1.466,100383,41492,0
1783771273303823547,2026-07-11T19:01:13.303+07:00,1.466,100400,41492,0
1783771273303823548,2026-07-11T19:01:13.303+07:00,1.466,100383,41492,0
1783771273303823549,2026-07-11T19:01:13.303+07:00,1.466,100383,41486,0
1783771273303823550,2026-07-11T19:01:13.303+07:00,1.466,100365,41486,0
1783771273303823551,2026-07-11T19:01:13.303+07:00,1.466,100400,41498,0
1783771273303823552,2026-07-11T19:01:13.303+07:00,1.466,100383,41456,0
1783771273303823553,2026-07-11T19:01:13.303+07:00,1.466,100383,41462,0
1783771273303823554,2026-07-11T19:01:13.303+07:00,1.466,100383,41480,0
1783771273303823555,2026-07-11T19:01:13.303+07:00,1.466,100348,41486,0
1783771273303823556,2026-07-11T19:01:13.303+07:00,1.466,100348,41486,0
1783771273346427076,2026-07-11T19:01:13.346+07:00,1.509,100348,41510,0
1783771273346427077,2026-07-11T19:01:13.346+07:00,1.509,100348,41474,0
1783771273346427078,2026-07-11T19:01:13.346+07:00,1.509,100383,41498,0
1783771273346427079,2026-07-11T19:01:13.346+07:00,1.509,100348,41480,0
1783771273346427080,2026-07-11T19:01:13.346+07:00,1.509,100383,41492,0
1783771273346427081,2026-07-11T19:01:13.346+07:00,1.509,100330,41468,0
1783771273346427082,2026-07-11T19:01:13.346+07:00,1.509,100365,41468,0
1783771273346427083,2026-07-11T19:01:13.346+07:00,1.509,100365,41504,0
1783771273346427084,2026-07-11T19:01:13.346+07:00,1.509,100383,41498,0
1783771273346427085,2026-07-11T19:01:13.346+07:00,1.509,100383,41498,0
1783771273346427086,2026-07-11T19:01:13.346+07:00,1.509,100330,41492,0
1783771273346427087,2026-07-11T19:01:13.346+07:00,1.509,100330,41504,0
1783771273346427088,2026-07-11T19:01:13.346+07:00,1.509,100348,41504,0
1783771273346427089,2026-07-11T19:01:13.346+07:00,1.509,100330,41504,0
1783771273346427090,2026-07-11T19:01:13.346+07:00,1.509,100365,41516,0
1783771273346427091,2026-07-11T19:01:13.346+07:00,1.509,100383,41528,0
1783771273346427092,2026-07-11T19:01:13.346+07:00,1.509,100418,41540,0
1783771273386181907,2026-07-11T19:01:13.386+07:00,1.549,100453,41552,0
1783771273386181908,2026-07-11T19:01:13.386+07:00,1.549,100418,41546,0
1783771273386181909,2026-07-11T19:01:13.386+07:00,1.549,100435,41570,0
1783771273386181910,2026-07-11T19:01:13.386+07:00,1.549,100435,41564,0
1783771273386181911,2026-07-11T19:01:13.386+07:00,1.549,100453,41576,0
1783771273386181912,2026-07-11T19:01:13.386+07:00,1.549,100488,41594,0
1783771273386181913,2026-07-11T19:01:13.386+07:00,1.549,100506,41600,0
1783771273386181914,2026-07-11T19:01:13.386+07:00,1.549,100506,41624,0
1783771273386181915,2026-07-11T19:01:13.386+07:00,1.549,100523,41630,0
1783771273386181916,2026-07-11T19:01:13.386+07:00,1.549,100506,41624,0
1783771273386181917,2026-07-11T19:01:13.386+07:00,1.549,100523,41636,0
1783771273386181918,2026-07-11T19:01:13.386+07:00,1.549,100541,41654,0
1783771273386181919,2026-07-11T19:01:13.386+07:00,1.549,100541,41648,0
1783771273386181920,2026-07-11T19:01:13.386+07:00,1.549,100593,41660,0
1783771273386181921,2026-07-11T19:01:13.386+07:00,1.549,100593,41672,0
1783771273386181922,2026-07-11T19:01:13.386+07:00,1.549,100593,41696,0
1783771273428710949,2026-07-11T19:01:13.428+07:00,1.591,100593,41714,0
1783771273428710950,2026-07-11T19:01:13.428+07:00,1.591,100593,41720,0
1783771273428710951,2026-07-11T19:01:13.428+07:00,1.591,100628,41702,0
1783771273428710952,2026-07-11T19:01:13.428+07:00,1.591,100593,41702,0
1783771273428710953,2026-07-11T19:01:13.428+07:00,1.591,100664,41720,0
1783771273428710954,2026-07-11T19:01:13.428+07:00,1.591,100664,41745,0
1783771273428710955,2026-07-11T19:01:13.428+07:00,1.591,100628,41751,0
1783771273428710956,2026-07-11T19:01:13.428+07:00,1.591,100664,41745,0
1783771273428710957,2026-07-11T19:01:13.428+07:00,1.591,100664,41793,0
1783771273428710958,2026-07-11T19:01:13.428+07:00,1.591,100699,41787,0
1783771273428710959,2026-07-11T19:01:13.428+07:00,1.591,100716,41787,0
1783771273428710960,2026-07-11T19:01:13.428+07:00,1.591,100716,41787,0
1783771273428710961,2026-07-11T19:01:13.428+07:00,1.591,100699,41781,0
1783771273428710962,2026-07-11T19:01:13.428+07:00,1.591,100734,41805,0
1783771273428710963,2026-07-11T19:01:13.428+07:00,1.591,100716,41830,0
1783771273428710964,2026-07-11T19:01:13.428+07:00,1.591,100734,41836,0
1783771273428710965,2026-07-11T19:01:13.428+07:00,1.591,100769,41848,0
1783771273471080206,2026-07-11T19:01:13.471+07:00,1.633,100734,41854,0
1783771273471080207,2026-07-11T19:01:13.471+07:00,1.633,100787,41860,0
1783771273471080208,2026-07-11T19:01:13.471+07:00,1.633,100769,41860,0
1783771273471080209,2026-07-11T19:01:13.471+07:00,1.633,100805,41854,0
1783771273471080210,2026-07-11T19:01:13.471+07:00,1.633,100787,41872,0
1783771273471080211,2026-07-11T19:01:13.471+07:00,1.633,100805,41897,0
1783771273471080212,2026-07-11T19:01:13.471+07:00,1.633,100805,41915,0
1783771273471080213,2026-07-11T19:01:13.471+07:00,1.633,100805,41927,0
1783771273471080214,2026-07-11T19:01:13.471+07:00,1.633,100840,41921,0
1783771273471080215,2026-07-11T19:01:13.471+07:00,1.633,100857,41915,0
1783771273471080216,2026-07-11T19:01:13.471+07:00,1.633,100840,41933,0
1783771273471080217,2026-07-11T19:01:13.471+07:00,1.633,100822,41921,0
1783771273471080218,2026-07-11T19:01:13.471+07:00,1.633,100822,41933,0
1783771273471080219,2026-07-11T19:01:13.471+07:00,1.633,100840,41927,0
1783771273471080220,2026-07-11T19:01:13.471+07:00,1.633,100857,41958,0
1783771273471080221,2026-07-11T19:01:13.471+07:00,1.633,100893,41970,0
1783771273471080222,2026-07-11T19:01:13.471+07:00,1.633,100911,41958,0
1783771273513573910,2026-07-11T19:01:13.513+07:00,1.676,100928,41994,0
1783771273513573911,2026-07-11T19:01:13.513+07:00,1.676,100928,41976,0
1783771273513573912,2026-07-11T19:01:13.513+07:00,1.676,100928,42000,0
1783771273513573913,2026-07-11T19:01:13.513+07:00,1.676,100946,41994,0
1783771273513573914,2026-07-11T19:01:13.513+07:00,1.676,100946,42019,0
1783771273513573915,2026-07-11T19:01:13.513+07:00,1.676,100964,42037,0
1783771273513573916,2026-07-11T19:01:13.513+07:00,1.676,100981,42031,0
1783771273513573917,2026-07-11T19:01:13.513+07:00,1.676,100964,42025,0
1783771273513573918,2026-07-11T19:01:13.513+07:00,1.676,100928,42019,0
1783771273513573919,2026-07-11T19:01:13.513+07:00,1.676,100981,42013,0
1783771273513573920,2026-07-11T19:01:13.513+07:00,1.676,100928,42013,0
1783771273513573921,2026-07-11T19:01:13.513+07:00,1.676,100928,41976,0
1783771273513573922,2026-07-11T19:01:13.513+07:00,1.676,100893,41976,0
1783771273513573923,2026-07-11T19:01:13.513+07:00,1.676,100857,41964,0
1783771273513573924,2026-07-11T19:01:13.513+07:00,1.676,100822,41933,0
1783771273513573925,2026-07-11T19:01:13.513+07:00,1.676,100787,41878,0
1783771273513573926,2026-07-11T19:01:13.513+07:00,1.676,100716,41830,0
1783771273553460098,2026-07-11T19:01:13.553+07:00,1.716,100664,41775,0
1783771273553460099,2026-07-11T19:01:13.553+07:00,1.716,100628,41739,0
1783771273553460100,2026-07-11T19:01:13.553+07:00,1.716,100576,41696,0
1783771273553460101,2026-07-11T19:01:13.553+07:00,1.716,100488,41654,0
1783771273553460102,2026-07-11T19:01:13.553+07:00,1.716,100453,41618,0
1783771273553460103,2026-07-11T19:01:13.553+07:00,1.716,100418,41564,0
1783771273553460104,2026-07-11T19:01:13.553+07:00,1.716,100348,41510,0
1783771273553460105,2026-07-11T19:01:13.553+07:00,1.716,100296,41462,0
1783771273553460106,2026-07-11T19:01:13.553+07:00,1.716,100208,41426,0
1783771273553460107,2026-07-11T19:01:13.553+07:00,1.716,100191,41373,0
1783771273553460108,2026-07-11T19:01:13.553+07:00,1.716,100156,41349,0
1783771273553460109,2026-07-11T19:01:13.553+07:00,1.716,100139,41308,0
1783771273553460110,2026-07-11T19:01:13.553+07:00,1.716,100104,41272,0
1783771273553460111,2026-07-11T19:01:13.553+07:00,1.716,100052,41254,0
1783771273553460112,2026-07-11T19:01:13.553+07:00,1.716,100052,41225,0
1783771273553460113,2026-07-11T19:01:13.553+07:00,1.716,100000,41189,0
1783771273593538115,2026-07-11T19:01:13.593+07:00,1.756,99965,41160,0
1783771273593538116,2026-07-11T19:01:13.593+07:00,1.756,99965,41148,0
1783771273593538117,2026-07-11T19:01:13.593+07:00,1.756,99930,41154,0
1783771273593538118,2026-07-11T19:01:13.593+07:00,1.756,99930,41160,0
1783771273593538119,2026-07-11T19:01:13.593+07:00,1.756,99930,41136,0
1783771273593538120,2026-07-11T19:01:13.593+07:00,1.756,99913,41131,0
1783771273593538121,2026-07-11T19:01:13.593+07:00,1.756,99913,41125,0
1783771273593538122,2026-07-11T19:01:13.593+07:00,1.756,99913,41113,0
1783771273593538123,2026-07-11T19:01:13.593+07:00,1.756,99930,41119,0
1783771273593538124,2026-07-11T19:01:13.593+07:00,1.756,99913,41107,0
1783771273593538125,2026-07-11T19:01:13.593+07:00,1.756,99930,41113,0
1783771273593538126,2026-07-11T19:01:13.593+07:00,1.756,99947,41136,0
1783771273593538127,2026-07-11T19:01:13.593+07:00,1.756,99930,41136,0
1783771273593538128,2026-07-11T19:01:13.593+07:00,1.756,99947,41142,0
1783771273593538129,2026-07-11T19:01:13.593+07:00,1.756,100000,41148,0
1783771273593538130,2026-07-11T19:01:13.593+07:00,1.756,99982,41154,0
1783771273637178344,2026-07-11T19:01:13.637+07:00,1.800,100017,41184,0
1783771273637178345,2026-07-11T19:01:13.637+07:00,1.800,100034,41166,0
1783771273637178346,2026-07-11T19:01:13.637+07:00,1.800,100034,41195,0
1783771273637178347,2026-07-11T19:01:13.637+07:00,1.800,100069,41213,0
1783771273637178348,2026-07-11T19:01:13.637+07:00,1.800,100104,41237,0
1783771273637178349,2026-07-11T19:01:13.637+07:00,1.800,100069,41260,0
1783771273637178350,2026-07-11T19:01:13.637+07:00,1.800,100104,41260,0
1783771273637178351,2026-07-11T19:01:13.637+07:00,1.800,100156,41254,0
1783771273637178352,2026-07-11T19:01:13.637+07:00,1.800,100173,41260,0
1783771273637178353,2026-07-11T19:01:13.637+07:00,1.800,100156,41266,0
1783771273637178354,2026-07-11T19:01:13.637+07:00,1.800,100173,41308,0
1783771273637178355,2026-07-11T19:01:13.637+07:00,1.800,100191,41319,0
1783771273637178356,2026-07-11T19:01:13.637+07:00,1.800,100226,41331,0
1783771273637178357,2026-07-11T19:01:13.637+07:00,1.800,100261,41349,0
1783771273637178358,2026-07-11T19:01:13.637+07:00,1.800,100243,41337,0
1783771273637178359,2026-07-11T19:01:13.637+07:00,1.800,100296,41349,0
1783771273637178360,2026-07-11T19:01:13.637+07:00,1.800,100261,41361,0
1783771273678465562,2026-07-11T19:01:13.678+07:00,1.841,100296,41391,0
1783771273678465563,2026-07-11T19:01:13.678+07:00,1.841,100313,41415,0
1783771273678465564,2026-07-11T19:01:13.678+07:00,1.841,100330,41426,0
1783771273678465565,2026-07-11T19:01:13.678+07:00,1.841,100330,41444,0
1783771273678465566,2026-07-11T19:01:13.678+07:00,1.841,100348,41444,0
1783771273678465567,2026-07-11T19:01:13.678+07:00,1.841,100365,41450,0
1783771273678465568,2026-07-11T19:01:13.678+07:00,1.841,100365,41468,0
1783771273678465569,2026-07-11T19:01:13.678+07:00,1.841,100365,41474,0
1783771273678465570,2026-07-11T19:01:13.678+07:00,1.841,100400,41498,0
1783771273678465571,2026-07-11T19:01:13.678+07:00,1.841,100418,41510,0
1783771273678465572,2026-07-11T19:01:13.678+07:00,1.841,100453,41540,0
1783771273678465573,2026-07-11T19:01:13.678+07:00,1.841,100453,41558,0
1783771273678465574,2026-07-11T19:01:13.678+07:00,1.841,100488,41564,0
1783771273678465575,2026-07-11T19:01:13.678+07:00,1.841,100506,41600,0
1783771273678465576,2026-07-11T19:01:13.678+07:00,1.841,100523,41582,0
1783771273678465577,2026-07-11T19:01:13.678+07:00,1.841,100523,41600,0
1783771273678465578,2026-07-11T19:01:13.678+07:00,1.841,100541,41618,0
1783771273720848015,2026-07-11T19:01:13.720+07:00,1.883,100541,41648,0
1783771273720848016,2026-07-11T19:01:13.720+07:00,1.883,100593,41648,0
1783771273720848017,2026-07-11T19:01:13.720+07:00,1.883,100611,41690,0
1783771273720848018,2026-07-11T19:01:13.720+07:00,1.883,100593,41690,0
1783771273720848019,2026-07-11T19:01:13.720+07:00,1.883,100628,41702,0
1783771273720848020,2026-07-11T19:01:13.720+07:00,1.883,100628,41702,0
1783771273720848021,2026-07-11T19:01:13.720+07:00,1.883,100646,41714,0
1783771273720848022,2026-07-11T19:01:13.720+07:00,1.883,100664,41727,0
1783771273720848023,2026-07-11T19:01:13.720+07:00,1.883,100716,41757,0
1783771273720848024,2026-07-11T19:01:13.720+07:00,1.883,100699,41781,0
1783771273720848025,2026-07-11T19:01:13.720+07:00,1.883,100734,41805,0
1783771273720848026,2026-07-11T19:01:13.720+07:00,1.883,100769,41805,0
1783771273720848027,2026-07-11T19:01:13.720+07:00,1.883,100769,41817,0
1783771273720848028,2026-07-11T19:01:13.720+07:00,1.883,100769,41817,0
1783771273720848029,2026-07-11T19:01:13.720+07:00,1.883,100787,41799,0
1783771273720848030,2026-07-11T19:01:13.720+07:00,1.883,100752,41836,0
1783771273720848031,2026-07-11T19:01:13.720+07:00,1.883,100787,41842,0
1783771273720848032,2026-07-11T19:01:13.720+07:00,1.883,100769,41854,0
1783771273760909706,2026-07-11T19:01:13.760+07:00,1.923,100769,41854,0
1783771273760909707,2026-07-11T19:01:13.760+07:00,1.923,100805,41872,0
1783771273760909708,2026-07-11T19:01:13.760+07:00,1.923,100805,41872,0
1783771273760909709,2026-07-11T19:01:13.760+07:00,1.923,100840,41872,0
1783771273760909710,2026-07-11T19:01:13.760+07:00,1.923,100840,41884,0
1783771273760909711,2026-07-11T19:01:13.760+07:00,1.923,100805,41860,0
1783771273760909712,2026-07-11T19:01:13.760+07:00,1.923,100805,41884,0
1783771273760909713,2026-07-11T19:01:13.760+07:00,1.923,100822,41897,0
1783771273760909714,2026-07-11T19:01:13.760+07:00,1.923,100840,41878,0
1783771273760909715,2026-07-11T19:01:13.760+07:00,1.923,100822,41878,0
1783771273760909716,2026-07-11T19:01:13.760+07:00,1.923,100857,41890,0
1783771273760909717,2026-07-11T19:01:13.760+07:00,1.923,100840,41866,0
1783771273760909718,2026-07-11T19:01:13.760+07:00,1.923,100822,41890,0
1783771273760909719,2026-07-11T19:01:13.760+07:00,1.923,100822,41890,0
1783771273760909720,2026-07-11T19:01:13.760+07:00,1.923,100840,41860,0
1783771273803393566,2026-07-11T19:01:13.803+07:00,1.966,100857,41890,0
1783771273803393567,2026-07-11T19:01:13.803+07:00,1.966,100822,41884,0
1783771273803393568,2026-07-11T19:01:13.803+07:00,1.966,100840,41897,0
1783771273803393569,2026-07-11T19:01:13.803+07:00,1.966,100822,41890,0
1783771273803393570,2026-07-11T19:01:13.803+07:00,1.966,100840,41890,0
1783771273803393571,2026-07-11T19:01:13.803+07:00,1.966,100805,41872,0
1783771273803393572,2026-07-11T19:01:13.803+07:00,1.966,100822,41884,0
1783771273803393573,2026-07-11T19:01:13.803+07:00,1.966,100805,41866,0
1783771273803393574,2026-07-11T19:01:13.803+07:00,1.966,100805,41884,0
1783771273803393575,2026-07-11T19:01:13.803+07:00,1.966,100769,41872,0
1783771273803393576,2026-07-11T19:01:13.803+07:00,1.966,100787,41884,0
1783771273803393577,2026-07-11T19:01:13.803+07:00,1.966,100805,41860,0
1783771273803393578,2026-07-11T19:01:13.803+07:00,1.966,100787,41860,0
1783771273803393579,2026-07-11T19:01:13.803+07:00,1.966,100769,41854,0
1783771273803393580,2026-07-11T19:01:13.803+07:00,1.966,100734,41842,0
1783771273803393581,2026-07-11T19:01:13.803+07:00,1.966,100752,41842,0
1783771273803393582,2026-07-11T19:01:13.803+07:00,1.966,100805,41872,0
1783771273843282248,2026-07-11T19:01:13.843+07:00,2.006,100822,41884,0
1783771273843282249,2026-07-11T19:01:13.843+07:00,2.006,100787,41866,0
1783771273843282250,2026-07-11T19:01:13.843+07:00,2.006,100805,41854,0
1783771273843282251,2026-07-11T19:01:13.843+07:00,2.006,100787,41848,0
1783771273843282252,2026-07-11T19:01:13.843+07:00,2.006,100787,41848,0
1783771273843282253,2026-07-11T19:01:13.843+07:00,2.006,100752,41842,0
1783771273843282254,2026-07-11T19:01:13.843+07:00,2.006,100769,41866,0
1783771273843282255,2026-07-11T19:01:13.843+07:00,2.006,100769,41860,0
1783771273843282256,2026-07-11T19:01:13.843+07:00,2.006,100769,41860,0
1783771273843282257,2026-07-11T19:01:13.843+07:00,2.006,100787,41866,0
1783771273843282258,2026-07-11T19:01:13.843+07:00,2.006,100805,41878,0
1783771273843282259,2026-07-11T19:01:13.843+07:00,2.006,100787,41872,0
1783771273843282260,2026-07-11T19:01:13.843+07:00,2.006,100787,41860,0
1783771273843282261,2026-07-11T19:01:13.843+07:00,2.006,100787,41872,0
1783771273843282262,2026-07-11T19:01:13.843+07:00,2.006,100805,41878,0
1783771273843282263,2026-07-11T19:01:13.843+07:00,2.006,100787,41890,0
1783771273885769658,2026-07-11T19:01:13.885+07:00,2.048,100787,41903,0
1783771273885769659,2026-07-11T19:01:13.885+07:00,2.048,100787,41878,0
1783771273885769660,2026-07-11T19:01:13.885+07:00,2.048,100805,41897,0
1783771273885769661,2026-07-11T19:01:13.885+07:00,2.048,100822,41903,0
1783771273885769662,2026-07-11T19:01:13.885+07:00,2.048,100822,41897,0
1783771273885769663,2026-07-11T19:01:13.885+07:00,2.048,100805,41903,0
1783771273885769664,2026-07-11T19:01:13.885+07:00,2.048,100805,41897,0
1783771273885769665,2026-07-11T19:01:13.885+07:00,2.048,100840,41915,0
1783771273885769666,2026-07-11T19:01:13.885+07:00,2.048,100840,41945,0
1783771273885769667,2026-07-11T19:01:13.885+07:00,2.048,100857,41945,0
1783771273885769668,2026-07-11T19:01:13.885+07:00,2.048,100857,41939,0
1783771273885769669,2026-07-11T19:01:13.885+07:00,2.048,100857,41958,0
1783771273885769670,2026-07-11T19:01:13.885+07:00,2.048,100893,41964,0
1783771273885769671,2026-07-11T19:01:13.885+07:00,2.048,100875,41958,0
1783771273885769672,2026-07-11T19:01:13.885+07:00,2.048,100893,41982,0
1783771273885769673,2026-07-11T19:01:13.885+07:00,2.048,100893,41988,0
1783771273885769674,2026-07-11T19:01:13.885+07:00,2.048,100911,42000,0
1783771273928232131,2026-07-11T19:01:13.928+07:00,2.091,100946,42013,0
1783771273928232132,2026-07-11T19:01:13.928+07:00,2.091,100893,42007,0
1783771273928232133,2026-07-11T19:01:13.928+07:00,2.091,100928,42019,0
1783771273928232134,2026-07-11T19:01:13.928+07:00,2.091,100946,42019,0
1783771273928232135,2026-07-11T19:01:13.928+07:00,2.091,100946,42031,0
1783771273928232136,2026-07-11T19:01:13.928+07:00,2.091,100946,42043,0
1783771273928232137,2026-07-11T19:01:13.928+07:00,2.091,100999,42037,0
1783771273928232138,2026-07-11T19:01:13.928+07:00,2.091,100981,42080,0
1783771273928232139,2026-07-11T19:01:13.928+07:00,2.091,101017,42080,0
1783771273928232140,2026-07-11T19:01:13.928+07:00,2.091,100981,42074,0
1783771273928232141,2026-07-11T19:01:13.928+07:00,2.091,100999,42074,0
1783771273928232142,2026-07-11T19:01:13.928+07:00,2.091,100981,42092,0
1783771273928232143,2026-07-11T19:01:13.928+07:00,2.091,101017,42092,0
1783771273928232144,2026-07-11T19:01:13.928+07:00,2.091,100999,42099,0
1783771273928232145,2026-07-11T19:01:13.928+07:00,2.091,101052,42111,0
1783771273928232146,2026-07-11T19:01:13.928+07:00,2.091,101052,42123,0
1783771273928232147,2026-07-11T19:01:13.928+07:00,2.091,101034,42129,0
1783771273965817931,2026-07-11T19:01:13.965+07:00,2.128,101070,42148,0
1783771273965817932,2026-07-11T19:01:13.965+07:00,2.128,101088,42142,0
1783771273965817933,2026-07-11T19:01:13.965+07:00,2.128,101070,42142,0
1783771273965817934,2026-07-11T19:01:13.965+07:00,2.128,101052,42154,0
1783771273965817935,2026-07-11T19:01:13.965+07:00,2.128,101105,42166,0
1783771273965817936,2026-07-11T19:01:13.965+07:00,2.128,101105,42185,0
1783771273965817937,2026-07-11T19:01:13.965+07:00,2.128,101141,42203,0
1783771273965817938,2026-07-11T19:01:13.965+07:00,2.128,101141,42203,0
1783771273965817939,2026-07-11T19:01:13.965+07:00,2.128,101123,42210,0
1783771273965817940,2026-07-11T19:01:13.965+07:00,2.128,101159,42222,0
1783771273965817941,2026-07-11T19:01:13.965+07:00,2.128,101123,42222,0
1783771273965817942,2026-07-11T19:01:13.965+07:00,2.128,101176,42234,0
1783771273965817943,2026-07-11T19:01:13.965+07:00,2.128,101176,42253,0
1783771273965817944,2026-07-11T19:01:13.965+07:00,2.128,101159,42259,0
1783771273965817945,2026-07-11T19:01:13.965+07:00,2.128,101194,42272,0
1783771274008441166,2026-07-11T19:01:14.008+07:00,2.171,101230,42265,0
1783771274008441167,2026-07-11T19:01:14.008+07:00,2.171,101212,42290,0
1783771274008441168,2026-07-11T19:01:14.008+07:00,2.171,101230,42290,0
1783771274008441169,2026-07-11T19:01:14.008+07:00,2.171,101265,42296,0
1783771274008441170,2026-07-11T19:01:14.008+07:00,2.171,101230,42303,0
1783771274008441171,2026-07-11T19:01:14.008+07:00,2.171,101265,42328,0
1783771274008441172,2026-07-11T19:01:14.008+07:00,2.171,101301,42346,0
1783771274008441173,2026-07-11T19:01:14.008+07:00,2.171,101319,42346,0
1783771274008441174,2026-07-11T19:01:14.008+07:00,2.171,101319,42352,0
1783771274008441175,2026-07-11T19:01:14.008+07:00,2.171,101319,42346,0
1783771274008441176,2026-07-11T19:01:14.008+07:00,2.171,101301,42340,0
1783771274008441177,2026-07-11T19:01:14.008+07:00,2.171,101301,42359,0
1783771274008441178,2026-07-11T19:01:14.008+07:00,2.171,101319,42352,0
1783771274008441179,2026-07-11T19:01:14.008+07:00,2.171,101301,42340,0
1783771274008441180,2026-07-11T19:01:14.008+07:00,2.171,101283,42340,0
1783771274008441181,2026-07-11T19:01:14.008+07:00,2.171,101248,42328,0
1783771274008441182,2026-07-11T19:01:14.008+07:00,2.171,101230,42284,0
1783771274050820543,2026-07-11T19:01:14.050+07:00,2.213,101194,42253,0
1783771274050820544,2026-07-11T19:01:14.050+07:00,2.213,101141,42228,0
1783771274050820545,2026-07-11T19:01:14.050+07:00,2.213,101105,42191,0
1783771274050820546,2026-07-11T19:01:14.050+07:00,2.213,101052,42129,0
1783771274050820547,2026-07-11T19:01:14.050+07:00,2.213,100999,42105,0
1783771274050820548,2026-07-11T19:01:14.050+07:00,2.213,100946,42068,0
1783771274050820549,2026-07-11T19:01:14.050+07:00,2.213,100893,42031,0
1783771274050820550,2026-07-11T19:01:14.050+07:00,2.213,100857,41982,0
1783771274050820551,2026-07-11T19:01:14.050+07:00,2.213,100822,41927,0
1783771274050820552,2026-07-11T19:01:14.050+07:00,2.213,100752,41890,0
1783771274050820553,2026-07-11T19:01:14.050+07:00,2.213,100681,41836,0
1783771274050820554,2026-07-11T19:01:14.050+07:00,2.213,100664,41817,0
1783771274050820555,2026-07-11T19:01:14.050+07:00,2.213,100611,41787,0
1783771274050820556,2026-07-11T19:01:14.050+07:00,2.213,100593,41720,0
1783771274050820557,2026-07-11T19:01:14.050+07:00,2.213,100576,41708,0
1783771274050820558,2026-07-11T19:01:14.050+07:00,2.213,100470,41666,0
1783771274050820559,2026-07-11T19:01:14.050+07:00,2.213,100470,41636,0
1783771274092990429,2026-07-11T19:01:14.092+07:00,2.255,100453,41606,0
1783771274092990430,2026-07-11T19:01:14.092+07:00,2.255,100418,41582,0
1783771274092990431,2026-07-11T19:01:14.092+07:00,2.255,100348,41552,0
1783771274092990432,2026-07-11T19:01:14.092+07:00,2.255,100383,41564,0
1783771274092990433,2026-07-11T19:01:14.092+07:00,2.255,100365,41546,0
1783771274092990434,2026-07-11T19:01:14.092+07:00,2.255,100365,41540,0
1783771274092990435,2026-07-11T19:01:14.092+07:00,2.255,100330,41516,0
1783771274092990436,2026-07-11T19:01:14.092+07:00,2.255,100348,41516,0
1783771274092990437,2026-07-11T19:01:14.092+07:00,2.255,100348,41510,0
1783771274092990438,2026-07-11T19:01:14.092+07:00,2.255,100348,41492,0
1783771274092990439,2026-07-11T19:01:14.092+07:00,2.255,100348,41498,0
1783771274092990440,2026-07-11T19:01:14.092+07:00,2.255,100348,41504,0
1783771274092990441,2026-07-11T19:01:14.092+07:00,2.255,100330,41510,0
1783771274092990442,2026-07-11T19:01:14.092+07:00,2.255,100330,41510,0
1783771274092990443,2026-07-11T19:01:14.092+07:00,2.255,100348,41528,0
1783771274092990444,2026-07-11T19:01:14.092+07:00,2.255,100383,41522,0
1783771274092990445,2026-07-11T19:01:14.092+07:00,2.255,100400,41522,0
1783771274135640260,2026-07-11T19:01:14.135+07:00,2.298,100400,41552,0
1783771274135640261,2026-07-11T19:01:14.135+07:00,2.298,100400,41552,0
1783771274135640262,2026-07-11T19:01:14.135+07:00,2.298,100383,41564,0
1783771274135640263,2026-07-11T19:01:14.135+07:00,2.298,100435,41588,0
1783771274135640264,2026-07-11T19:01:14.135+07:00,2.298,100470,41600,0
1783771274135640265,2026-07-11T19:01:14.135+07:00,2.298,100470,41606,0
1783771274135640266,2026-07-11T19:01:14.135+07:00,2.298,100488,41624,0
1783771274135640267,2026-07-11T19:01:14.135+07:00,2.298,100488,41630,0
1783771274135640268,2026-07-11T19:01:14.135+07:00,2.298,100506,41636,0
1783771274135640269,2026-07-11T19:01:14.135+07:00,2.298,100523,41648,0
1783771274135640270,2026-07-11T19:01:14.135+07:00,2.298,100576,41684,0
1783771274135640271,2026-07-11T19:01:14.135+07:00,2.298,100611,41702,0
1783771274135640272,2026-07-11T19:01:14.135+07:00,2.298,100611,41714,0
1783771274135640273,2026-07-11T19:01:14.135+07:00,2.298,100593,41745,0
1783771274135640274,2026-07-11T19:01:14.135+07:00,2.298,100628,41739,0
1783771274135640275,2026-07-11T19:01:14.135+07:00,2.298,100611,41757,0
1783771274135640276,2026-07-11T19:01:14.135+07:00,2.298,100664,41781,0
1783771274175669123,2026-07-11T19:01:14.175+07:00,2.338,100681,41781,0
1783771274175669124,2026-07-11T19:01:14.175+07:00,2.338,100681,41799,0
1783771274175669125,2026-07-11T19:01:14.175+07:00,2.338,100752,41842,0
1783771274175669126,2026-07-11T19:01:14.175+07:00,2.338,100734,41848,0
1783771274175669127,2026-07-11T19:01:14.175+07:00,2.338,100769,41866,0
1783771274175669128,2026-07-11T19:01:14.175+07:00,2.338,100787,41872,0
1783771274175669129,2026-07-11T19:01:14.175+07:00,2.338,100822,41897,0
1783771274175669130,2026-07-11T19:01:14.175+07:00,2.338,100805,41890,0
1783771274175669131,2026-07-11T19:01:14.175+07:00,2.338,100805,41915,0
1783771274175669132,2026-07-11T19:01:14.175+07:00,2.338,100857,41939,0
1783771274175669133,2026-07-11T19:01:14.175+07:00,2.338,100857,41958,0
1783771274175669134,2026-07-11T19:01:14.175+07:00,2.338,100911,41988,0
1783771274175669135,2026-07-11T19:01:14.175+07:00,2.338,100875,41982,0
1783771274175669136,2026-07-11T19:01:14.175+07:00,2.338,100911,42000,0
1783771274175669137,2026-07-11T19:01:14.175+07:00,2.338,100981,42025,0
1783771274175669138,2026-07-11T19:01:14.175+07:00,2.338,100928,42037,0
1783771274218812895,2026-07-11T19:01:14.218+07:00,2.381,100946,42043,0
1783771274218812896,2026-07-11T19:01:14.218+07:00,2.381,100964,42074,0
1783771274218812897,2026-07-11T19:01:14.218+07:00,2.381,100999,42092,0
1783771274218812898,2026-07-11T19:01:14.218+07:00,2.381,101017,42123,0
1783771274218812899,2026-07-11T19:01:14.218+07:00,2.381,101034,42123,0
1783771274218812900,2026-07-11T19:01:14.218+07:00,2.381,101052,42142,0
1783771274218812901,2026-07-11T19:01:14.218+07:00,2.381,101105,42154,0
1783771274218812902,2026-07-11T19:01:14.218+07:00,2.381,101105,42148,0
1783771274218812903,2026-07-11T19:01:14.218+07:00,2.381,101105,42160,0
1783771274218812904,2026-07-11T19:01:14.218+07:00,2.381,101105,42203,0
1783771274218812905,2026-07-11T19:01:14.218+07:00,2.381,101159,42197,0
1783771274218812906,2026-07-11T19:01:14.218+07:00,2.381,101141,42222,0
1783771274218812907,2026-07-11T19:01:14.218+07:00,2.381,101159,42222,0
1783771274218812908,2026-07-11T19:01:14.218+07:00,2.381,101176,42228,0
1783771274218812909,2026-07-11T19:01:14.218+07:00,2.381,101176,42234,0
1783771274218812910,2026-07-11T19:01:14.218+07:00,2.381,101176,42253,0
1783771274218812911,2026-07-11T19:01:14.218+07:00,2.381,101176,42253,0
1783771274264017758,2026-07-11T19:01:14.264+07:00,2.426,101194,42247,0
1783771274264017759,2026-07-11T19:01:14.264+07:00,2.426,101194,42278,0
1783771274264017760,2026-07-11T19:01:14.264+07:00,2.426,101212,42284,0
1783771274264017761,2026-07-11T19:01:14.264+07:00,2.426,101194,42278,0
1783771274264017762,2026-07-11T19:01:14.264+07:00,2.426,101230,42290,0
1783771274264017763,2026-07-11T19:01:14.264+07:00,2.426,101230,42309,0
1783771274264017764,2026-07-11T19:01:14.264+07:00,2.426,101194,42309,0
1783771274264017765,2026-07-11T19:01:14.264+07:00,2.426,101230,42290,0
1783771274264017766,2026-07-11T19:01:14.264+07:00,2.426,101248,42315,0
1783771274264017767,2026-07-11T19:01:14.264+07:00,2.426,101265,42328,0
1783771274264017768,2026-07-11T19:01:14.264+07:00,2.426,101265,42328,0
1783771274264017769,2026-07-11T19:01:14.264+07:00,2.426,101283,42334,0
1783771274264017770,2026-07-11T19:01:14.264+07:00,2.426,101265,42328,0
1783771274264017771,2026-07-11T19:01:14.264+07:00,2.426,101230,42321,0
1783771274264017772,2026-07-11T19:01:14.264+07:00,2.426,101248,42303,0
1783771274264017773,2026-07-11T19:01:14.264+07:00,2.426,101248,42315,0
1783771274264017774,2026-07-11T19:01:14.264+07:00,2.426,101212,42309,0
1783771274302779664,2026-07-11T19:01:14.302+07:00,2.465,101230,42321,0
1783771274302779665,2026-07-11T19:01:14.302+07:00,2.465,101248,42303,0
1783771274302779666,2026-07-11T19:01:14.302+07:00,2.465,101248,42309,0
1783771274302779667,2026-07-11T19:01:14.302+07:00,2.465,101212,42296,0
1783771274302779668,2026-07-11T19:01:14.302+07:00,2.465,101176,42303,0
1783771274302779669,2026-07-11T19:01:14.302+07:00,2.465,101159,42278,0
1783771274302779670,2026-07-11T19:01:14.302+07:00,2.465,101159,42265,0
1783771274302779671,2026-07-11T19:01:14.302+07:00,2.465,101141,42290,0
1783771274302779672,2026-07-11T19:01:14.302+07:00,2.465,101176,42253,0
1783771274302779673,2026-07-11T19:01:14.302+07:00,2.465,101159,42253,0
1783771274302779674,2026-07-11T19:01:14.302+07:00,2.465,101141,42265,0
1783771274302779675,2026-07-11T19:01:14.302+07:00,2.465,101123,42259,0
1783771274302779676,2026-07-11T19:01:14.302+07:00,2.465,101105,42247,0
1783771274302779677,2026-07-11T19:01:14.302+07:00,2.465,101141,42228,0
1783771274302779678,2026-07-11T19:01:14.302+07:00,2.465,101070,42234,0
1783771274302779679,2026-07-11T19:01:14.302+07:00,2.465,101105,42234,0
1783771274302779680,2026-07-11T19:01:14.302+07:00,2.465,101088,42234,0
1783771274345314353,2026-07-11T19:01:14.345+07:00,2.508,101070,42241,0
1783771274345314354,2026-07-11T19:01:14.345+07:00,2.508,101070,42216,0
1783771274345314355,2026-07-11T19:01:14.345+07:00,2.508,101088,42241,0
1783771274345314356,2026-07-11T19:01:14.345+07:00,2.508,101105,42203,0
1783771274345314357,2026-07-11T19:01:14.345+07:00,2.508,101088,42228,0
1783771274345314358,2026-07-11T19:01:14.345+07:00,2.508,101052,42228,0
1783771274345314359,2026-07-11T19:01:14.345+07:00,2.508,101070,42241,0
1783771274345314360,2026-07-11T19:01:14.345+07:00,2.508,101088,42234,0
1783771274345314361,2026-07-11T19:01:14.345+07:00,2.508,101105,42234,0
1783771274345314362,2026-07-11T19:01:14.345+07:00,2.508,101105,42241,0
1783771274345314363,2026-07-11T19:01:14.345+07:00,2.508,101105,42228,0
1783771274345314364,2026-07-11T19:01:14.345+07:00,2.508,101070,42228,0
1783771274345314365,2026-07-11T19:01:14.345+07:00,2.508,101070,42222,0
1783771274345314366,2026-07-11T19:01:14.345+07:00,2.508,101088,42216,0
1783771274345314367,2026-07-11T19:01:14.345+07:00,2.508,101052,42247,0
1783771274345314368,2026-07-11T19:01:14.345+07:00,2.508,101088,42265,0
1783771274345314369,2026-07-11T19:01:14.345+07:00,2.508,101105,42247,0
1783771274382880703,2026-07-11T19:01:14.382+07:00,2.545,101088,42247,0
1783771274382880704,2026-07-11T19:01:14.382+07:00,2.545,101088,42259,0
1783771274382880705,2026-07-11T19:01:14.382+07:00,2.545,101088,42247,0
1783771274382880706,2026-07-11T19:01:14.382+07:00,2.545,101088,42247,0
1783771274382880707,2026-07-11T19:01:14.382+07:00,2.545,101105,42247,0
1783771274382880708,2026-07-11T19:01:14.382+07:00,2.545,101123,42253,0
1783771274382880709,2026-07-11T19:01:14.382+07:00,2.545,101141,42290,0
1783771274382880710,2026-07-11T19:01:14.382+07:00,2.545,101141,42284,0
1783771274382880711,2026-07-11T19:01:14.382+07:00,2.545,101159,42309,0
1783771274382880712,2026-07-11T19:01:14.382+07:00,2.545,101176,42309,0
1783771274382880713,2026-07-11T19:01:14.382+07:00,2.545,101159,42290,0
1783771274382880714,2026-07-11T19:01:14.382+07:00,2.545,101176,42284,0
1783771274382880715,2026-07-11T19:01:14.382+07:00,2.545,101159,42303,0
1783771274382880716,2026-07-11T19:01:14.382+07:00,2.545,101176,42315,0
1783771274382880717,2026-07-11T19:01:14.382+07:00,2.545,101176,42321,0
1783771274425338166,2026-07-11T19:01:14.425+07:00,2.588,101212,42340,0
1783771274425338167,2026-07-11T19:01:14.425+07:00,2.588,101194,42346,0
1783771274425338168,2026-07-11T19:01:14.425+07:00,2.588,101212,42334,0
1783771274425338169,2026-07-11T19:01:14.425+07:00,2.588,101194,42340,0
1783771274425338170,2026-07-11T19:01:14.425+07:00,2.588,101230,42352,0
1783771274425338171,2026-07-11T19:01:14.425+07:00,2.588,101230,42352,0
1783771274425338172,2026-07-11T19:01:14.425+07:00,2.588,101194,42365,0
1783771274425338173,2026-07-11T19:01:14.425+07:00,2.588,101230,42396,0
1783771274425338174,2026-07-11T19:01:14.425+07:00,2.588,101283,42409,0
1783771274425338175,2026-07-11T19:01:14.425+07:00,2.588,101283,42402,0
1783771274425338176,2026-07-11T19:01:14.425+07:00,2.588,101319,42402,0
1783771274425338177,2026-07-11T19:01:14.425+07:00,2.588,101301,42421,0
1783771274425338178,2026-07-11T19:01:14.425+07:00,2.588,101283,42427,0
1783771274425338179,2026-07-11T19:01:14.425+07:00,2.588,101319,42421,0
1783771274425338180,2026-07-11T19:01:14.425+07:00,2.588,101319,42427,0
1783771274425338181,2026-07-11T19:01:14.425+07:00,2.588,101319,42465,0
1783771274425338182,2026-07-11T19:01:14.425+07:00,2.588,101319,42459,0
1783771274467934128,2026-07-11T19:01:14.467+07:00,2.630,101354,42465,0
1783771274467934129,2026-07-11T19:01:14.467+07:00,2.630,101354,42477,0
1783771274467934130,2026-07-11T19:01:14.467+07:00,2.630,101354,42490,0
1783771274467934131,2026-07-11T19:01:14.467+07:00,2.630,101354,42490,0
1783771274467934132,2026-07-11T19:01:14.467+07:00,2.630,101337,42471,0
1783771274467934133,2026-07-11T19:01:14.467+07:00,2.630,101372,42496,0
1783771274467934134,2026-07-11T19:01:14.467+07:00,2.630,101337,42528,0
1783771274467934135,2026-07-11T19:01:14.467+07:00,2.630,101354,42534,0
1783771274467934136,2026-07-11T19:01:14.467+07:00,2.630,101354,42534,0
1783771274467934137,2026-07-11T19:01:14.467+07:00,2.630,101390,42528,0
1783771274467934138,2026-07-11T19:01:14.467+07:00,2.630,101372,42553,0
1783771274467934139,2026-07-11T19:01:14.467+07:00,2.630,101408,42540,0
1783771274467934140,2026-07-11T19:01:14.467+07:00,2.630,101426,42534,0
1783771274467934141,2026-07-11T19:01:14.467+07:00,2.630,101408,42578,0
1783771274467934142,2026-07-11T19:01:14.467+07:00,2.630,101444,42590,0
1783771274467934143,2026-07-11T19:01:14.467+07:00,2.630,101462,42584,0
1783771274467934144,2026-07-11T19:01:14.467+07:00,2.630,101462,42603,0
1783771274510274327,2026-07-11T19:01:14.510+07:00,2.673,101479,42622,0
1783771274510274328,2026-07-11T19:01:14.510+07:00,2.673,101479,42609,0
1783771274510274329,2026-07-11T19:01:14.510+07:00,2.673,101497,42628,0
1783771274510274330,2026-07-11T19:01:14.510+07:00,2.673,101479,42616,0
1783771274510274331,2026-07-11T19:01:14.510+07:00,2.673,101462,42628,0
1783771274510274332,2026-07-11T19:01:14.510+07:00,2.673,101479,42616,0
1783771274510274333,2026-07-11T19:01:14.510+07:00,2.673,101479,42622,0
1783771274510274334,2026-07-11T19:01:14.510+07:00,2.673,101479,42603,0
1783771274510274335,2026-07-11T19:01:14.510+07:00,2.673,101479,42584,0
1783771274510274336,2026-07-11T19:01:14.510+07:00,2.673,101426,42578,0
1783771274510274337,2026-07-11T19:01:14.510+07:00,2.673,101372,42546,0
1783771274510274338,2026-07-11T19:01:14.510+07:00,2.673,101337,42502,0
1783771274510274339,2026-07-11T19:01:14.510+07:00,2.673,101301,42484,0
1783771274510274340,2026-07-11T19:01:14.510+07:00,2.673,101265,42452,0
1783771274510274341,2026-07-11T19:01:14.510+07:00,2.673,101212,42409,0
1783771274510274342,2026-07-11T19:01:14.510+07:00,2.673,101176,42365,0
1783771274510274343,2026-07-11T19:01:14.510+07:00,2.673,101070,42290,0
1783771274550791549,2026-07-11T19:01:14.550+07:00,2.713,101034,42253,0
1783771274550791550,2026-07-11T19:01:14.550+07:00,2.713,100946,42166,0
1783771274550791551,2026-07-11T19:01:14.550+07:00,2.713,100911,42148,0
1783771274550791552,2026-07-11T19:01:14.550+07:00,2.713,100857,42111,0
1783771274550791553,2026-07-11T19:01:14.550+07:00,2.713,100805,42074,0
1783771274550791554,2026-07-11T19:01:14.550+07:00,2.713,100787,42025,0
1783771274550791555,2026-07-11T19:01:14.550+07:00,2.713,100716,42013,0
1783771274550791556,2026-07-11T19:01:14.550+07:00,2.713,100664,41958,0
1783771274550791557,2026-07-11T19:01:14.550+07:00,2.713,100611,41921,0
1783771274550791558,2026-07-11T19:01:14.550+07:00,2.713,100593,41872,0
1783771274550791559,2026-07-11T19:01:14.550+07:00,2.713,100576,41854,0
1783771274550791560,2026-07-11T19:01:14.550+07:00,2.713,100541,41842,0
1783771274550791561,2026-07-11T19:01:14.550+07:00,2.713,100558,41817,0
1783771274550791562,2026-07-11T19:01:14.550+07:00,2.713,100488,41793,0
1783771274550791563,2026-07-11T19:01:14.550+07:00,2.713,100488,41769,0
1783771274550791564,2026-07-11T19:01:14.550+07:00,2.713,100470,41775,0
1783771274550791565,2026-07-11T19:01:14.550+07:00,2.713,100418,41745,0
1783771274592642851,2026-07-11T19:01:14.592+07:00,2.755,100435,41714,0
1783771274592642852,2026-07-11T19:01:14.592+07:00,2.755,100453,41745,0
1783771274592642853,2026-07-11T19:01:14.592+07:00,2.755,100435,41720,0
1783771274592642854,2026-07-11T19:01:14.592+07:00,2.755,100400,41720,0
1783771274592642855,2026-07-11T19:01:14.592+07:00,2.755,100470,41708,0
1783771274592642856,2026-07-11T19:01:14.592+07:00,2.755,100435,41727,0
1783771274592642857,2026-07-11T19:01:14.592+07:00,2.755,100435,41733,0
1783771274592642858,2026-07-11T19:01:14.592+07:00,2.755,100453,41727,0
1783771274592642859,2026-07-11T19:01:14.592+07:00,2.755,100453,41714,0
1783771274592642860,2026-07-11T19:01:14.592+07:00,2.755,100453,41751,0
1783771274592642861,2026-07-11T19:01:14.592+07:00,2.755,100488,41733,0
1783771274592642862,2026-07-11T19:01:14.592+07:00,2.755,100523,41775,0
1783771274592642863,2026-07-11T19:01:14.592+07:00,2.755,100541,41769,0
1783771274592642864,2026-07-11T19:01:14.592+07:00,2.755,100506,41775,0
1783771274592642865,2026-07-11T19:01:14.592+07:00,2.755,100576,41793,0
1783771274592642866,2026-07-11T19:01:14.592+07:00,2.755,100541,41799,0
1783771274635150813,2026-07-11T19:01:14.635+07:00,2.797,100558,41805,0
1783771274635150814,2026-07-11T19:01:14.635+07:00,2.797,100558,41817,0
1783771274635150815,2026-07-11T19:01:14.635+07:00,2.797,100628,41848,0
1783771274635150816,2026-07-11T19:01:14.635+07:00,2.797,100628,41884,0
1783771274635150817,2026-07-11T19:01:14.635+07:00,2.797,100646,41890,0
1783771274635150818,2026-07-11T19:01:14.635+07:00,2.797,100664,41890,0
1783771274635150819,2026-07-11T19:01:14.635+07:00,2.797,100664,41915,0
1783771274635150820,2026-07-11T19:01:14.635+07:00,2.797,100699,41933,0
1783771274635150821,2026-07-11T19:01:14.635+07:00,2.797,100734,41939,0
1783771274635150822,2026-07-11T19:01:14.635+07:00,2.797,100716,41970,0
1783771274635150823,2026-07-11T19:01:14.635+07:00,2.797,100752,41976,0
1783771274635150824,2026-07-11T19:01:14.635+07:00,2.797,100734,41988,0
1783771274635150825,2026-07-11T19:01:14.635+07:00,2.797,100752,42019,0
1783771274635150826,2026-07-11T19:01:14.635+07:00,2.797,100805,42031,0
1783771274635150827,2026-07-11T19:01:14.635+07:00,2.797,100822,42049,0
1783771274635150828,2026-07-11T19:01:14.635+07:00,2.797,100822,42056,0
1783771274635150829,2026-07-11T19:01:14.635+07:00,2.797,100840,42086,0
1783771274677695121,2026-07-11T19:01:14.677+07:00,2.840,100893,42080,0
1783771274677695122,2026-07-11T19:01:14.677+07:00,2.840,100893,42111,0
1783771274677695123,2026-07-11T19:01:14.677+07:00,2.840,100893,42129,0
1783771274677695124,2026-07-11T19:01:14.677+07:00,2.840,100928,42154,0
1783771274677695125,2026-07-11T19:01:14.677+07:00,2.840,100946,42179,0
1783771274677695126,2026-07-11T19:01:14.677+07:00,2.840,100946,42185,0
1783771274677695127,2026-07-11T19:01:14.677+07:00,2.840,100981,42191,0
1783771274677695128,2026-07-11T19:01:14.677+07:00,2.840,100981,42216,0
1783771274677695129,2026-07-11T19:01:14.677+07:00,2.840,100999,42222,0
1783771274677695130,2026-07-11T19:01:14.677+07:00,2.840,101034,42234,0
1783771274677695131,2026-07-11T19:01:14.677+07:00,2.840,101088,42259,0
1783771274677695132,2026-07-11T19:01:14.677+07:00,2.840,101070,42303,0
1783771274677695133,2026-07-11T19:01:14.677+07:00,2.840,101105,42296,0
1783771274677695134,2026-07-11T19:01:14.677+07:00,2.840,101123,42303,0
1783771274677695135,2026-07-11T19:01:14.677+07:00,2.840,101123,42309,0
1783771274677695136,2026-07-11T19:01:14.677+07:00,2.840,101141,42334,0
1783771274677695137,2026-07-11T19:01:14.677+07:00,2.840,101159,42346,0
1783771274720436472,2026-07-11T19:01:14.720+07:00,2.883,101159,42377,0
1783771274720436473,2026-07-11T19:01:14.720+07:00,2.883,101159,42402,0
1783771274720436474,2026-07-11T19:01:14.720+07:00,2.883,101248,42427,0
1783771274720436475,2026-07-11T19:01:14.720+07:00,2.883,101230,42427,0
1783771274720436476,2026-07-11T19:01:14.720+07:00,2.883,101248,42427,0
1783771274720436477,2026-07-11T19:01:14.720+07:00,2.883,101265,42440,0
1783771274720436478,2026-07-11T19:01:14.720+07:00,2.883,101283,42446,0
1783771274720436479,2026-07-11T19:01:14.720+07:00,2.883,101283,42477,0
1783771274720436480,2026-07-11T19:01:14.720+07:00,2.883,101283,42484,0
1783771274720436481,2026-07-11T19:01:14.720+07:00,2.883,101337,42515,0
1783771274720436482,2026-07-11T19:01:14.720+07:00,2.883,101354,42509,0
1783771274720436483,2026-07-11T19:01:14.720+07:00,2.883,101372,42521,0
1783771274720436484,2026-07-11T19:01:14.720+07:00,2.883,101372,42509,0
1783771274720436485,2026-07-11T19:01:14.720+07:00,2.883,101337,42515,0
1783771274720436486,2026-07-11T19:01:14.720+07:00,2.883,101337,42534,0
1783771274720436487,2026-07-11T19:01:14.720+07:00,2.883,101354,42515,0
1783771274720436488,2026-07-11T19:01:14.720+07:00,2.883,101319,42515,0
1783771274758376535,2026-07-11T19:01:14.758+07:00,2.921,101390,42540,0
1783771274758376536,2026-07-11T19:01:14.758+07:00,2.921,101408,42553,0
1783771274758376537,2026-07-11T19:01:14.758+07:00,2.921,101408,42565,0
1783771274758376538,2026-07-11T19:01:14.758+07:00,2.921,101408,42559,0
1783771274758376539,2026-07-11T19:01:14.758+07:00,2.921,101390,42559,0
1783771274758376540,2026-07-11T19:01:14.758+07:00,2.921,101390,42553,0
1783771274758376541,2026-07-11T19:01:14.758+07:00,2.921,101408,42540,0
1783771274758376542,2026-07-11T19:01:14.758+07:00,2.921,101408,42553,0
1783771274758376543,2026-07-11T19:01:14.758+07:00,2.921,101390,42553,0
1783771274758376544,2026-07-11T19:01:14.758+07:00,2.921,101390,42546,0
1783771274758376545,2026-07-11T19:01:14.758+07:00,2.921,101390,42540,0
1783771274758376546,2026-07-11T19:01:14.758+07:00,2.921,101408,42559,0
1783771274758376547,2026-07-11T19:01:14.758+07:00,2.921,101408,42546,0
1783771274758376548,2026-07-11T19:01:14.758+07:00,2.921,101390,42540,0
1783771274758376549,2026-07-11T19:01:14.758+07:00,2.921,101372,42534,0
1783771274799988537,2026-07-11T19:01:14.799+07:00,2.962,101408,42546,0
1783771274799988538,2026-07-11T19:01:14.799+07:00,2.962,101372,42534,0
1783771274799988539,2026-07-11T19:01:14.799+07:00,2.962,101408,42540,0
1783771274799988540,2026-07-11T19:01:14.799+07:00,2.962,101372,42534,0
1783771274799988541,2026-07-11T19:01:14.799+07:00,2.962,101337,42528,0
1783771274799988542,2026-07-11T19:01:14.799+07:00,2.962,101390,42521,0
1783771274799988543,2026-07-11T19:01:14.799+07:00,2.962,101319,42515,0
1783771274799988544,2026-07-11T19:01:14.799+07:00,2.962,101337,42509,0
1783771274799988545,2026-07-11T19:01:14.799+07:00,2.962,101337,42515,0
1783771274799988546,2026-07-11T19:01:14.799+07:00,2.962,101337,42515,0
1783771274799988547,2026-07-11T19:01:14.799+07:00,2.962,101337,42528,0
1783771274799988548,2026-07-11T19:01:14.799+07:00,2.962,101319,42502,0
1783771274799988549,2026-07-11T19:01:14.799+07:00,2.962,101354,42509,0
1783771274799988550,2026-07-11T19:01:14.799+07:00,2.962,101354,42515,0
1783771274799988551,2026-07-11T19:01:14.799+07:00,2.962,101337,42515,0
1783771274799988552,2026-07-11T19:01:14.799+07:00,2.962,101337,42502,0
1783771274799988553,2026-07-11T19:01:14.799+07:00,2.962,101337,42528,0
1783771274840054386,2026-07-11T19:01:14.840+07:00,3.002,101319,42515,0
1783771274840054387,2026-07-11T19:01:14.840+07:00,3.002,101390,42515,0
1783771274840054388,2026-07-11T19:01:14.840+07:00,3.002,101372,42521,0
1783771274840054389,2026-07-11T19:01:14.840+07:00,3.002,101354,42509,0
1783771274840054390,2026-07-11T19:01:14.840+07:00,3.002,101372,42515,0
1783771274840054391,2026-07-11T19:01:14.840+07:00,3.002,101372,42502,0
1783771274840054392,2026-07-11T19:01:14.840+07:00,3.002,101372,42502,0
1783771274840054393,2026-07-11T19:01:14.840+07:00,3.002,101354,42521,0
1783771274840054394,2026-07-11T19:01:14.840+07:00,3.002,101390,42553,0
1783771274840054395,2026-07-11T19:01:14.840+07:00,3.002,101390,42546,0
1783771274840054396,2026-07-11T19:01:14.840+07:00,3.002,101408,42559,0
1783771274840054397,2026-07-11T19:01:14.840+07:00,3.002,101426,42559,0
1783771274840054398,2026-07-11T19:01:14.840+07:00,3.002,101444,42540,0
1783771274840054399,2026-07-11T19:01:14.840+07:00,3.002,101426,42559,0
1783771274840054400,2026-07-11T19:01:14.840+07:00,3.002,101444,42546,0
1783771274840054401,2026-07-11T19:01:14.840+07:00,3.002,101444,42584,0
1783771274882515297,2026-07-11T19:01:14.882+07:00,3.045,101444,42584,0
1783771274882515298,2026-07-11T19:01:14.882+07:00,3.045,101444,42578,0
1783771274882515299,2026-07-11T19:01:14.882+07:00,3.045,101444,42603,0
1783771274882515300,2026-07-11T19:01:14.882+07:00,3.045,101444,42616,0
1783771274882515301,2026-07-11T19:01:14.882+07:00,3.045,101462,42609,0
1783771274882515302,2026-07-11T19:01:14.882+07:00,3.045,101479,42609,0
1783771274882515303,2026-07-11T19:01:14.882+07:00,3.045,101497,42616,0
1783771274882515304,2026-07-11T19:01:14.882+07:00,3.045,101497,42635,0
1783771274882515305,2026-07-11T19:01:14.882+07:00,3.045,101497,42647,0
1783771274882515306,2026-07-11T19:01:14.882+07:00,3.045,101497,42660,0
1783771274882515307,2026-07-11T19:01:14.882+07:00,3.045,101515,42666,0
1783771274882515308,2026-07-11T19:01:14.882+07:00,3.045,101551,42660,0
1783771274882515309,2026-07-11T19:01:14.882+07:00,3.045,101551,42660,0
1783771274882515310,2026-07-11T19:01:14.882+07:00,3.045,101569,42685,0
1783771274882515311,2026-07-11T19:01:14.882+07:00,3.045,101569,42666,0
1783771274882515312,2026-07-11T19:01:14.882+07:00,3.045,101587,42672,0
1783771274882515313,2026-07-11T19:01:14.882+07:00,3.045,101587,42710,0
1783771274925305456,2026-07-11T19:01:14.925+07:00,3.088,101569,42710,0
1783771274925305457,2026-07-11T19:01:14.925+07:00,3.088,101587,42704,0
1783771274925305458,2026-07-11T19:01:14.925+07:00,3.088,101587,42723,0
1783771274925305459,2026-07-11T19:01:14.925+07:00,3.088,101605,42723,0
1783771274925305460,2026-07-11T19:01:14.925+07:00,3.088,101551,42710,0
1783771274925305461,2026-07-11T19:01:14.925+07:00,3.088,101605,42742,0
1783771274925305462,2026-07-11T19:01:14.925+07:00,3.088,101605,42748,0
1783771274925305463,2026-07-11T19:01:14.925+07:00,3.088,101623,42761,0
1783771274925305464,2026-07-11T19:01:14.925+07:00,3.088,101605,42768,0
1783771274925305465,2026-07-11T19:01:14.925+07:00,3.088,101641,42755,0
1783771274925305466,2026-07-11T19:01:14.925+07:00,3.088,101623,42761,0
1783771274925305467,2026-07-11T19:01:14.925+07:00,3.088,101605,42755,0
1783771274925305468,2026-07-11T19:01:14.925+07:00,3.088,101623,42774,0
1783771274925305469,2026-07-11T19:01:14.925+07:00,3.088,101623,42799,0
1783771274925305470,2026-07-11T19:01:14.925+07:00,3.088,101659,42818,0
1783771274925305471,2026-07-11T19:01:14.925+07:00,3.088,101659,42825,0
1783771274925305472,2026-07-11T19:01:14.925+07:00,3.088,101712,42831,0
1783771274965081946,2026-07-11T19:01:14.965+07:00,3.127,101694,42825,0
1783771274965081947,2026-07-11T19:01:14.965+07:00,3.127,101712,42838,0
1783771274965081948,2026-07-11T19:01:14.965+07:00,3.127,101712,42831,0
1783771274965081949,2026-07-11T19:01:14.965+07:00,3.127,101730,42857,0
1783771274965081950,2026-07-11T19:01:14.965+07:00,3.127,101712,42857,0
1783771274965081951,2026-07-11T19:01:14.965+07:00,3.127,101748,42869,0
1783771274965081952,2026-07-11T19:01:14.965+07:00,3.127,101748,42895,0
1783771274965081953,2026-07-11T19:01:14.965+07:00,3.127,101784,42908,0
1783771274965081954,2026-07-11T19:01:14.965+07:00,3.127,101820,42908,0
1783771274965081955,2026-07-11T19:01:14.965+07:00,3.127,101784,42914,0
1783771274965081956,2026-07-11T19:01:14.965+07:00,3.127,101784,42927,0
1783771274965081957,2026-07-11T19:01:14.965+07:00,3.127,101820,42921,0
1783771274965081958,2026-07-11T19:01:14.965+07:00,3.127,101766,42908,0
1783771274965081959,2026-07-11T19:01:14.965+07:00,3.127,101784,42921,0
1783771274965081960,2026-07-11T19:01:14.965+07:00,3.127,101802,42927,0
1783771274965081961,2026-07-11T19:01:14.965+07:00,3.127,101784,42927,0
1783771275007386860,2026-07-11T19:01:15.007+07:00,3.170,101784,42908,0
1783771275007386861,2026-07-11T19:01:15.007+07:00,3.170,101802,42869,0
1783771275007386862,2026-07-11T19:01:15.007+07:00,3.170,101712,42831,0
1783771275007386863,2026-07-11T19:01:15.007+07:00,3.170,101712,42838,0
1783771275007386864,2026-07-11T19:01:15.007+07:00,3.170,101641,42780,0
1783771275007386865,2026-07-11T19:01:15.007+07:00,3.170,101587,42736,0
1783771275007386866,2026-07-11T19:01:15.007+07:00,3.170,101533,42691,0
1783771275007386867,2026-07-11T19:01:15.007+07:00,3.170,101479,42660,0
1783771275007386868,2026-07-11T19:01:15.007+07:00,3.170,101462,42609,0
1783771275007386869,2026-07-11T19:01:15.007+07:00,3.170,101408,42572,0
1783771275007386870,2026-07-11T19:01:15.007+07:00,3.170,101319,42502,0
1783771275007386871,2026-07-11T19:01:15.007+07:00,3.170,101248,42459,0
1783771275007386872,2026-07-11T19:01:15.007+07:00,3.170,101194,42421,0
1783771275007386873,2026-07-11T19:01:15.007+07:00,3.170,101159,42371,0
1783771275007386874,2026-07-11T19:01:15.007+07:00,3.170,101105,42328,0
1783771275007386875,2026-07-11T19:01:15.007+07:00,3.170,101070,42265,0
1783771275007386876,2026-07-11T19:01:15.007+07:00,3.170,101017,42265,0
1783771275049964984,2026-07-11T19:01:15.049+07:00,3.212,100981,42210,0
1783771275049964985,2026-07-11T19:01:15.049+07:00,3.212,100964,42166,0
1783771275049964986,2026-07-11T19:01:15.049+07:00,3.212,100893,42136,0
1783771275049964987,2026-07-11T19:01:15.049+07:00,3.212,100875,42099,0
1783771275049964988,2026-07-11T19:01:15.049+07:00,3.212,100822,42086,0
1783771275049964989,2026-07-11T19:01:15.049+07:00,3.212,100840,42062,0
1783771275049964990,2026-07-11T19:01:15.049+07:00,3.212,100805,42049,0
1783771275049964991,2026-07-11T19:01:15.049+07:00,3.212,100787,42037,0
1783771275049964992,2026-07-11T19:01:15.049+07:00,3.212,100787,42025,0
1783771275049964993,2026-07-11T19:01:15.049+07:00,3.212,100752,42013,0
1783771275049964994,2026-07-11T19:01:15.049+07:00,3.212,100752,42007,0
1783771275049964995,2026-07-11T19:01:15.049+07:00,3.212,100734,41994,0
1783771275049964996,2026-07-11T19:01:15.049+07:00,3.212,100787,42000,0
1783771275049964997,2026-07-11T19:01:15.049+07:00,3.212,100787,41982,0
1783771275049964998,2026-07-11T19:01:15.049+07:00,3.212,100805,42000,0
1783771275049964999,2026-07-11T19:01:15.049+07:00,3.212,100769,42013,0
1783771275049965000,2026-07-11T19:01:15.049+07:00,3.212,100752,42013,0
1783771275092401880,2026-07-11T19:01:15.092+07:00,3.255,100769,41988,0
1783771275092401881,2026-07-11T19:01:15.092+07:00,3.255,100752,42013,0
1783771275092401882,2026-07-11T19:01:15.092+07:00,3.255,100769,42000,0
1783771275092401883,2026-07-11T19:01:15.092+07:00,3.255,100822,42025,0
1783771275092401884,2026-07-11T19:01:15.092+07:00,3.255,100787,42031,0
1783771275092401885,2026-07-11T19:01:15.092+07:00,3.255,100822,42062,0
1783771275092401886,2026-07-11T19:01:15.092+07:00,3.255,100822,42074,0
1783771275092401887,2026-07-11T19:01:15.092+07:00,3.255,100840,42074,0
1783771275092401888,2026-07-11T19:01:15.092+07:00,3.255,100893,42086,0
1783771275092401889,2026-07-11T19:01:15.092+07:00,3.255,100893,42111,0
1783771275092401890,2026-07-11T19:01:15.092+07:00,3.255,100893,42105,0
1783771275092401891,2026-07-11T19:01:15.092+07:00,3.255,100911,42136,0
1783771275092401892,2026-07-11T19:01:15.092+07:00,3.255,100964,42148,0
1783771275092401893,2026-07-11T19:01:15.092+07:00,3.255,100946,42166,0
1783771275092401894,2026-07-11T19:01:15.092+07:00,3.255,100964,42185,0
1783771275092401895,2026-07-11T19:01:15.092+07:00,3.255,100981,42191,0
1783771275092401896,2026-07-11T19:01:15.092+07:00,3.255,101034,42203,0
1783771275134977191,2026-07-11T19:01:15.134+07:00,3.297,101034,42216,0
1783771275134977192,2026-07-11T19:01:15.134+07:00,3.297,101034,42253,0
1783771275134977193,2026-07-11T19:01:15.134+07:00,3.297,101070,42241,0
1783771275134977194,2026-07-11T19:01:15.134+07:00,3.297,101070,42265,0
1783771275134977195,2026-07-11T19:01:15.134+07:00,3.297,101123,42303,0
1783771275134977196,2026-07-11T19:01:15.134+07:00,3.297,101088,42315,0
1783771275134977197,2026-07-11T19:01:15.134+07:00,3.297,101141,42321,0
1783771275134977198,2026-07-11T19:01:15.134+07:00,3.297,101159,42309,0
1783771275134977199,2026-07-11T19:01:15.134+07:00,3.297,101141,42352,0
1783771275134977200,2026-07-11T19:01:15.134+07:00,3.297,101176,42359,0
1783771275134977201,2026-07-11T19:01:15.134+07:00,3.297,101194,42390,0
1783771275134977202,2026-07-11T19:01:15.134+07:00,3.297,101230,42390,0
1783771275134977203,2026-07-11T19:01:15.134+07:00,3.297,101212,42415,0
1783771275134977204,2026-07-11T19:01:15.134+07:00,3.297,101265,42421,0
1783771275134977205,2026-07-11T19:01:15.134+07:00,3.297,101283,42440,0
1783771275134977206,2026-07-11T19:01:15.134+07:00,3.297,101265,42452,0
1783771275134977207,2026-07-11T19:01:15.134+07:00,3.297,101248,42459,0
1783771275172484712,2026-07-11T19:01:15.172+07:00,3.335,101301,42477,0
1783771275172484713,2026-07-11T19:01:15.172+07:00,3.335,101301,42484,0
1783771275172484714,2026-07-11T19:01:15.172+07:00,3.335,101283,42509,0
1783771275172484715,2026-07-11T19:01:15.172+07:00,3.335,101354,42515,0
1783771275172484716,2026-07-11T19:01:15.172+07:00,3.335,101337,42534,0
1783771275172484717,2026-07-11T19:01:15.172+07:00,3.335,101372,42540,0
1783771275172484718,2026-07-11T19:01:15.172+07:00,3.335,101354,42546,0
1783771275172484719,2026-07-11T19:01:15.172+07:00,3.335,101408,42578,0
1783771275172484720,2026-07-11T19:01:15.172+07:00,3.335,101390,42572,0
1783771275172484721,2026-07-11T19:01:15.172+07:00,3.335,101426,42603,0
1783771275172484722,2026-07-11T19:01:15.172+07:00,3.335,101444,42616,0
1783771275172484723,2026-07-11T19:01:15.172+07:00,3.335,101426,42635,0
1783771275172484724,2026-07-11T19:01:15.172+07:00,3.335,101426,42635,0
1783771275172484725,2026-07-11T19:01:15.172+07:00,3.335,101479,42635,0
1783771275172484726,2026-07-11T19:01:15.172+07:00,3.335,101462,42641,0
1783771275214736682,2026-07-11T19:01:15.214+07:00,3.377,101462,42654,0
1783771275214736683,2026-07-11T19:01:15.214+07:00,3.377,101497,42654,0
1783771275214736684,2026-07-11T19:01:15.214+07:00,3.377,101479,42691,0
1783771275214736685,2026-07-11T19:01:15.214+07:00,3.377,101497,42685,0
1783771275214736686,2026-07-11T19:01:15.214+07:00,3.377,101515,42710,0
1783771275214736687,2026-07-11T19:01:15.214+07:00,3.377,101497,42717,0
1783771275214736688,2026-07-11T19:01:15.214+07:00,3.377,101533,42710,0
1783771275214736689,2026-07-11T19:01:15.214+07:00,3.377,101515,42710,0
1783771275214736690,2026-07-11T19:01:15.214+07:00,3.377,101479,42704,0
1783771275214736691,2026-07-11T19:01:15.214+07:00,3.377,101515,42710,0
1783771275214736692,2026-07-11T19:01:15.214+07:00,3.377,101533,42710,0
1783771275214736693,2026-07-11T19:01:15.214+07:00,3.377,101533,42710,0
1783771275214736694,2026-07-11T19:01:15.214+07:00,3.377,101497,42729,0
1783771275214736695,2026-07-11T19:01:15.214+07:00,3.377,101533,42698,0
1783771275214736696,2026-07-11T19:01:15.214+07:00,3.377,101479,42698,0
1783771275214736697,2026-07-11T19:01:15.214+07:00,3.377,101515,42729,0
1783771275214736698,2026-07-11T19:01:15.214+07:00,3.377,101569,42717,0
1783771275257837117,2026-07-11T19:01:15.257+07:00,3.420,101515,42698,0
1783771275257837118,2026-07-11T19:01:15.257+07:00,3.420,101515,42698,0
1783771275257837119,2026-07-11T19:01:15.257+07:00,3.420,101533,42729,0
1783771275257837120,2026-07-11T19:01:15.257+07:00,3.420,101515,42717,0
1783771275257837121,2026-07-11T19:01:15.257+07:00,3.420,101533,42723,0
1783771275257837122,2026-07-11T19:01:15.257+07:00,3.420,101497,42717,0
1783771275257837123,2026-07-11T19:01:15.257+07:00,3.420,101479,42691,0
1783771275257837124,2026-07-11T19:01:15.257+07:00,3.420,101462,42685,0
1783771275257837125,2026-07-11T19:01:15.257+07:00,3.420,101497,42685,0
1783771275257837126,2026-07-11T19:01:15.257+07:00,3.420,101479,42685,0
1783771275257837127,2026-07-11T19:01:15.257+07:00,3.420,101462,42672,0
1783771275257837128,2026-07-11T19:01:15.257+07:00,3.420,101462,42685,0
1783771275257837129,2026-07-11T19:01:15.257+07:00,3.420,101462,42679,0
1783771275257837130,2026-07-11T19:01:15.257+07:00,3.420,101479,42679,0
1783771275257837131,2026-07-11T19:01:15.257+07:00,3.420,101462,42685,0
1783771275257837132,2026-07-11T19:01:15.257+07:00,3.420,101444,42654,0
1783771275257837133,2026-07-11T19:01:15.257+07:00,3.420,101444,42654,0
1783771275299592869,2026-07-11T19:01:15.299+07:00,3.462,101426,42654,0
1783771275299592870,2026-07-11T19:01:15.299+07:00,3.462,101444,42641,0
1783771275299592871,2026-07-11T19:01:15.299+07:00,3.462,101408,42672,0
1783771275299592872,2026-07-11T19:01:15.299+07:00,3.462,101426,42660,0
1783771275299592873,2026-07-11T19:01:15.299+07:00,3.462,101408,42672,0
1783771275299592874,2026-07-11T19:01:15.299+07:00,3.462,101426,42647,0
1783771275299592875,2026-07-11T19:01:15.299+07:00,3.462,101408,42641,0
1783771275299592876,2026-07-11T19:01:15.299+07:00,3.462,101408,42647,0
1783771275299592877,2026-07-11T19:01:15.299+07:00,3.462,101408,42654,0
1783771275299592878,2026-07-11T19:01:15.299+07:00,3.462,101390,42647,0
1783771275299592879,2026-07-11T19:01:15.299+07:00,3.462,101444,42660,0
1783771275299592880,2026-07-11T19:01:15.299+07:00,3.462,101408,42654,0
1783771275299592881,2026-07-11T19:01:15.299+07:00,3.462,101426,42647,0
1783771275299592882,2026-07-11T19:01:15.299+07:00,3.462,101426,42628,0
1783771275299592883,2026-07-11T19:01:15.299+07:00,3.462,101372,42628,0
1783771275299592884,2026-07-11T19:01:15.299+07:00,3.462,101390,42635,0
1783771275299592885,2026-07-11T19:01:15.299+07:00,3.462,101390,42616,0
1783771275351385754,2026-07-11T19:01:15.351+07:00,3.514,101390,42641,0
1783771275351385755,2026-07-11T19:01:15.351+07:00,3.514,101462,42660,0
1783771275351385756,2026-07-11T19:01:15.351+07:00,3.514,101408,42654,0
1783771275351385757,2026-07-11T19:01:15.351+07:00,3.514,101390,42647,0
1783771275351385758,2026-07-11T19:01:15.351+07:00,3.514,101444,42654,0
1783771275351385759,2026-07-11T19:01:15.351+07:00,3.514,101444,42672,0
1783771275351385760,2026-07-11T19:01:15.351+07:00,3.514,101444,42654,0
1783771275351385761,2026-07-11T19:01:15.351+07:00,3.514,101426,42666,0
1783771275351385762,2026-07-11T19:01:15.351+07:00,3.514,101444,42691,0
1783771275351385763,2026-07-11T19:01:15.351+07:00,3.514,101497,42691,0
1783771275351385764,2026-07-11T19:01:15.351+07:00,3.514,101479,42691,0
1783771275351385765,2026-07-11T19:01:15.351+07:00,3.514,101479,42710,0
1783771275351385766,2026-07-11T19:01:15.351+07:00,3.514,101462,42704,0
1783771275351385767,2026-07-11T19:01:15.351+07:00,3.514,101479,42717,0
1783771275351385768,2026-07-11T19:01:15.351+07:00,3.514,101479,42729,0
1783771275351385769,2026-07-11T19:01:15.351+07:00,3.514,101533,42742,0
1783771275351385770,2026-07-11T19:01:15.351+07:00,3.514,101515,42755,0
1783771275382128152,2026-07-11T19:01:15.382+07:00,3.544,101515,42761,0
1783771275382128153,2026-07-11T19:01:15.382+07:00,3.544,101515,42748,0
1783771275382128154,2026-07-11T19:01:15.382+07:00,3.544,101515,42768,0
1783771275382128155,2026-07-11T19:01:15.382+07:00,3.544,101569,42768,0
1783771275382128156,2026-07-11T19:01:15.382+07:00,3.544,101569,42774,0
1783771275382128157,2026-07-11T19:01:15.382+07:00,3.544,101515,42774,0
1783771275382128158,2026-07-11T19:01:15.382+07:00,3.544,101551,42774,0
1783771275382128159,2026-07-11T19:01:15.382+07:00,3.544,101569,42806,0
1783771275382128160,2026-07-11T19:01:15.382+07:00,3.544,101605,42812,0
1783771275382128161,2026-07-11T19:01:15.382+07:00,3.544,101569,42831,0
1783771275382128162,2026-07-11T19:01:15.382+07:00,3.544,101605,42825,0
1783771275382128163,2026-07-11T19:01:15.382+07:00,3.544,101587,42818,0
1783771275382128164,2026-07-11T19:01:15.382+07:00,3.544,101605,42818,0
1783771275382128165,2026-07-11T19:01:15.382+07:00,3.544,101587,42838,0
1783771275382128166,2026-07-11T19:01:15.382+07:00,3.544,101623,42838,0
1783771275382128167,2026-07-11T19:01:15.382+07:00,3.544,101641,42857,0
1783771275424646538,2026-07-11T19:01:15.424+07:00,3.587,101623,42882,0
1783771275424646539,2026-07-11T19:01:15.424+07:00,3.587,101659,42876,0
1783771275424646540,2026-07-11T19:01:15.424+07:00,3.587,101623,42895,0
1783771275424646541,2026-07-11T19:01:15.424+07:00,3.587,101676,42882,0
1783771275424646542,2026-07-11T19:01:15.424+07:00,3.587,101641,42889,0
1783771275424646543,2026-07-11T19:01:15.424+07:00,3.587,101676,42901,0
1783771275424646544,2026-07-11T19:01:15.424+07:00,3.587,101676,42901,0
1783771275424646545,2026-07-11T19:01:15.424+07:00,3.587,101694,42953,0
1783771275424646546,2026-07-11T19:01:15.424+07:00,3.587,101730,42965,0
1783771275424646547,2026-07-11T19:01:15.424+07:00,3.587,101730,42965,0
1783771275424646548,2026-07-11T19:01:15.424+07:00,3.587,101730,42953,0
1783771275424646549,2026-07-11T19:01:15.424+07:00,3.587,101748,42972,0
1783771275424646550,2026-07-11T19:01:15.424+07:00,3.587,101766,42959,0
1783771275424646551,2026-07-11T19:01:15.424+07:00,3.587,101748,42965,0
1783771275424646552,2026-07-11T19:01:15.424+07:00,3.587,101748,42978,0
1783771275424646553,2026-07-11T19:01:15.424+07:00,3.587,101766,43004,0
1783771275424646554,2026-07-11T19:01:15.424+07:00,3.587,101766,42997,0
1783771275467043755,2026-07-11T19:01:15.467+07:00,3.629,101802,42997,0
1783771275467043756,2026-07-11T19:01:15.467+07:00,3.629,101802,42997,0
1783771275467043757,2026-07-11T19:01:15.467+07:00,3.629,101766,42991,0
1783771275467043758,2026-07-11T19:01:15.467+07:00,3.629,101766,42972,0
1783771275467043759,2026-07-11T19:01:15.467+07:00,3.629,101712,42953,0
1783771275467043760,2026-07-11T19:01:15.467+07:00,3.629,101712,42953,0
1783771275467043761,2026-07-11T19:01:15.467+07:00,3.629,101641,42927,0
1783771275467043762,2026-07-11T19:01:15.467+07:00,3.629,101676,42869,0
1783771275467043763,2026-07-11T19:01:15.467+07:00,3.629,101605,42844,0
1783771275467043764,2026-07-11T19:01:15.467+07:00,3.629,101551,42799,0
1783771275467043765,2026-07-11T19:01:15.467+07:00,3.629,101479,42761,0
1783771275467043766,2026-07-11T19:01:15.467+07:00,3.629,101426,42710,0
1783771275467043767,2026-07-11T19:01:15.467+07:00,3.629,101372,42666,0
1783771275467043768,2026-07-11T19:01:15.467+07:00,3.629,101354,42622,0
1783771275467043769,2026-07-11T19:01:15.467+07:00,3.629,101265,42565,0
1783771275467043770,2026-07-11T19:01:15.467+07:00,3.629,101212,42534,0
1783771275467043771,2026-07-11T19:01:15.467+07:00,3.629,101194,42490,0
1783771275512150739,2026-07-11T19:01:15.512+07:00,3.674,101123,42440,0
1783771275512150740,2026-07-11T19:01:15.512+07:00,3.674,101070,42402,0
1783771275512150741,2026-07-11T19:01:15.512+07:00,3.674,101052,42334,0
1783771275512150742,2026-07-11T19:01:15.512+07:00,3.674,100999,42321,0
1783771275512150743,2026-07-11T19:01:15.512+07:00,3.674,100964,42272,0
1783771275512150744,2026-07-11T19:01:15.512+07:00,3.674,100875,42241,0
1783771275512150745,2026-07-11T19:01:15.512+07:00,3.674,100911,42216,0
1783771275512150746,2026-07-11T19:01:15.512+07:00,3.674,100805,42179,0
1783771275512150747,2026-07-11T19:01:15.512+07:00,3.674,100805,42173,0
1783771275512150748,2026-07-11T19:01:15.512+07:00,3.674,100787,42123,0
1783771275512150749,2026-07-11T19:01:15.512+07:00,3.674,100769,42117,0
1783771275512150750,2026-07-11T19:01:15.512+07:00,3.674,100769,42086,0
1783771275512150751,2026-07-11T19:01:15.512+07:00,3.674,100752,42099,0
1783771275512150752,2026-07-11T19:01:15.512+07:00,3.674,100716,42074,0
1783771275512150753,2026-07-11T19:01:15.512+07:00,3.674,100716,42068,0
1783771275512150754,2026-07-11T19:01:15.512+07:00,3.674,100699,42080,0
1783771275512150755,2026-07-11T19:01:15.512+07:00,3.674,100681,42056,0
1783771275549540295,2026-07-11T19:01:15.549+07:00,3.712,100681,42049,0
1783771275549540296,2026-07-11T19:01:15.549+07:00,3.712,100716,42049,0
1783771275549540297,2026-07-11T19:01:15.549+07:00,3.712,100716,42049,0
1783771275549540298,2026-07-11T19:01:15.549+07:00,3.712,100716,42068,0
1783771275549540299,2026-07-11T19:01:15.549+07:00,3.712,100734,42068,0
1783771275549540300,2026-07-11T19:01:15.549+07:00,3.712,100716,42074,0
1783771275549540301,2026-07-11T19:01:15.549+07:00,3.712,100752,42086,0
1783771275549540302,2026-07-11T19:01:15.549+07:00,3.712,100752,42080,0
1783771275549540303,2026-07-11T19:01:15.549+07:00,3.712,100752,42099,0
1783771275549540304,2026-07-11T19:01:15.549+07:00,3.712,100769,42068,0
1783771275549540305,2026-07-11T19:01:15.549+07:00,3.712,100716,42105,0
1783771275549540306,2026-07-11T19:01:15.549+07:00,3.712,100752,42117,0
1783771275549540307,2026-07-11T19:01:15.549+07:00,3.712,100787,42123,0
1783771275549540308,2026-07-11T19:01:15.549+07:00,3.712,100822,42129,0
1783771275549540309,2026-07-11T19:01:15.549+07:00,3.712,100822,42142,0
1783771275549540310,2026-07-11T19:01:15.549+07:00,3.712,100805,42154,0
1783771275549540311,2026-07-11T19:01:15.549+07:00,3.712,100840,42185,0
1783771275589280832,2026-07-11T19:01:15.589+07:00,3.752,100875,42179,0
1783771275589280833,2026-07-11T19:01:15.589+07:00,3.752,100875,42222,0
1783771275589280834,2026-07-11T19:01:15.589+07:00,3.752,100893,42210,0
1783771275589280835,2026-07-11T19:01:15.589+07:00,3.752,100928,42265,0
1783771275589280836,2026-07-11T19:01:15.589+07:00,3.752,100911,42253,0
1783771275589280837,2026-07-11T19:01:15.589+07:00,3.752,100964,42284,0
1783771275589280838,2026-07-11T19:01:15.589+07:00,3.752,100946,42284,0
1783771275589280839,2026-07-11T19:01:15.589+07:00,3.752,100964,42284,0
1783771275589280840,2026-07-11T19:01:15.589+07:00,3.752,100981,42309,0
1783771275589280841,2026-07-11T19:01:15.589+07:00,3.752,100981,42334,0
1783771275589280842,2026-07-11T19:01:15.589+07:00,3.752,100999,42340,0
1783771275589280843,2026-07-11T19:01:15.589+07:00,3.752,101034,42346,0
1783771275589280844,2026-07-11T19:01:15.589+07:00,3.752,101088,42377,0
1783771275589280845,2026-07-11T19:01:15.589+07:00,3.752,101088,42384,0
1783771275589280846,2026-07-11T19:01:15.589+07:00,3.752,101105,42409,0
1783771275631985980,2026-07-11T19:01:15.631+07:00,3.794,101105,42402,0
1783771275631985981,2026-07-11T19:01:15.631+07:00,3.794,101105,42402,0
1783771275631985982,2026-07-11T19:01:15.631+07:00,3.794,101105,42421,0
1783771275631985983,2026-07-11T19:01:15.631+07:00,3.794,101159,42452,0
1783771275631985984,2026-07-11T19:01:15.631+07:00,3.794,101159,42471,0
1783771275631985985,2026-07-11T19:01:15.631+07:00,3.794,101176,42496,0
1783771275631985986,2026-07-11T19:01:15.631+07:00,3.794,101176,42490,0
1783771275631985987,2026-07-11T19:01:15.631+07:00,3.794,101230,42509,0
1783771275631985988,2026-07-11T19:01:15.631+07:00,3.794,101248,42534,0
1783771275631985989,2026-07-11T19:01:15.631+07:00,3.794,101265,42521,0
1783771275631985990,2026-07-11T19:01:15.631+07:00,3.794,101265,42546,0
1783771275631985991,2026-07-11T19:01:15.631+07:00,3.794,101265,42565,0
1783771275631985992,2026-07-11T19:01:15.631+07:00,3.794,101265,42590,0
1783771275631985993,2026-07-11T19:01:15.631+07:00,3.794,101283,42597,0
1783771275631985994,2026-07-11T19:01:15.631+07:00,3.794,101319,42622,0
1783771275631985995,2026-07-11T19:01:15.631+07:00,3.794,101354,42647,0
1783771275631985996,2026-07-11T19:01:15.631+07:00,3.794,101337,42654,0
1783771275674224866,2026-07-11T19:01:15.674+07:00,3.837,101354,42647,0
1783771275674224867,2026-07-11T19:01:15.674+07:00,3.837,101372,42672,0
1783771275674224868,2026-07-11T19:01:15.674+07:00,3.837,101390,42685,0
1783771275674224869,2026-07-11T19:01:15.674+07:00,3.837,101444,42698,0
1783771275674224870,2026-07-11T19:01:15.674+07:00,3.837,101444,42723,0
1783771275674224871,2026-07-11T19:01:15.674+07:00,3.837,101426,42736,0
1783771275674224872,2026-07-11T19:01:15.674+07:00,3.837,101426,42729,0
1783771275674224873,2026-07-11T19:01:15.674+07:00,3.837,101444,42755,0
1783771275674224874,2026-07-11T19:01:15.674+07:00,3.837,101515,42736,0
1783771275674224875,2026-07-11T19:01:15.674+07:00,3.837,101515,42742,0
1783771275674224876,2026-07-11T19:01:15.674+07:00,3.837,101515,42755,0
1783771275674224877,2026-07-11T19:01:15.674+07:00,3.837,101497,42780,0
1783771275674224878,2026-07-11T19:01:15.674+07:00,3.837,101533,42787,0
1783771275674224879,2026-07-11T19:01:15.674+07:00,3.837,101533,42793,0
1783771275674224880,2026-07-11T19:01:15.674+07:00,3.837,101533,42799,0
1783771275674224881,2026-07-11T19:01:15.674+07:00,3.837,101497,42793,0
1783771275674224882,2026-07-11T19:01:15.674+07:00,3.837,101533,42806,0
1783771275674224883,2026-07-11T19:01:15.674+07:00,3.837,101551,42806,0
1783771275719462900,2026-07-11T19:01:15.719+07:00,3.882,101497,42793,0
1783771275719462901,2026-07-11T19:01:15.719+07:00,3.882,101533,42799,0
1783771275719462902,2026-07-11T19:01:15.719+07:00,3.882,101533,42812,0
1783771275719462903,2026-07-11T19:01:15.719+07:00,3.882,101515,42806,0
1783771275719462904,2026-07-11T19:01:15.719+07:00,3.882,101515,42806,0
1783771275719462905,2026-07-11T19:01:15.719+07:00,3.882,101479,42799,0
1783771275719462906,2026-07-11T19:01:15.719+07:00,3.882,101479,42793,0
1783771275719462907,2026-07-11T19:01:15.719+07:00,3.882,101479,42780,0
1783771275719462908,2026-07-11T19:01:15.719+07:00,3.882,101479,42793,0
1783771275719462909,2026-07-11T19:01:15.719+07:00,3.882,101533,42806,0
1783771275719462910,2026-07-11T19:01:15.719+07:00,3.882,101497,42780,0
1783771275719462911,2026-07-11T19:01:15.719+07:00,3.882,101479,42799,0
1783771275719462912,2026-07-11T19:01:15.719+07:00,3.882,101497,42787,0
1783771275719462913,2026-07-11T19:01:15.719+07:00,3.882,101497,42787,0
1783771275719462914,2026-07-11T19:01:15.719+07:00,3.882,101462,42780,0
1783771275719462915,2026-07-11T19:01:15.719+07:00,3.882,101479,42761,0
1783771275719462916,2026-07-11T19:01:15.719+07:00,3.882,101479,42780,0
1783771275758108807,2026-07-11T19:01:15.758+07:00,3.920,101479,42755,0
1783771275758108808,2026-07-11T19:01:15.758+07:00,3.920,101497,42761,0
1783771275758108809,2026-07-11T19:01:15.758+07:00,3.920,101479,42761,0
1783771275758108810,2026-07-11T19:01:15.758+07:00,3.920,101479,42748,0
1783771275758108811,2026-07-11T19:01:15.758+07:00,3.920,101479,42755,0
1783771275758108812,2026-07-11T19:01:15.758+07:00,3.920,101462,42742,0
1783771275758108813,2026-07-11T19:01:15.758+07:00,3.920,101444,42755,0
1783771275758108814,2026-07-11T19:01:15.758+07:00,3.920,101479,42736,0
1783771275758108815,2026-07-11T19:01:15.758+07:00,3.920,101462,42774,0
1783771275758108816,2026-07-11T19:01:15.758+07:00,3.920,101444,42768,0
1783771275758108817,2026-07-11T19:01:15.758+07:00,3.920,101479,42761,0
1783771275758108818,2026-07-11T19:01:15.758+07:00,3.920,101479,42736,0
1783771275758108819,2026-07-11T19:01:15.758+07:00,3.920,101462,42755,0
1783771275758108820,2026-07-11T19:01:15.758+07:00,3.920,101444,42742,0
1783771275758108821,2026-07-11T19:01:15.758+07:00,3.920,101408,42742,0
1783771275799344279,2026-07-11T19:01:15.799+07:00,3.962,101497,42761,0
1783771275799344280,2026-07-11T19:01:15.799+07:00,3.962,101444,42774,0
1783771275799344281,2026-07-11T19:01:15.799+07:00,3.962,101462,42774,0
1783771275799344282,2026-07-11T19:01:15.799+07:00,3.962,101462,42780,0
1783771275799344283,2026-07-11T19:01:15.799+07:00,3.962,101462,42768,0
1783771275799344284,2026-07-11T19:01:15.799+07:00,3.962,101479,42761,0
1783771275799344285,2026-07-11T19:01:15.799+07:00,3.962,101444,42774,0
1783771275799344286,2026-07-11T19:01:15.799+07:00,3.962,101515,42755,0
1783771275799344287,2026-07-11T19:01:15.799+07:00,3.962,101515,42780,0
1783771275799344288,2026-07-11T19:01:15.799+07:00,3.962,101515,42793,0
1783771275799344289,2026-07-11T19:01:15.799+07:00,3.962,101515,42799,0
1783771275799344290,2026-07-11T19:01:15.799+07:00,3.962,101515,42793,0
1783771275799344291,2026-07-11T19:01:15.799+07:00,3.962,101515,42818,0
1783771275799344292,2026-07-11T19:01:15.799+07:00,3.962,101479,42812,0
1783771275799344293,2026-07-11T19:01:15.799+07:00,3.962,101497,42806,0
1783771275799344294,2026-07-11T19:01:15.799+07:00,3.962,101515,42812,0
1783771275799344295,2026-07-11T19:01:15.799+07:00,3.962,101515,42825,0
1783771275839319150,2026-07-11T19:01:15.839+07:00,4.002,101569,42838,0
1783771275839319151,2026-07-11T19:01:15.839+07:00,4.002,101551,42838,0
1783771275839319152,2026-07-11T19:01:15.839+07:00,4.002,101569,42850,0
1783771275839319153,2026-07-11T19:01:15.839+07:00,4.002,101587,42869,0
1783771275839319154,2026-07-11T19:01:15.839+07:00,4.002,101587,42857,0
1783771275839319155,2026-07-11T19:01:15.839+07:00,4.002,101587,42876,0
1783771275839319156,2026-07-11T19:01:15.839+07:00,4.002,101587,42869,0
1783771275839319157,2026-07-11T19:01:15.839+07:00,4.002,101605,42876,0
1783771275839319158,2026-07-11T19:01:15.839+07:00,4.002,101605,42889,0
1783771275839319159,2026-07-11T19:01:15.839+07:00,4.002,101641,42908,0
1783771275839319160,2026-07-11T19:01:15.839+07:00,4.002,101623,42914,0
1783771275839319161,2026-07-11T19:01:15.839+07:00,4.002,101676,42933,0
1783771275839319162,2026-07-11T19:01:15.839+07:00,4.002,101676,42927,0
1783771275839319163,2026-07-11T19:01:15.839+07:00,4.002,101641,42914,0
1783771275839319164,2026-07-11T19:01:15.839+07:00,4.002,101659,42927,0
1783771275839319165,2026-07-11T19:01:15.839+07:00,4.002,101676,42940,0
1783771275881842350,2026-07-11T19:01:15.881+07:00,4.044,101694,42946,0
1783771275881842351,2026-07-11T19:01:15.881+07:00,4.044,101694,42959,0
1783771275881842352,2026-07-11T19:01:15.881+07:00,4.044,101748,42959,0
1783771275881842353,2026-07-11T19:01:15.881+07:00,4.044,101694,42965,0
1783771275881842354,2026-07-11T19:01:15.881+07:00,4.044,101730,42978,0
1783771275881842355,2026-07-11T19:01:15.881+07:00,4.044,101694,42972,0
1783771275881842356,2026-07-11T19:01:15.881+07:00,4.044,101730,42985,0
1783771275881842357,2026-07-11T19:01:15.881+07:00,4.044,101712,43010,0
1783771275881842358,2026-07-11T19:01:15.881+07:00,4.044,101730,43023,0
1783771275881842359,2026-07-11T19:01:15.881+07:00,4.044,101712,43017,0
1783771275881842360,2026-07-11T19:01:15.881+07:00,4.044,101730,43023,0
1783771275881842361,2026-07-11T19:01:15.881+07:00,4.044,101748,43030,0
1783771275881842362,2026-07-11T19:01:15.881+07:00,4.044,101748,43036,0
1783771275881842363,2026-07-11T19:01:15.881+07:00,4.044,101766,43030,0
1783771275881842364,2026-07-11T19:01:15.881+07:00,4.044,101766,43042,0
1783771275881842365,2026-07-11T19:01:15.881+07:00,4.044,101838,43062,0
1783771275881842366,2026-07-11T19:01:15.881+07:00,4.044,101802,43087,0
1783771275924173428,2026-07-11T19:01:15.924+07:00,4.087,101838,43100,0
1783771275924173429,2026-07-11T19:01:15.924+07:00,4.087,101838,43081,0
1783771275924173430,2026-07-11T19:01:15.924+07:00,4.087,101838,43113,0
1783771275924173431,2026-07-11T19:01:15.924+07:00,4.087,101892,43120,0
1783771275924173432,2026-07-11T19:01:15.924+07:00,4.087,101856,43113,0
1783771275924173433,2026-07-11T19:01:15.924+07:00,4.087,101874,43107,0
1783771275924173434,2026-07-11T19:01:15.924+07:00,4.087,101874,43120,0
1783771275924173435,2026-07-11T19:01:15.924+07:00,4.087,101892,43139,0
1783771275924173436,2026-07-11T19:01:15.924+07:00,4.087,101874,43126,0
1783771275924173437,2026-07-11T19:01:15.924+07:00,4.087,101838,43113,0
1783771275924173438,2026-07-11T19:01:15.924+07:00,4.087,101820,43081,0
1783771275924173439,2026-07-11T19:01:15.924+07:00,4.087,101766,43062,0
1783771275924173440,2026-07-11T19:01:15.924+07:00,4.087,101730,43049,0
1783771275924173441,2026-07-11T19:01:15.924+07:00,4.087,101730,43010,0
1783771275924173442,2026-07-11T19:01:15.924+07:00,4.087,101676,42972,0
1783771275924173443,2026-07-11T19:01:15.924+07:00,4.087,101641,42933,0
1783771275924173444,2026-07-11T19:01:15.924+07:00,4.087,101587,42908,0
1783771275961806052,2026-07-11T19:01:15.961+07:00,4.124,101551,42869,0
1783771275961806053,2026-07-11T19:01:15.961+07:00,4.124,101515,42806,0
1783771275961806054,2026-07-11T19:01:15.961+07:00,4.124,101408,42780,0
1783771275961806055,2026-07-11T19:01:15.961+07:00,4.124,101372,42698,0
1783771275961806056,2026-07-11T19:01:15.961+07:00,4.124,101283,42660,0
1783771275961806057,2026-07-11T19:01:15.961+07:00,4.124,101265,42622,0
1783771275961806058,2026-07-11T19:01:15.961+07:00,4.124,101194,42565,0
1783771275961806059,2026-07-11T19:01:15.961+07:00,4.124,101141,42534,0
1783771275961806060,2026-07-11T19:01:15.961+07:00,4.124,101105,42496,0
1783771275961806061,2026-07-11T19:01:15.961+07:00,4.124,101088,42452,0
1783771275961806062,2026-07-11T19:01:15.961+07:00,4.124,101052,42409,0
1783771275961806063,2026-07-11T19:01:15.961+07:00,4.124,100981,42365,0
1783771275961806064,2026-07-11T19:01:15.961+07:00,4.124,100946,42346,0
1783771275961806065,2026-07-11T19:01:15.961+07:00,4.124,100928,42303,0
1783771275961806066,2026-07-11T19:01:15.961+07:00,4.124,100893,42278,0
1783771275999136664,2026-07-11T19:01:15.999+07:00,4.161,100840,42253,0
1783771275999136665,2026-07-11T19:01:15.999+07:00,4.161,100840,42241,0
1783771275999136666,2026-07-11T19:01:15.999+07:00,4.161,100822,42216,0
1783771275999136667,2026-07-11T19:01:15.999+07:00,4.161,100787,42203,0
1783771275999136668,2026-07-11T19:01:15.999+07:00,4.161,100787,42173,0
1783771275999136669,2026-07-11T19:01:15.999+07:00,4.161,100752,42160,0
1783771275999136670,2026-07-11T19:01:15.999+07:00,4.161,100769,42179,0
1783771275999136671,2026-07-11T19:01:15.999+07:00,4.161,100769,42185,0
1783771275999136672,2026-07-11T19:01:15.999+07:00,4.161,100769,42185,0
1783771275999136673,2026-07-11T19:01:15.999+07:00,4.161,100805,42173,0
1783771275999136674,2026-07-11T19:01:15.999+07:00,4.161,100805,42166,0
1783771275999136675,2026-07-11T19:01:15.999+07:00,4.161,100787,42173,0
1783771275999136676,2026-07-11T19:01:15.999+07:00,4.161,100787,42185,0
1783771275999136677,2026-07-11T19:01:15.999+07:00,4.161,100787,42179,0
1783771275999136678,2026-07-11T19:01:15.999+07:00,4.161,100805,42191,0
1783771276042716326,2026-07-11T19:01:16.042+07:00,4.205,100840,42210,0
1783771276042716327,2026-07-11T19:01:16.042+07:00,4.205,100822,42191,0
1783771276042716328,2026-07-11T19:01:16.042+07:00,4.205,100822,42216,0
1783771276042716329,2026-07-11T19:01:16.042+07:00,4.205,100840,42222,0
1783771276042716330,2026-07-11T19:01:16.042+07:00,4.205,100822,42234,0
1783771276042716331,2026-07-11T19:01:16.042+07:00,4.205,100875,42247,0
1783771276042716332,2026-07-11T19:01:16.042+07:00,4.205,100840,42234,0
1783771276042716333,2026-07-11T19:01:16.042+07:00,4.205,100893,42247,0
