host_timestamp_ns,host_timestamp_iso,pmd_timestamp,ppg0,ppg1,ppg2,ambient
1783419149606181660,2026-07-07T17:12:29.606+07:00,540280728112850830,225493,181570,210286,1330
1783419149624363478,2026-07-07T17:12:29.624+07:00,540280728112850830,225504,181631,210357,1362
1783419149642545296,2026-07-07T17:12:29.642+07:00,540280728112850830,225552,181671,210367,1362
1783419149660727114,2026-07-07T17:12:29.660+07:00,540280728112850830,225564,181705,210418,1382
1783419149678908932,2026-07-07T17:12:29.678+07:00,540280728112850830,225712,181672,210453,1409
1783419149697090750,2026-07-07T17:12:29.697+07:00,540280728112850830,225709,181695,210488,1388
1783419149715272568,2026-07-07T17:12:29.715+07:00,540280728112850830,225773,181733,210493,1393
1783419149733454386,2026-07-07T17:12:29.733+07:00,540280728112850830,225839,181716,210526,1349
1783419149751636204,2026-07-07T17:12:29.751+07:00,540280728112850830,225960,181848,210660,1413
1783419149769818022,2026-07-07T17:12:29.769+07:00,540280728112850830,226018,181882,210765,1428
1783419149787999840,2026-07-07T17:12:29.788+07:00,540280728112850830,226114,181965,210738,1399
1783419149806181658,2026-07-07T17:12:29.806+07:00,540280728112850830,226191,182049,210780,1353
1783419149824363476,2026-07-07T17:12:29.824+07:00,540280728112850830,226198,182079,210810,1302
1783419149842545294,2026-07-07T17:12:29.842+07:00,540280728112850830,226295,182083,210780,1353
1783419149860727112,2026-07-07T17:12:29.860+07:00,540280728112850830,226249,182032,210739,1360
1783419149878908930,2026-07-07T17:12:29.878+07:00,540280728112850830,226209,182022,210715,1334
1783419149897090748,2026-07-07T17:12:29.897+07:00,540280728112850830,226177,182017,210638,1360
1783419149915272566,2026-07-07T17:12:29.915+07:00,540280728112850830,226237,181965,210580,1402
1783419149933454384,2026-07-07T17:12:29.933+07:00,540280728112850830,226131,181914,210480,1384
1783419149951636202,2026-07-07T17:12:29.951+07:00,540280728112850830,226155,181955,210470,1393
1783419149969818020,2026-07-07T17:12:29.969+07:00,540280728112850830,226102,181907,210420,1298
1783419149987999838,2026-07-07T17:12:29.988+07:00,540280728112850830,226186,181941,210433,1407
1783419150006181656,2026-07-07T17:12:30.006+07:00,540280728112850830,226203,181871,210402,1352
1783419150024363474,2026-07-07T17:12:30.024+07:00,540280728112850830,226279,181903,210458,1395
1783419150042545292,2026-07-07T17:12:30.042+07:00,540280728112850830,226308,181960,210474,1446
1783419150060727110,2026-07-07T17:12:30.060+07:00,540280728112850830,226437,181993,210449,1374
1783419150078908928,2026-07-07T17:12:30.078+07:00,540280728112850830,226504,182011,210470,1330
1783419150097090746,2026-07-07T17:12:30.097+07:00,540280728112850830,226612,182130,210524,1377
1783419150115272564,2026-07-07T17:12:30.115+07:00,540280728112850830,226653,182211,210547,1369
1783419150133454382,2026-07-07T17:12:30.133+07:00,540280728112850830,226712,182199,210540,1342
1783419150151636200,2026-07-07T17:12:30.151+07:00,540280728112850830,226721,182261,210540,1433
1783419150169818018,2026-07-07T17:12:30.169+07:00,540280728112850830,226655,182239,210439,1356
1783419150187999836,2026-07-07T17:12:30.188+07:00,540280728112850830,226622,182248,210504,1352
1783419150206181654,2026-07-07T17:12:30.206+07:00,540280728112850830,226643,182313,210451,1399
1783419150224363472,2026-07-07T17:12:30.224+07:00,540280728112850830,226662,182193,210446,1410
1783419150242545290,2026-07-07T17:12:30.242+07:00,540280728112850830,226705,182229,210466,1375
1783419150260727108,2026-07-07T17:12:30.260+07:00,540280728112850830,226621,182236,210419,1380
1783419150278908926,2026-07-07T17:12:30.278+07:00,540280728112850830,226687,182208,210349,1401
1783419150297090744,2026-07-07T17:12:30.297+07:00,540280728112850830,226650,182268,210306,1362
1783419150315272562,2026-07-07T17:12:30.315+07:00,540280728112850830,226644,182303,210359,1373
1783419150333454380,2026-07-07T17:12:30.333+07:00,540280728112850830,226600,182293,210332,1366
1783419150351636198,2026-07-07T17:12:30.351+07:00,540280728112850830,226564,182269,210349,1366
1783419150369818016,2026-07-07T17:12:30.369+07:00,540280728895591753,226546,182134,210244,1374
1783419150387999834,2026-07-07T17:12:30.388+07:00,540280728895591753,226482,182201,210167,1366
1783419150406181652,2026-07-07T17:12:30.406+07:00,540280728895591753,226441,182160,210127,1383
1783419150424363470,2026-07-07T17:12:30.424+07:00,540280728895591753,226366,182169,210137,1408
1783419150442545288,2026-07-07T17:12:30.442+07:00,540280728895591753,226348,182096,210094,1396
1783419150460727106,2026-07-07T17:12:30.460+07:00,540280728895591753,226288,182024,210046,1410
1783419150478908924,2026-07-07T17:12:30.478+07:00,540280728895591753,226274,181973,210080,1358
1783419150497090742,2026-07-07T17:12:30.497+07:00,540280728895591753,226163,181879,210027,1331
1783419150515272560,2026-07-07T17:12:30.515+07:00,540280728895591753,226156,181918,210053,1412
1783419150533454378,2026-07-07T17:12:30.533+07:00,540280728895591753,226029,181824,209938,1360
1783419150551636196,2026-07-07T17:12:30.551+07:00,540280728895591753,226006,181790,209951,1334
1783419150569818014,2026-07-07T17:12:30.569+07:00,540280728895591753,226048,181730,209956,1361
1783419150587999832,2026-07-07T17:12:30.588+07:00,540280728895591753,225958,181638,209880,1315
1783419150606181650,2026-07-07T17:12:30.606+07:00,540280728895591753,225894,181589,209791,1343
1783419150624363468,2026-07-07T17:12:30.624+07:00,540280728895591753,225763,181462,209695,1362
1783419150642545286,2026-07-07T17:12:30.642+07:00,540280728895591753,225682,181398,209620,1343
1783419150660727104,2026-07-07T17:12:30.660+07:00,540280728895591753,225665,181374,209542,1384
1783419150678908922,2026-07-07T17:12:30.678+07:00,540280728895591753,225491,181227,209373,1332
1783419150697090740,2026-07-07T17:12:30.697+07:00,540280728895591753,225391,181082,209297,1407
1783419150715272558,2026-07-07T17:12:30.715+07:00,540280728895591753,225217,181001,209109,1344
1783419150733454376,2026-07-07T17:12:30.733+07:00,540280728895591753,225144,180853,209015,1296
1783419150751636194,2026-07-07T17:12:30.751+07:00,540280728895591753,224975,180709,208846,1332
1783419150769818012,2026-07-07T17:12:30.769+07:00,540280728895591753,224923,180660,208814,1391
1783419150787999830,2026-07-07T17:12:30.788+07:00,540280728895591753,224828,180540,208651,1374
1783419150806181648,2026-07-07T17:12:30.806+07:00,540280728895591753,224659,180473,208592,1354
1783419150824363466,2026-07-07T17:12:30.824+07:00,540280728895591753,224506,180342,208458,1357
1783419150842545284,2026-07-07T17:12:30.842+07:00,540280728895591753,224383,180287,208351,1358
1783419150860727102,2026-07-07T17:12:30.860+07:00,540280728895591753,224342,180248,208331,1370
1783419150878908920,2026-07-07T17:12:30.878+07:00,540280728895591753,224173,180167,208205,1338
1783419150897090738,2026-07-07T17:12:30.897+07:00,540280728895591753,224045,180064,208122,1391
1783419150915272556,2026-07-07T17:12:30.915+07:00,540280728895591753,223997,180006,208085,1378
1783419150933454374,2026-07-07T17:12:30.933+07:00,540280728895591753,223914,179907,207991,1348
1783419150951636192,2026-07-07T17:12:30.951+07:00,540280728895591753,223839,179800,207975,1359
1783419150969818010,2026-07-07T17:12:30.969+07:00,540280728895591753,223758,179723,207890,1396
1783419150987999828,2026-07-07T17:12:30.988+07:00,540280728895591753,223659,179640,207697,1388
1783419151006181646,2026-07-07T17:12:31.006+07:00,540280728895591753,223635,179587,207709,1416
1783419151024363464,2026-07-07T17:12:31.024+07:00,540280728895591753,223541,179481,207634,1385
1783419151042545282,2026-07-07T17:12:31.042+07:00,540280728895591753,223439,179348,207545,1393
1783419151060727100,2026-07-07T17:12:31.060+07:00,540280728895591753,223340,179347,207452,1380
1783419151078908918,2026-07-07T17:12:31.078+07:00,540280728895591753,223266,179385,207445,1436
1783419151097090736,2026-07-07T17:12:31.097+07:00,540280728895591753,223271,179262,207389,1443
1783419151115272554,2026-07-07T17:12:31.115+07:00,540280728895591753,223133,179141,207324,1314
1783419151133454372,2026-07-07T17:12:31.133+07:00,540280728895591753,223067,179150,207338,1379
1783419151151636190,2026-07-07T17:12:31.151+07:00,540280729678350986,223046,179123,207296,1375
1783419151169818008,2026-07-07T17:12:31.169+07:00,540280729678350986,223069,179071,207220,1355
1783419151187999826,2026-07-07T17:12:31.188+07:00,540280729678350986,222946,179006,207175,1369
1783419151206181644,2026-07-07T17:12:31.206+07:00,540280729678350986,222895,178993,207199,1361
1783419151224363462,2026-07-07T17:12:31.224+07:00,540280729678350986,222861,178927,207136,1349
1783419151242545280,2026-07-07T17:12:31.242+07:00,540280729678350986,222819,178889,207083,1325
1783419151260727098,2026-07-07T17:12:31.260+07:00,540280729678350986,222773,178921,207123,1359
1783419151278908916,2026-07-07T17:12:31.278+07:00,540280729678350986,222774,178871,207084,1405
1783419151297090734,2026-07-07T17:12:31.297+07:00,540280729678350986,222644,178742,207039,1401
1783419151315272552,2026-07-07T17:12:31.315+07:00,540280729678350986,222597,178747,207010,1374
1783419151333454370,2026-07-07T17:12:31.333+07:00,540280729678350986,222600,178785,207012,1354
1783419151351636188,2026-07-07T17:12:31.351+07:00,540280729678350986,222577,178812,207026,1429
1783419151369818006,2026-07-07T17:12:31.369+07:00,540280729678350986,222649,178776,207122,1424
1783419151387999824,2026-07-07T17:12:31.388+07:00,540280729678350986,222547,178704,207003,1360
1783419151406181642,2026-07-07T17:12:31.406+07:00,540280729678350986,222541,178712,207040,1359
1783419151424363460,2026-07-07T17:12:31.424+07:00,540280729678350986,222556,178671,207039,1330
1783419151442545278,2026-07-07T17:12:31.442+07:00,540280729678350986,222477,178684,206977,1325
1783419151460727096,2026-07-07T17:12:31.460+07:00,540280729678350986,222383,178565,206882,1403
1783419151478908914,2026-07-07T17:12:31.478+07:00,540280729678350986,222337,178486,206851,1372
1783419151497090732,2026-07-07T17:12:31.497+07:00,540280729678350986,222179,178437,206717,1374
1783419151515272550,2026-07-07T17:12:31.515+07:00,540280729678350986,221958,178293,206590,1406
1783419151533454368,2026-07-07T17:12:31.533+07:00,540280729678350986,221799,178105,206417,1389
1783419151551636186,2026-07-07T17:12:31.551+07:00,540280729678350986,221683,178035,206297,1402
1783419151569818004,2026-07-07T17:12:31.569+07:00,540280729678350986,221492,177922,206119,1410
1783419151587999822,2026-07-07T17:12:31.588+07:00,540280729678350986,221440,177865,206158,1358
1783419151606181640,2026-07-07T17:12:31.606+07:00,540280729678350986,221253,177759,206012,1336
1783419151624363458,2026-07-07T17:12:31.624+07:00,540280729678350986,221221,177783,205953,1409
1783419151642545276,2026-07-07T17:12:31.642+07:00,540280729678350986,221078,177597,205847,1382
1783419151660727094,2026-07-07T17:12:31.660+07:00,540280729678350986,220902,177489,205774,1401
1783419151678908912,2026-07-07T17:12:31.678+07:00,540280729678350986,220848,177393,205660,1410
1783419151697090730,2026-07-07T17:12:31.697+07:00,540280729678350986,220790,177320,205578,1438
1783419151715272548,2026-07-07T17:12:31.715+07:00,540280729678350986,220644,177252,205478,1436
1783419151733454366,2026-07-07T17:12:31.733+07:00,540280729678350986,220528,177216,205361,1350
1783419151751636184,2026-07-07T17:12:31.751+07:00,540280729678350986,220416,177085,205266,1374
1783419151769818002,2026-07-07T17:12:31.769+07:00,540280729678350986,220357,177027,205205,1384
1783419151787999820,2026-07-07T17:12:31.788+07:00,540280729678350986,220350,177032,205205,1439
1783419151806181638,2026-07-07T17:12:31.806+07:00,540280729678350986,220264,176921,205110,1390
1783419151824363456,2026-07-07T17:12:31.824+07:00,540280729678350986,220196,176895,205049,1399
1783419151842545274,2026-07-07T17:12:31.842+07:00,540280729678350986,220075,176833,204971,1382
1783419151860727092,2026-07-07T17:12:31.860+07:00,540280729678350986,220067,176781,205001,1436
1783419151878908910,2026-07-07T17:12:31.878+07:00,540280729678350986,220022,176739,204911,1385
1783419151897090728,2026-07-07T17:12:31.897+07:00,540280729678350986,219986,176701,204894,1396
1783419151915272546,2026-07-07T17:12:31.915+07:00,540280729678350986,219909,176601,204802,1420
1783419151933454364,2026-07-07T17:12:31.933+07:00,540280730461056813,219881,176537,204767,1397
1783419151951636182,2026-07-07T17:12:31.951+07:00,540280730461056813,219829,176574,204771,1426
1783419151969818000,2026-07-07T17:12:31.969+07:00,540280730461056813,219874,176588,204803,1399
1783419151987999818,2026-07-07T17:12:31.988+07:00,540280730461056813,219851,176606,204791,1401
1783419152006181636,2026-07-07T17:12:32.006+07:00,540280730461056813,219848,176606,204798,1390
1783419152024363454,2026-07-07T17:12:32.024+07:00,540280730461056813,219801,176529,204772,1361
1783419152042545272,2026-07-07T17:12:32.042+07:00,540280730461056813,219779,176458,204699,1405
1783419152060727090,2026-07-07T17:12:32.060+07:00,540280730461056813,219705,176469,204710,1400
1783419152078908908,2026-07-07T17:12:32.078+07:00,540280730461056813,219750,176470,204698,1366
1783419152097090726,2026-07-07T17:12:32.097+07:00,540280730461056813,219701,176398,204696,1362
1783419152115272544,2026-07-07T17:12:32.115+07:00,540280730461056813,219605,176417,204633,1382
1783419152133454362,2026-07-07T17:12:32.133+07:00,540280730461056813,219547,176351,204588,1382
1783419152151636180,2026-07-07T17:12:32.151+07:00,540280730461056813,219535,176393,204608,1396
1783419152169817998,2026-07-07T17:12:32.169+07:00,540280730461056813,219483,176366,204576,1385
1783419152187999816,2026-07-07T17:12:32.188+07:00,540280730461056813,219465,176327,204569,1367
1783419152206181634,2026-07-07T17:12:32.206+07:00,540280730461056813,219429,176316,204565,1347
1783419152224363452,2026-07-07T17:12:32.224+07:00,540280730461056813,219382,176316,204517,1349
1783419152242545270,2026-07-07T17:12:32.242+07:00,540280730461056813,219240,176213,204434,1362
1783419152260727088,2026-07-07T17:12:32.260+07:00,540280730461056813,219118,176078,204247,1412
1783419152278908906,2026-07-07T17:12:32.278+07:00,540280730461056813,218929,175917,204085,1335
1783419152297090724,2026-07-07T17:12:32.297+07:00,540280730461056813,218815,175754,203952,1306
1783419152315272542,2026-07-07T17:12:32.315+07:00,540280730461056813,218702,175694,203880,1325
1783419152333454360,2026-07-07T17:12:32.333+07:00,540280730461056813,218567,175573,203773,1389
1783419152351636178,2026-07-07T17:12:32.351+07:00,540280730461056813,218498,175491,203686,1404
1783419152369817996,2026-07-07T17:12:32.369+07:00,540280730461056813,218340,175390,203547,1297
1783419152387999814,2026-07-07T17:12:32.388+07:00,540280730461056813,218340,175375,203510,1390
1783419152406181632,2026-07-07T17:12:32.406+07:00,540280730461056813,218268,175318,203463,1441
1783419152424363450,2026-07-07T17:12:32.424+07:00,540280730461056813,218231,175345,203446,1416
1783419152442545268,2026-07-07T17:12:32.442+07:00,540280730461056813,218109,175241,203369,1376
1783419152460727086,2026-07-07T17:12:32.460+07:00,540280730461056813,218053,175197,203328,1341
1783419152478908904,2026-07-07T17:12:32.478+07:00,540280730461056813,218059,175149,203325,1409
1783419152497090722,2026-07-07T17:12:32.497+07:00,540280730461056813,217957,175098,203186,1333
1783419152515272540,2026-07-07T17:12:32.515+07:00,540280730461056813,217894,175049,203212,1377
1783419152533454358,2026-07-07T17:12:32.533+07:00,540280730461056813,217805,174976,203075,1385
1783419152551636176,2026-07-07T17:12:32.551+07:00,540280730461056813,217802,174892,203065,1392
1783419152569817994,2026-07-07T17:12:32.569+07:00,540280730461056813,217691,174863,202920,1396
1783419152587999812,2026-07-07T17:12:32.588+07:00,540280730461056813,217570,174793,202866,1357
1783419152606181630,2026-07-07T17:12:32.606+07:00,540280730461056813,217536,174777,202818,1318
1783419152624363448,2026-07-07T17:12:32.624+07:00,540280730461056813,217541,174707,202829,1386
1783419152642545266,2026-07-07T17:12:32.642+07:00,540280730461056813,217522,174742,202868,1371
1783419152660727084,2026-07-07T17:12:32.660+07:00,540280730461056813,217441,174668,202833,1357
1783419152678908902,2026-07-07T17:12:32.678+07:00,540280730461056813,217434,174635,202827,1369
1783419152697090720,2026-07-07T17:12:32.697+07:00,540280730461056813,217368,174541,202823,1392
1783419152715272538,2026-07-07T17:12:32.715+07:00,540280731261995619,217323,174506,202762,1417
1783419152733454356,2026-07-07T17:12:32.733+07:00,540280731261995619,217235,174490,202693,1443
1783419152751636174,2026-07-07T17:12:32.751+07:00,540280731261995619,217197,174471,202704,1463
1783419152769817992,2026-07-07T17:12:32.769+07:00,540280731261995619,217140,174407,202675,1418
1783419152787999810,2026-07-07T17:12:32.788+07:00,540280731261995619,217088,174370,202583,1399
1783419152806181628,2026-07-07T17:12:32.806+07:00,540280731261995619,216976,174221,202459,1392
1783419152824363446,2026-07-07T17:12:32.824+07:00,540280731261995619,216904,174202,202461,1436
1783419152842545264,2026-07-07T17:12:32.842+07:00,540280731261995619,216957,174178,202469,1388
1783419152860727082,2026-07-07T17:12:32.860+07:00,540280731261995619,216954,174182,202493,1348
1783419152878908900,2026-07-07T17:12:32.878+07:00,540280731261995619,216913,174186,202516,1357
1783419152897090718,2026-07-07T17:12:32.897+07:00,540280731261995619,216927,174157,202525,1383
1783419152915272536,2026-07-07T17:12:32.915+07:00,540280731261995619,216865,174102,202512,1367
1783419152933454354,2026-07-07T17:12:32.933+07:00,540280731261995619,216782,174120,202463,1345
1783419152951636172,2026-07-07T17:12:32.951+07:00,540280731261995619,216792,174026,202341,1425
1783419152969817990,2026-07-07T17:12:32.969+07:00,540280731261995619,216599,173906,202215,1337
1783419152987999808,2026-07-07T17:12:32.988+07:00,540280731261995619,216456,173765,202107,1342
1783419153006181626,2026-07-07T17:12:33.006+07:00,540280731261995619,216325,173684,201939,1419
1783419153024363444,2026-07-07T17:12:33.024+07:00,540280731261995619,216173,173545,201806,1384
1783419153042545262,2026-07-07T17:12:33.042+07:00,540280731261995619,216014,173419,201664,1406
1783419153060727080,2026-07-07T17:12:33.060+07:00,540280731261995619,215957,173397,201549,1380
1783419153078908898,2026-07-07T17:12:33.078+07:00,540280731261995619,215884,173368,201452,1384
1783419153097090716,2026-07-07T17:12:33.097+07:00,540280731261995619,215843,173315,201418,1336
1783419153115272534,2026-07-07T17:12:33.115+07:00,540280731261995619,215792,173245,201303,1343
1783419153133454352,2026-07-07T17:12:33.133+07:00,540280731261995619,215830,173206,201300,1316
1783419153151636170,2026-07-07T17:12:33.151+07:00,540280731261995619,215823,173256,201343,1429
1783419153169817988,2026-07-07T17:12:33.169+07:00,540280731261995619,215741,173184,201246,1354
1783419153187999806,2026-07-07T17:12:33.188+07:00,540280731261995619,215706,173214,201230,1341
1783419153206181624,2026-07-07T17:12:33.206+07:00,540280731261995619,215764,173227,201228,1387
1783419153224363442,2026-07-07T17:12:33.224+07:00,540280731261995619,215704,173159,201232,1338
1783419153242545260,2026-07-07T17:12:33.242+07:00,540280731261995619,215698,173141,201139,1356
1783419153260727078,2026-07-07T17:12:33.260+07:00,540280731261995619,215621,173036,201049,1326
1783419153278908896,2026-07-07T17:12:33.278+07:00,540280731261995619,215606,173035,201044,1326
1783419153297090714,2026-07-07T17:12:33.297+07:00,540280731261995619,215561,173023,200919,1335
1783419153315272532,2026-07-07T17:12:33.315+07:00,540280731261995619,215594,173017,201009,1376
1783419153333454350,2026-07-07T17:12:33.333+07:00,540280731261995619,215545,173020,200941,1350
1783419153351636168,2026-07-07T17:12:33.351+07:00,540280731261995619,215538,172967,200883,1343
1783419153369817986,2026-07-07T17:12:33.369+07:00,540280731261995619,215499,172966,200902,1390
1783419153387999804,2026-07-07T17:12:33.388+07:00,540280731261995619,215511,172938,200839,1356
1783419153406181622,2026-07-07T17:12:33.406+07:00,540280731261995619,215544,172957,200957,1426
1783419153424363440,2026-07-07T17:12:33.424+07:00,540280731261995619,215517,172983,200970,1392
1783419153442545258,2026-07-07T17:12:33.442+07:00,540280731261995619,215527,172972,200963,1414
1783419153460727076,2026-07-07T17:12:33.460+07:00,540280731261995619,215514,172929,200910,1427
1783419153478908894,2026-07-07T17:12:33.478+07:00,540280731261995619,215520,172855,200792,1388
1783419153497090712,2026-07-07T17:12:33.497+07:00,540280731261995619,215524,172917,200874,1384
1783419153515272530,2026-07-07T17:12:33.515+07:00,540280732026468467,215505,172934,200874,1391
1783419153533454348,2026-07-07T17:12:33.533+07:00,540280732026468467,215521,172922,200884,1334
1783419153551636166,2026-07-07T17:12:33.551+07:00,540280732026468467,215550,172981,200864,1386
1783419153569817984,2026-07-07T17:12:33.569+07:00,540280732026468467,215606,173007,200903,1361
1783419153587999802,2026-07-07T17:12:33.588+07:00,540280732026468467,215678,173035,200969,1394
1783419153606181620,2026-07-07T17:12:33.606+07:00,540280732026468467,215697,173069,200918,1377
1783419153624363438,2026-07-07T17:12:33.624+07:00,540280732026468467,215717,173047,200985,1387
1783419153642545256,2026-07-07T17:12:33.642+07:00,540280732026468467,215694,172946,200977,1386
1783419153660727074,2026-07-07T17:12:33.660+07:00,540280732026468467,215722,172959,200997,1413
1783419153678908892,2026-07-07T17:12:33.678+07:00,540280732026468467,215598,172931,200921,1373
1783419153697090710,2026-07-07T17:12:33.697+07:00,540280732026468467,215483,172818,200815,1359
1783419153715272528,2026-07-07T17:12:33.715+07:00,540280732026468467,215296,172611,200566,1362
1783419153733454346,2026-07-07T17:12:33.733+07:00,540280732026468467,215194,172624,200510,1372
1783419153751636164,2026-07-07T17:12:33.751+07:00,540280732026468467,215005,172502,200353,1371
1783419153769817982,2026-07-07T17:12:33.769+07:00,540280732026468467,214983,172515,200339,1412
1783419153787999800,2026-07-07T17:12:33.788+07:00,540280732026468467,214790,172332,200140,1327
1783419153806181618,2026-07-07T17:12:33.806+07:00,540280732026468467,214708,172242,200072,1382
1783419153824363436,2026-07-07T17:12:33.824+07:00,540280732026468467,214551,172178,200015,1392
1783419153842545254,2026-07-07T17:12:33.842+07:00,540280732026468467,214512,172065,199958,1382
1783419153860727072,2026-07-07T17:12:33.860+07:00,540280732026468467,214422,171974,199845,1393
1783419153878908890,2026-07-07T17:12:33.878+07:00,540280732026468467,214206,171820,199722,1340
1783419153897090708,2026-07-07T17:12:33.897+07:00,540280732026468467,214152,171739,199632,1355
1783419153915272526,2026-07-07T17:12:33.915+07:00,540280732026468467,214025,171668,199555,1377
1783419153933454344,2026-07-07T17:12:33.933+07:00,540280732026468467,213967,171595,199522,1386
1783419153951636162,2026-07-07T17:12:33.951+07:00,540280732026468467,213850,171509,199378,1383
1783419153969817980,2026-07-07T17:12:33.969+07:00,540280732026468467,213835,171436,199325,1422
1783419153987999798,2026-07-07T17:12:33.988+07:00,540280732026468467,213726,171388,199297,1408
1783419154006181616,2026-07-07T17:12:34.006+07:00,540280732026468467,213515,171254,199110,1400
1783419154024363434,2026-07-07T17:12:34.024+07:00,540280732026468467,213431,171176,199113,1322
1783419154042545252,2026-07-07T17:12:34.042+07:00,540280732026468467,213445,171228,199121,1407
1783419154060727070,2026-07-07T17:12:34.060+07:00,540280732026468467,213473,171229,199068,1396
1783419154078908888,2026-07-07T17:12:34.078+07:00,540280732026468467,213454,171197,199112,1384
1783419154097090706,2026-07-07T17:12:34.097+07:00,540280732026468467,213285,171148,199007,1384
1783419154115272524,2026-07-07T17:12:34.115+07:00,540280732026468467,213198,171072,198968,1371
1783419154133454342,2026-07-07T17:12:34.133+07:00,540280732026468467,213159,170990,198917,1315
1783419154151636160,2026-07-07T17:12:34.151+07:00,540280732026468467,213113,170942,198855,1322
1783419154169817978,2026-07-07T17:12:34.169+07:00,540280732026468467,213002,170859,198718,1339
1783419154187999796,2026-07-07T17:12:34.188+07:00,540280732026468467,212962,170807,198761,1310
1783419154206181614,2026-07-07T17:12:34.206+07:00,540280732026468467,212903,170855,198692,1349
1783419154224363432,2026-07-07T17:12:34.224+07:00,540280732026468467,212876,170923,198724,1330
1783419154242545250,2026-07-07T17:12:34.242+07:00,540280732026468467,212823,170780,198652,1367
1783419154260727068,2026-07-07T17:12:34.260+07:00,540280732026468467,212862,170819,198651,1365
1783419154278908886,2026-07-07T17:12:34.278+07:00,540280732790941315,212784,170776,198696,1340
1783419154297090704,2026-07-07T17:12:34.297+07:00,540280732790941315,212792,170752,198646,1371
1783419154315272522,2026-07-07T17:12:34.315+07:00,540280732790941315,212725,170731,198634,1342
1783419154333454340,2026-07-07T17:12:34.333+07:00,540280732790941315,212699,170765,198639,1328
1783419154351636158,2026-07-07T17:12:34.351+07:00,540280732790941315,212611,170723,198551,1337
1783419154369817976,2026-07-07T17:12:34.369+07:00,540280732790941315,212590,170602,198482,1314
1783419154387999794,2026-07-07T17:12:34.388+07:00,540280732790941315,212584,170660,198472,1359
1783419154406181612,2026-07-07T17:12:34.406+07:00,540280732790941315,212485,170553,198356,1307
1783419154424363430,2026-07-07T17:12:34.424+07:00,540280732790941315,212359,170509,198263,1360
1783419154442545248,2026-07-07T17:12:34.442+07:00,540280732790941315,212207,170373,198156,1372
1783419154460727066,2026-07-07T17:12:34.460+07:00,540280732790941315,212086,170266,198040,1353
1783419154478908884,2026-07-07T17:12:34.478+07:00,540280732790941315,212033,170223,197910,1370
1783419154497090702,2026-07-07T17:12:34.497+07:00,540280732790941315,211935,170173,197816,1347
1783419154515272520,2026-07-07T17:12:34.515+07:00,540280732790941315,211805,170076,197725,1362
1783419154533454338,2026-07-07T17:12:34.533+07:00,540280732790941315,211748,170016,197652,1327
1783419154551636156,2026-07-07T17:12:34.551+07:00,540280732790941315,211649,169909,197541,1350
1783419154569817974,2026-07-07T17:12:34.569+07:00,540280732790941315,211663,169896,197539,1368
1783419154587999792,2026-07-07T17:12:34.588+07:00,540280732790941315,211559,169811,197473,1313
1783419154606181610,2026-07-07T17:12:34.606+07:00,540280732790941315,211534,169853,197435,1399
1783419154624363428,2026-07-07T17:12:34.624+07:00,540280732790941315,211468,169775,197351,1378
1783419154642545246,2026-07-07T17:12:34.642+07:00,540280732790941315,211355,169706,197278,1351
1783419154660727064,2026-07-07T17:12:34.660+07:00,540280732790941315,211268,169694,197218,1347
1783419154678908882,2026-07-07T17:12:34.678+07:00,540280732790941315,211286,169635,197163,1341
1783419154697090700,2026-07-07T17:12:34.697+07:00,540280732790941315,211231,169581,197155,1358
1783419154715272518,2026-07-07T17:12:34.715+07:00,540280732790941315,211161,169493,197048,1334
1783419154733454336,2026-07-07T17:12:34.733+07:00,540280732790941315,211129,169493,197012,1374
1783419154751636154,2026-07-07T17:12:34.751+07:00,540280732790941315,211032,169488,196925,1342
1783419154769817972,2026-07-07T17:12:34.769+07:00,540280732790941315,211013,169411,196919,1403
1783419154787999790,2026-07-07T17:12:34.788+07:00,540280732790941315,210967,169362,196774,1371
1783419154806181608,2026-07-07T17:12:34.806+07:00,540280732790941315,210892,169346,196817,1327
1783419154824363426,2026-07-07T17:12:34.824+07:00,540280732790941315,210869,169298,196748,1314
1783419154842545244,2026-07-07T17:12:34.842+07:00,540280732790941315,210875,169303,196789,1326
1783419154860727062,2026-07-07T17:12:34.860+07:00,540280732790941315,210794,169223,196727,1318
1783419154878908880,2026-07-07T17:12:34.878+07:00,540280732790941315,210714,169298,196704,1326
1783419154897090698,2026-07-07T17:12:34.897+07:00,540280732790941315,210704,169232,196656,1286
1783419154915272516,2026-07-07T17:12:34.915+07:00,540280732790941315,210666,169121,196660,1259
1783419154933454334,2026-07-07T17:12:34.933+07:00,540280732790941315,210688,169191,196700,1293
1783419154951636152,2026-07-07T17:12:34.951+07:00,540280732790941315,210605,169133,196632,1303
1783419154969817970,2026-07-07T17:12:34.969+07:00,540280732790941315,210688,169187,196664,1347
1783419154987999788,2026-07-07T17:12:34.988+07:00,540280732790941315,210609,169134,196623,1332
1783419155006181606,2026-07-07T17:12:35.006+07:00,540280732790941315,210540,169098,196607,1316
1783419155024363424,2026-07-07T17:12:35.024+07:00,540280732790941315,210576,169113,196588,1337
1783419155042545242,2026-07-07T17:12:35.042+07:00,540280733573647144,210543,169135,196612,1358
1783419155060727060,2026-07-07T17:12:35.060+07:00,540280733573647144,210564,169125,196569,1355
1783419155078908878,2026-07-07T17:12:35.078+07:00,540280733573647144,210443,168974,196454,1296
1783419155097090696,2026-07-07T17:12:35.097+07:00,540280733573647144,210435,168996,196387,1316
1783419155115272514,2026-07-07T17:12:35.115+07:00,540280733573647144,210283,168870,196298,1380
1783419155133454332,2026-07-07T17:12:35.133+07:00,540280733573647144,210250,168818,196260,1394
1783419155151636150,2026-07-07T17:12:35.151+07:00,540280733573647144,210101,168663,196099,1356
1783419155169817968,2026-07-07T17:12:35.169+07:00,540280733573647144,210027,168616,195989,1418
1783419155187999786,2026-07-07T17:12:35.188+07:00,540280733573647144,209839,168482,195868,1320
1783419155206181604,2026-07-07T17:12:35.206+07:00,540280733573647144,209759,168477,195789,1339
1783419155224363422,2026-07-07T17:12:35.224+07:00,540280733573647144,209788,168514,195750,1359
1783419155242545240,2026-07-07T17:12:35.242+07:00,540280733573647144,209792,168444,195732,1347
1783419155260727058,2026-07-07T17:12:35.260+07:00,540280733573647144,209763,168347,195745,1378
1783419155278908876,2026-07-07T17:12:35.278+07:00,540280733573647144,209708,168314,195631,1365
1783419155297090694,2026-07-07T17:12:35.297+07:00,540280733573647144,209672,168319,195570,1337
1783419155315272512,2026-07-07T17:12:35.315+07:00,540280733573647144,209637,168257,195519,1284
1783419155333454330,2026-07-07T17:12:35.333+07:00,540280733573647144,209569,168253,195468,1319
1783419155351636148,2026-07-07T17:12:35.351+07:00,540280733573647144,209518,168255,195451,1383
1783419155369817966,2026-07-07T17:12:35.369+07:00,540280733573647144,209419,168157,195362,1371
1783419155387999784,2026-07-07T17:12:35.388+07:00,540280733573647144,209364,168037,195248,1335
1783419155406181602,2026-07-07T17:12:35.406+07:00,540280733573647144,209391,168110,195289,1369
1783419155424363420,2026-07-07T17:12:35.424+07:00,540280733573647144,209296,168001,195257,1323
1783419155442545238,2026-07-07T17:12:35.442+07:00,540280733573647144,209226,168057,195232,1314
1783419155460727056,2026-07-07T17:12:35.460+07:00,540280733573647144,209241,167987,195115,1368
1783419155478908874,2026-07-07T17:12:35.478+07:00,540280733573647144,209242,168007,195099,1370
1783419155497090692,2026-07-07T17:12:35.497+07:00,540280733573647144,209154,167966,194987,1365
1783419155515272510,2026-07-07T17:12:35.515+07:00,540280733573647144,209213,167961,195062,1378
1783419155533454328,2026-07-07T17:12:35.533+07:00,540280733573647144,209164,167986,195002,1342
1783419155551636146,2026-07-07T17:12:35.551+07:00,540280733573647144,209114,167952,195001,1303
1783419155569817964,2026-07-07T17:12:35.569+07:00,540280733573647144,209205,168019,195052,1341
1783419155587999782,2026-07-07T17:12:35.588+07:00,540280733573647144,209142,167972,195002,1292
1783419155606181600,2026-07-07T17:12:35.606+07:00,540280733573647144,209148,168010,195042,1385
1783419155624363418,2026-07-07T17:12:35.624+07:00,540280733573647144,209214,168058,195053,1372
1783419155642545236,2026-07-07T17:12:35.642+07:00,540280733573647144,209067,168003,194936,1355
1783419155660727054,2026-07-07T17:12:35.660+07:00,540280733573647144,209019,167958,194953,1301
1783419155678908872,2026-07-07T17:12:35.678+07:00,540280733573647144,208971,167874,194878,1371
1783419155697090690,2026-07-07T17:12:35.697+07:00,540280733573647144,208992,167824,194889,1400
1783419155715272508,2026-07-07T17:12:35.715+07:00,540280733573647144,208969,167834,194838,1327
1783419155733454326,2026-07-07T17:12:35.733+07:00,540280733573647144,208958,167924,194844,1345
1783419155751636144,2026-07-07T17:12:35.751+07:00,540280733573647144,208985,167895,194899,1341
1783419155769817962,2026-07-07T17:12:35.769+07:00,540280733573647144,209006,167967,194945,1298
1783419155787999780,2026-07-07T17:12:35.788+07:00,540280733573647144,209032,167967,194971,1359
1783419155806181598,2026-07-07T17:12:35.806+07:00,540280733573647144,209049,167954,194959,1380
1783419155824363416,2026-07-07T17:12:35.824+07:00,540280734392718214,208934,167891,194899,1336
1783419155842545234,2026-07-07T17:12:35.842+07:00,540280734392718214,208883,167772,194796,1315
1783419155860727052,2026-07-07T17:12:35.860+07:00,540280734392718214,208782,167700,194653,1410
1783419155878908870,2026-07-07T17:12:35.878+07:00,540280734392718214,208609,167590,194577,1306
1783419155897090688,2026-07-07T17:12:35.897+07:00,540280734392718214,208517,167570,194450,1362
1783419155915272506,2026-07-07T17:12:35.915+07:00,540280734392718214,208394,167409,194355,1349
1783419155933454324,2026-07-07T17:12:35.933+07:00,540280734392718214,208281,167286,194232,1384
1783419155951636142,2026-07-07T17:12:35.951+07:00,540280734392718214,208174,167249,194116,1340
1783419155969817960,2026-07-07T17:12:35.969+07:00,540280734392718214,208094,167209,194070,1394
1783419155987999778,2026-07-07T17:12:35.988+07:00,540280734392718214,207929,167052,193974,1376
1783419156006181596,2026-07-07T17:12:36.006+07:00,540280734392718214,207836,166963,193892,1337
1783419156024363414,2026-07-07T17:12:36.024+07:00,540280734392718214,207818,166820,193797,1322
1783419156042545232,2026-07-07T17:12:36.042+07:00,540280734392718214,207735,166798,193744,1355
1783419156060727050,2026-07-07T17:12:36.060+07:00,540280734392718214,207713,166774,193711,1392
1783419156078908868,2026-07-07T17:12:36.078+07:00,540280734392718214,207629,166667,193650,1373
1783419156097090686,2026-07-07T17:12:36.097+07:00,540280734392718214,207573,166637,193529,1420
1783419156115272504,2026-07-07T17:12:36.115+07:00,540280734392718214,207489,166560,193479,1372
1783419156133454322,2026-07-07T17:12:36.133+07:00,540280734392718214,207458,166519,193472,1401
1783419156151636140,2026-07-07T17:12:36.151+07:00,540280734392718214,207332,166441,193390,1359
1783419156169817958,2026-07-07T17:12:36.169+07:00,540280734392718214,207233,166420,193280,1384
1783419156187999776,2026-07-07T17:12:36.188+07:00,540280734392718214,207155,166350,193204,1382
1783419156206181594,2026-07-07T17:12:36.206+07:00,540280734392718214,207033,166235,193116,1344
1783419156224363412,2026-07-07T17:12:36.224+07:00,540280734392718214,207016,166202,193120,1355
1783419156242545230,2026-07-07T17:12:36.242+07:00,540280734392718214,207000,166135,193014,1331
1783419156260727048,2026-07-07T17:12:36.260+07:00,540280734392718214,206885,166060,192953,1289
1783419156278908866,2026-07-07T17:12:36.278+07:00,540280734392718214,206894,166075,192961,1341
1783419156297090684,2026-07-07T17:12:36.297+07:00,540280734392718214,206839,166011,192929,1328
1783419156315272502,2026-07-07T17:12:36.315+07:00,540280734392718214,206795,166027,192915,1343
1783419156333454320,2026-07-07T17:12:36.333+07:00,540280734392718214,206701,165955,192882,1371
1783419156351636138,2026-07-07T17:12:36.351+07:00,540280734392718214,206665,165862,192779,1272
1783419156369817956,2026-07-07T17:12:36.369+07:00,540280734392718214,206685,165875,192814,1343
1783419156387999774,2026-07-07T17:12:36.388+07:00,540280734392718214,206651,165808,192709,1325
1783419156406181592,2026-07-07T17:12:36.406+07:00,540280734392718214,206603,165781,192676,1331
1783419156424363410,2026-07-07T17:12:36.424+07:00,540280734392718214,206615,165730,192682,1337
1783419156442545228,2026-07-07T17:12:36.442+07:00,540280734392718214,206528,165726,192703,1340
1783419156460727046,2026-07-07T17:12:36.460+07:00,540280734392718214,206519,165755,192656,1344
1783419156478908864,2026-07-07T17:12:36.478+07:00,540280734392718214,206527,165668,192644,1331
1783419156497090682,2026-07-07T17:12:36.497+07:00,540280734392718214,206513,165702,192659,1267
1783419156515272500,2026-07-07T17:12:36.515+07:00,540280734392718214,206454,165668,192594,1365
1783419156533454318,2026-07-07T17:12:36.533+07:00,540280734392718214,206439,165587,192556,1345
1783419156551636136,2026-07-07T17:12:36.551+07:00,540280734392718214,206363,165579,192474,1320
1783419156569817954,2026-07-07T17:12:36.569+07:00,540280734392718214,206279,165591,192407,1408
1783419156587999772,2026-07-07T17:12:36.588+07:00,540280734392718214,206205,165485,192252,1304
1783419156606181590,2026-07-07T17:12:36.606+07:00,540280734392718214,206178,165475,192270,1320
1783419156624363408,2026-07-07T17:12:36.624+07:00,540280734392718214,206139,165361,192155,1340
1783419156642545226,2026-07-07T17:12:36.642+07:00,540280735157261259,206152,165332,192106,1307
1783419156660727044,2026-07-07T17:12:36.660+07:00,540280735157261259,206111,165307,192060,1302
1783419156678908862,2026-07-07T17:12:36.678+07:00,540280735157261259,206009,165291,191967,1327
1783419156697090680,2026-07-07T17:12:36.697+07:00,540280735157261259,205971,165234,191895,1337
1783419156715272498,2026-07-07T17:12:36.715+07:00,540280735157261259,205948,165176,191907,1386
1783419156733454316,2026-07-07T17:12:36.733+07:00,540280735157261259,205940,165167,191829,1336
1783419156751636134,2026-07-07T17:12:36.751+07:00,540280735157261259,205948,165104,191819,1332
1783419156769817952,2026-07-07T17:12:36.769+07:00,540280735157261259,205801,165057,191772,1335
1783419156787999770,2026-07-07T17:12:36.788+07:00,540280735157261259,205800,165022,191694,1385
1783419156806181588,2026-07-07T17:12:36.806+07:00,540280735157261259,205650,164940,191615,1323
1783419156824363406,2026-07-07T17:12:36.824+07:00,540280735157261259,205536,164853,191529,1342
1783419156842545224,2026-07-07T17:12:36.842+07:00,540280735157261259,205391,164796,191470,1311
1783419156860727042,2026-07-07T17:12:36.860+07:00,540280735157261259,205310,164655,191373,1338
1783419156878908860,2026-07-07T17:12:36.878+07:00,540280735157261259,205254,164527,191304,1374
1783419156897090678,2026-07-07T17:12:36.897+07:00,540280735157261259,205194,164497,191258,1383
1783419156915272496,2026-07-07T17:12:36.915+07:00,540280735157261259,205163,164431,191200,1334
1783419156933454314,2026-07-07T17:12:36.933+07:00,540280735157261259,205066,164330,191138,1308
1783419156951636132,2026-07-07T17:12:36.951+07:00,540280735157261259,204958,164288,191077,1370
1783419156969817950,2026-07-07T17:12:36.969+07:00,540280735157261259,205048,164288,191032,1416
1783419156987999768,2026-07-07T17:12:36.988+07:00,540280735157261259,204932,164189,191003,1339
1783419157006181586,2026-07-07T17:12:37.006+07:00,540280735157261259,204869,164173,190983,1367
1783419157024363404,2026-07-07T17:12:37.024+07:00,540280735157261259,204896,164130,190995,1376
1783419157042545222,2026-07-07T17:12:37.042+07:00,540280735157261259,204873,164086,190916,1368
1783419157060727040,2026-07-07T17:12:37.060+07:00,540280735157261259,204884,163958,190793,1359
1783419157078908858,2026-07-07T17:12:37.078+07:00,540280735157261259,204856,163957,190783,1413
1783419157097090676,2026-07-07T17:12:37.097+07:00,540280735157261259,204876,163912,190800,1379
1783419157115272494,2026-07-07T17:12:37.115+07:00,540280735157261259,204849,163871,190749,1362
1783419157133454312,2026-07-07T17:12:37.133+07:00,540280735157261259,204818,163852,190701,1342
1783419157151636130,2026-07-07T17:12:37.151+07:00,540280735157261259,204843,163829,190668,1371
1783419157169817948,2026-07-07T17:12:37.169+07:00,540280735157261259,204811,163823,190641,1355
1783419157187999766,2026-07-07T17:12:37.188+07:00,540280735157261259,204806,163734,190590,1354
1783419157206181584,2026-07-07T17:12:37.206+07:00,540280735157261259,204754,163683,190537,1343
1783419157224363402,2026-07-07T17:12:37.224+07:00,540280735157261259,204759,163621,190485,1374
1783419157242545220,2026-07-07T17:12:37.242+07:00,540280735157261259,204752,163661,190466,1406
1783419157260727038,2026-07-07T17:12:37.260+07:00,540280735157261259,204765,163661,190491,1358
1783419157278908856,2026-07-07T17:12:37.278+07:00,540280735157261259,204790,163633,190403,1368
1783419157297090674,2026-07-07T17:12:37.297+07:00,540280735157261259,204732,163519,190327,1315
1783419157315272492,2026-07-07T17:12:37.315+07:00,540280735157261259,204705,163471,190234,1325
1783419157333454310,2026-07-07T17:12:37.333+07:00,540280735157261259,204598,163367,190101,1279
1783419157351636128,2026-07-07T17:12:37.351+07:00,540280735157261259,204532,163245,189906,1328
1783419157369817946,2026-07-07T17:12:37.369+07:00,540280735157261259,204468,163181,189799,1330
1783419157387999764,2026-07-07T17:12:37.388+07:00,540280735157261259,204409,163066,189670,1323
1783419157406181582,2026-07-07T17:12:37.406+07:00,540280735976393372,204401,163056,189584,1313
1783419157424363400,2026-07-07T17:12:37.424+07:00,540280735976393372,204379,162998,189497,1345
1783419157442545218,2026-07-07T17:12:37.442+07:00,540280735976393372,204401,162929,189360,1290
1783419157460727036,2026-07-07T17:12:37.460+07:00,540280735976393372,204387,162925,189360,1292
1783419157478908854,2026-07-07T17:12:37.478+07:00,540280735976393372,204430,162906,189365,1350
1783419157497090672,2026-07-07T17:12:37.497+07:00,540280735976393372,204431,162867,189261,1338
1783419157515272490,2026-07-07T17:12:37.515+07:00,540280735976393372,204446,162851,189192,1360
1783419157533454308,2026-07-07T17:12:37.533+07:00,540280735976393372,204546,162904,189169,1336
1783419157551636126,2026-07-07T17:12:37.551+07:00,540280735976393372,204486,162885,189104,1339
1783419157569817944,2026-07-07T17:12:37.569+07:00,540280735976393372,204498,162841,189057,1274
1783419157587999762,2026-07-07T17:12:37.588+07:00,540280735976393372,204501,162802,189027,1368
1783419157606181580,2026-07-07T17:12:37.606+07:00,540280735976393372,204608,162821,189002,1350
1783419157624363398,2026-07-07T17:12:37.624+07:00,540280735976393372,204596,162851,189015,1422
1783419157642545216,2026-07-07T17:12:37.642+07:00,540280735976393372,204660,162838,188939,1343
1783419157660727034,2026-07-07T17:12:37.660+07:00,540280735976393372,204653,162845,188977,1354
1783419157678908852,2026-07-07T17:12:37.678+07:00,540280735976393372,204755,162887,188937,1389
1783419157697090670,2026-07-07T17:12:37.697+07:00,540280735976393372,204866,162920,188980,1366
1783419157715272488,2026-07-07T17:12:37.715+07:00,540280735976393372,204892,162902,188909,1333
1783419157733454306,2026-07-07T17:12:37.733+07:00,540280735976393372,204922,162920,188892,1260
1783419157751636124,2026-07-07T17:12:37.751+07:00,540280735976393372,205029,163007,188931,1286
1783419157769817942,2026-07-07T17:12:37.769+07:00,540280735976393372,205091,162998,188944,1344
1783419157787999760,2026-07-07T17:12:37.788+07:00,540280735976393372,205110,163055,188965,1328
1783419157806181578,2026-07-07T17:12:37.806+07:00,540280735976393372,205195,163073,189020,1435
1783419157824363396,2026-07-07T17:12:37.824+07:00,540280735976393372,205229,163115,188992,1343
1783419157842545214,2026-07-07T17:12:37.842+07:00,540280735976393372,205225,163114,188961,1392
1783419157860727032,2026-07-07T17:12:37.860+07:00,540280735976393372,205212,163045,188902,1327
1783419157878908850,2026-07-07T17:12:37.878+07:00,540280735976393372,205282,163049,188921,1384
1783419157897090668,2026-07-07T17:12:37.897+07:00,540280735976393372,205368,163106,188961,1390
1783419157915272486,2026-07-07T17:12:37.915+07:00,540280735976393372,205320,163112,188974,1403
1783419157933454304,2026-07-07T17:12:37.933+07:00,540280735976393372,205275,163089,188909,1360
1783419157951636122,2026-07-07T17:12:37.951+07:00,540280735976393372,205309,163042,188917,1366
1783419157969817940,2026-07-07T17:12:37.969+07:00,540280735976393372,205297,162994,188836,1350
1783419157987999758,2026-07-07T17:12:37.988+07:00,540280735976393372,205256,163023,188827,1380
1783419158006181576,2026-07-07T17:12:38.006+07:00,540280735976393372,205106,162895,188711,1356
1783419158024363394,2026-07-07T17:12:38.024+07:00,540280735976393372,204999,162783,188571,1355
1783419158042545212,2026-07-07T17:12:38.042+07:00,540280735976393372,204854,162662,188417,1372
1783419158060727030,2026-07-07T17:12:38.060+07:00,540280735976393372,204711,162589,188292,1409
1783419158078908848,2026-07-07T17:12:38.078+07:00,540280735976393372,204571,162486,188118,1397
1783419158097090666,2026-07-07T17:12:38.097+07:00,540280735976393372,204394,162379,187999,1399
1783419158115272484,2026-07-07T17:12:38.115+07:00,540280735976393372,204307,162337,187926,1404
1783419158133454302,2026-07-07T17:12:38.133+07:00,540280735976393372,204155,162269,187879,1410
1783419158151636120,2026-07-07T17:12:38.151+07:00,540280735976393372,203941,162171,187680,1369
1783419158169817938,2026-07-07T17:12:38.169+07:00,540280735976393372,203834,162170,187611,1395
1783419158187999756,2026-07-07T17:12:38.188+07:00,540280735976393372,203731,162107,187540,1403
1783419158206181574,2026-07-07T17:12:38.206+07:00,540280735976393372,203683,162094,187470,1370
1783419158224363392,2026-07-07T17:12:38.224+07:00,540280736740899790,203526,161989,187351,1354
1783419158242545210,2026-07-07T17:12:38.242+07:00,540280736740899790,203434,161983,187338,1354
1783419158260727028,2026-07-07T17:12:38.260+07:00,540280736740899790,203373,161969,187257,1354
1783419158278908846,2026-07-07T17:12:38.278+07:00,540280736740899790,203284,161923,187194,1397
1783419158297090664,2026-07-07T17:12:38.297+07:00,540280736740899790,203175,161805,187056,1376
1783419158315272482,2026-07-07T17:12:38.315+07:00,540280736740899790,203143,161842,187044,1386
1783419158333454300,2026-07-07T17:12:38.333+07:00,540280736740899790,203055,161777,186905,1324
1783419158351636118,2026-07-07T17:12:38.351+07:00,540280736740899790,203024,161806,186874,1287
1783419158369817936,2026-07-07T17:12:38.369+07:00,540280736740899790,203020,161841,186904,1351
1783419158387999754,2026-07-07T17:12:38.388+07:00,540280736740899790,203084,161908,186916,1331
1783419158406181572,2026-07-07T17:12:38.406+07:00,540280736740899790,203127,162019,186906,1310
1783419158424363390,2026-07-07T17:12:38.424+07:00,540280736740899790,203109,162057,186889,1326
1783419158442545208,2026-07-07T17:12:38.442+07:00,540280736740899790,203323,162199,187037,1375
1783419158460727026,2026-07-07T17:12:38.460+07:00,540280736740899790,203382,162302,187078,1333
1783419158478908844,2026-07-07T17:12:38.478+07:00,540280736740899790,203499,162390,187076,1335
1783419158497090662,2026-07-07T17:12:38.497+07:00,540280736740899790,203611,162465,187201,1385
1783419158515272480,2026-07-07T17:12:38.515+07:00,540280736740899790,203745,162498,187232,1327
1783419158533454298,2026-07-07T17:12:38.533+07:00,540280736740899790,203859,162665,187313,1374
1783419158551636116,2026-07-07T17:12:38.551+07:00,540280736740899790,203901,162746,187393,1335
1783419158569817934,2026-07-07T17:12:38.569+07:00,540280736740899790,204006,162889,187504,1343
1783419158587999752,2026-07-07T17:12:38.588+07:00,540280736740899790,204138,162981,187629,1369
1783419158606181570,2026-07-07T17:12:38.606+07:00,540280736740899790,204192,163058,187620,1342
1783419158624363388,2026-07-07T17:12:38.624+07:00,540280736740899790,204332,163200,187764,1370
1783419158642545206,2026-07-07T17:12:38.642+07:00,540280736740899790,204480,163267,187814,1357
1783419158660727024,2026-07-07T17:12:38.660+07:00,540280736740899790,204597,163449,187902,1340
1783419158678908842,2026-07-07T17:12:38.678+07:00,540280736740899790,204819,163580,188115,1365
1783419158697090660,2026-07-07T17:12:38.697+07:00,540280736740899790,204878,163732,188171,1303
1783419158715272478,2026-07-07T17:12:38.715+07:00,540280736740899790,205003,163845,188332,1319
1783419158733454296,2026-07-07T17:12:38.733+07:00,540280736740899790,205121,163961,188415,1347
1783419158751636114,2026-07-07T17:12:38.751+07:00,540280736740899790,205221,164087,188469,1307
1783419158769817932,2026-07-07T17:12:38.769+07:00,540280736740899790,205282,164150,188484,1361
1783419158787999750,2026-07-07T17:12:38.788+07:00,540280736740899790,205342,164177,188474,1355
1783419158806181568,2026-07-07T17:12:38.806+07:00,540280736740899790,205368,164223,188515,1355
1783419158824363386,2026-07-07T17:12:38.824+07:00,540280736740899790,205475,164305,188602,1353
1783419158842545204,2026-07-07T17:12:38.842+07:00,540280736740899790,205490,164336,188608,1313
1783419158860727022,2026-07-07T17:12:38.860+07:00,540280736740899790,205606,164507,188696,1341
1783419158878908840,2026-07-07T17:12:38.878+07:00,540280736740899790,205695,164622,188799,1352
1783419158897090658,2026-07-07T17:12:38.897+07:00,540280736740899790,205854,164695,188921,1348
1783419158915272476,2026-07-07T17:12:38.915+07:00,540280736740899790,205990,164854,189004,1334
1783419158933454294,2026-07-07T17:12:38.933+07:00,540280736740899790,206138,164956,189131,1359
1783419158951636112,2026-07-07T17:12:38.951+07:00,540280736740899790,206289,165051,189247,1292
1783419158969817930,2026-07-07T17:12:38.969+07:00,540280736740899790,206476,165212,189425,1360
1783419158987999748,2026-07-07T17:12:38.988+07:00,540280737505409258,206505,165291,189530,1340
1783419159006181566,2026-07-07T17:12:39.006+07:00,540280737505409258,206681,165359,189626,1342
1783419159024363384,2026-07-07T17:12:39.024+07:00,540280737505409258,206849,165453,189694,1353
1783419159042545202,2026-07-07T17:12:39.042+07:00,540280737505409258,206958,165577,189781,1330
1783419159060727020,2026-07-07T17:12:39.060+07:00,540280737505409258,207036,165672,189910,1328
1783419159078908838,2026-07-07T17:12:39.078+07:00,540280737505409258,207181,165759,190071,1351
1783419159097090656,2026-07-07T17:12:39.097+07:00,540280737505409258,207252,165866,190140,1342
1783419159115272474,2026-07-07T17:12:39.115+07:00,540280737505409258,207412,165968,190251,1411
1783419159133454292,2026-07-07T17:12:39.133+07:00,540280737505409258,207544,166087,190335,1361
1783419159151636110,2026-07-07T17:12:39.151+07:00,540280737505409258,207597,166202,190459,1330
1783419159169817928,2026-07-07T17:12:39.169+07:00,540280737505409258,207676,166247,190508,1280
1783419159187999746,2026-07-07T17:12:39.188+07:00,540280737505409258,207816,166337,190624,1316
1783419159206181564,2026-07-07T17:12:39.206+07:00,540280737505409258,208009,166461,190812,1341
1783419159224363382,2026-07-07T17:12:39.224+07:00,540280737505409258,208111,166587,190875,1357
1783419159242545200,2026-07-07T17:12:39.242+07:00,540280737505409258,208143,166642,190941,1367
1783419159260727018,2026-07-07T17:12:39.260+07:00,540280737505409258,208323,166731,191042,1309
1783419159278908836,2026-07-07T17:12:39.278+07:00,540280737505409258,208388,166825,191162,1299
1783419159297090654,2026-07-07T17:12:39.297+07:00,540280737505409258,208444,166892,191313,1287
1783419159315272472,2026-07-07T17:12:39.315+07:00,540280737505409258,208576,167047,191375,1332
1783419159333454290,2026-07-07T17:12:39.333+07:00,540280737505409258,208684,167099,191451,1314
1783419159351636108,2026-07-07T17:12:39.351+07:00,540280737505409258,208784,167191,191528,1388
1783419159369817926,2026-07-07T17:12:39.369+07:00,540280737505409258,208903,167229,191640,1414
1783419159387999744,2026-07-07T17:12:39.388+07:00,540280737505409258,209043,167356,191732,1412
1783419159406181562,2026-07-07T17:12:39.406+07:00,540280737505409258,209057,167402,191831,1351
1783419159424363380,2026-07-07T17:12:39.424+07:00,540280737505409258,209112,167447,191847,1291
1783419159442545198,2026-07-07T17:12:39.442+07:00,540280737505409258,209246,167572,191977,1338
1783419159460727016,2026-07-07T17:12:39.460+07:00,540280737505409258,209353,167695,192094,1365
1783419159478908834,2026-07-07T17:12:39.478+07:00,540280737505409258,209446,167792,192203,1443
1783419159497090652,2026-07-07T17:12:39.497+07:00,540280737505409258,209494,167832,192221,1371
1783419159515272470,2026-07-07T17:12:39.515+07:00,540280737505409258,209545,167841,192272,1411
1783419159533454288,2026-07-07T17:12:39.533+07:00,540280737505409258,209568,167830,192198,1406
1783419159551636106,2026-07-07T17:12:39.551+07:00,540280737505409258,209538,167885,192254,1361
1783419159569817924,2026-07-07T17:12:39.569+07:00,540280737505409258,209530,167886,192235,1369
1783419159587999742,2026-07-07T17:12:39.588+07:00,540280737505409258,209434,167795,192219,1338
1783419159606181560,2026-07-07T17:12:39.606+07:00,540280737505409258,209428,167798,192175,1359
1783419159624363378,2026-07-07T17:12:39.624+07:00,540280737505409258,209421,167865,192197,1358
1783419159642545196,2026-07-07T17:12:39.642+07:00,540280737505409258,209333,167779,192097,1317
1783419159660727014,2026-07-07T17:12:39.660+07:00,540280737505409258,209341,167799,192106,1380
1783419159678908832,2026-07-07T17:12:39.678+07:00,540280737505409258,209439,167810,192080,1342
1783419159697090650,2026-07-07T17:12:39.697+07:00,540280737505409258,209462,167801,192068,1316
1783419159715272468,2026-07-07T17:12:39.715+07:00,540280737505409258,209404,167794,192077,1367
1783419159733454286,2026-07-07T17:12:39.733+07:00,540280737505409258,209468,167882,192078,1339
1783419159751636104,2026-07-07T17:12:39.751+07:00,540280738251740681,209520,167915,192099,1318
1783419159769817922,2026-07-07T17:12:39.769+07:00,540280738251740681,209552,167978,192165,1348
1783419159787999740,2026-07-07T17:12:39.788+07:00,540280738251740681,209549,167990,192118,1345
1783419159806181558,2026-07-07T17:12:39.806+07:00,540280738251740681,209603,168088,192187,1417
1783419159824363376,2026-07-07T17:12:39.824+07:00,540280738251740681,209718,168096,192253,1428
1783419159842545194,2026-07-07T17:12:39.842+07:00,540280738251740681,209747,168050,192240,1349
1783419159860727012,2026-07-07T17:12:39.860+07:00,540280738251740681,209704,168080,192289,1351
1783419159878908830,2026-07-07T17:12:39.878+07:00,540280738251740681,209800,168155,192360,1342
1783419159897090648,2026-07-07T17:12:39.897+07:00,540280738251740681,209848,168179,192369,1365
1783419159915272466,2026-07-07T17:12:39.915+07:00,540280738251740681,209941,168315,192424,1360
1783419159933454284,2026-07-07T17:12:39.933+07:00,540280738251740681,209986,168305,192419,1352
1783419159951636102,2026-07-07T17:12:39.951+07:00,540280738251740681,210045,168380,192506,1405
1783419159969817920,2026-07-07T17:12:39.969+07:00,540280738251740681,210092,168355,192480,1388
1783419159987999738,2026-07-07T17:12:39.988+07:00,540280738251740681,210150,168379,192598,1356
1783419160006181556,2026-07-07T17:12:40.006+07:00,540280738251740681,210182,168483,192622,1401
1783419160024363374,2026-07-07T17:12:40.024+07:00,540280738251740681,210271,168555,192718,1374
1783419160042545192,2026-07-07T17:12:40.042+07:00,540280738251740681,210343,168607,192762,1382
1783419160060727010,2026-07-07T17:12:40.060+07:00,540280738251740681,210339,168626,192760,1313
1783419160078908828,2026-07-07T17:12:40.078+07:00,540280738251740681,210368,168676,192812,1320
1783419160097090646,2026-07-07T17:12:40.097+07:00,540280738251740681,210376,168673,192789,1357
1783419160115272464,2026-07-07T17:12:40.115+07:00,540280738251740681,210468,168710,192821,1354
1783419160133454282,2026-07-07T17:12:40.133+07:00,540280738251740681,210498,168762,192870,1330
1783419160151636100,2026-07-07T17:12:40.151+07:00,540280738251740681,210630,168842,192923,1389
1783419160169817918,2026-07-07T17:12:40.169+07:00,540280738251740681,210643,168855,192977,1306
1783419160187999736,2026-07-07T17:12:40.188+07:00,540280738251740681,210691,168953,193070,1360
1783419160206181554,2026-07-07T17:12:40.206+07:00,540280738251740681,210707,168902,193055,1324
1783419160224363372,2026-07-07T17:12:40.224+07:00,540280738251740681,210740,168931,193111,1336
1783419160242545190,2026-07-07T17:12:40.242+07:00,540280738251740681,210775,168961,193099,1379
1783419160260727008,2026-07-07T17:12:40.260+07:00,540280738251740681,210666,168920,193018,1277
1783419160278908826,2026-07-07T17:12:40.278+07:00,540280738251740681,210655,168885,192946,1330
1783419160297090644,2026-07-07T17:12:40.297+07:00,540280738251740681,210594,168808,192934,1410
1783419160315272462,2026-07-07T17:12:40.315+07:00,540280738251740681,210461,168655,192821,1310
1783419160333454280,2026-07-07T17:12:40.333+07:00,540280738251740681,210371,168616,192755,1323
1783419160351636098,2026-07-07T17:12:40.351+07:00,540280738251740681,210318,168570,192709,1310
1783419160369817916,2026-07-07T17:12:40.369+07:00,540280738251740681,210318,168517,192597,1405
1783419160387999734,2026-07-07T17:12:40.388+07:00,540280738251740681,210268,168518,192523,1379
1783419160406181552,2026-07-07T17:12:40.406+07:00,540280738251740681,210135,168465,192509,1353
1783419160424363370,2026-07-07T17:12:40.424+07:00,540280738251740681,210075,168383,192376,1339
1783419160442545188,2026-07-07T17:12:40.442+07:00,540280738251740681,210110,168375,192315,1419
1783419160460727006,2026-07-07T17:12:40.460+07:00,540280738251740681,210026,168297,192294,1354
1783419160478908824,2026-07-07T17:12:40.478+07:00,540280738251740681,209946,168196,192194,1400
1783419160497090642,2026-07-07T17:12:40.497+07:00,540280739089114929,209916,168233,192203,1352
1783419160515272460,2026-07-07T17:12:40.515+07:00,540280739089114929,209830,168208,192184,1375
1783419160533454278,2026-07-07T17:12:40.533+07:00,540280739089114929,209795,168237,192141,1377
1783419160551636096,2026-07-07T17:12:40.551+07:00,540280739089114929,209708,168164,192063,1337
1783419160569817914,2026-07-07T17:12:40.569+07:00,540280739089114929,209659,168090,191977,1403
1783419160587999732,2026-07-07T17:12:40.588+07:00,540280739089114929,209610,168053,191915,1319
1783419160606181550,2026-07-07T17:12:40.606+07:00,540280739089114929,209578,167972,191899,1384
1783419160624363368,2026-07-07T17:12:40.624+07:00,540280739089114929,209551,168010,191858,1395
1783419160642545186,2026-07-07T17:12:40.642+07:00,540280739089114929,209478,167890,191804,1377
1783419160660727004,2026-07-07T17:12:40.660+07:00,540280739089114929,209495,167903,191864,1418
1783419160678908822,2026-07-07T17:12:40.678+07:00,540280739089114929,209409,167831,191745,1360
1783419160697090640,2026-07-07T17:12:40.697+07:00,540280739089114929,209319,167809,191754,1373
1783419160715272458,2026-07-07T17:12:40.715+07:00,540280739089114929,209319,167805,191694,1349
1783419160733454276,2026-07-07T17:12:40.733+07:00,540280739089114929,209282,167760,191711,1315
1783419160751636094,2026-07-07T17:12:40.751+07:00,540280739089114929,209255,167758,191681,1320
1783419160769817912,2026-07-07T17:12:40.769+07:00,540280739089114929,209266,167771,191738,1411
1783419160787999730,2026-07-07T17:12:40.788+07:00,540280739089114929,209241,167773,191698,1373
1783419160806181548,2026-07-07T17:12:40.806+07:00,540280739089114929,209217,167727,191655,1366
1783419160824363366,2026-07-07T17:12:40.824+07:00,540280739089114929,209170,167644,191569,1273
1783419160842545184,2026-07-07T17:12:40.842+07:00,540280739089114929,209196,167691,191621,1355
1783419160860727002,2026-07-07T17:12:40.860+07:00,540280739089114929,209166,167710,191639,1387
1783419160878908820,2026-07-07T17:12:40.878+07:00,540280739089114929,209112,167661,191629,1340
1783419160897090638,2026-07-07T17:12:40.897+07:00,540280739089114929,209089,167647,191608,1351
1783419160915272456,2026-07-07T17:12:40.915+07:00,540280739089114929,209080,167604,191567,1388
1783419160933454274,2026-07-07T17:12:40.933+07:00,540280739089114929,209106,167594,191586,1369
1783419160951636092,2026-07-07T17:12:40.951+07:00,540280739089114929,209052,167596,191629,1327
1783419160969817910,2026-07-07T17:12:40.969+07:00,540280739089114929,209155,167589,191569,1407
1783419160987999728,2026-07-07T17:12:40.988+07:00,540280739089114929,209150,167623,191664,1409
1783419161006181546,2026-07-07T17:12:41.006+07:00,540280739089114929,209104,167653,191621,1374
1783419161024363364,2026-07-07T17:12:41.024+07:00,540280739089114929,209046,167547,191547,1386
1783419161042545182,2026-07-07T17:12:41.042+07:00,540280739089114929,208855,167426,191409,1342
1783419161060727000,2026-07-07T17:12:41.060+07:00,540280739089114929,208746,167413,191314,1349
1783419161078908818,2026-07-07T17:12:41.078+07:00,540280739089114929,208701,167233,191199,1394
1783419161097090636,2026-07-07T17:12:41.097+07:00,540280739089114929,208551,167192,191086,1335
1783419161115272454,2026-07-07T17:12:41.115+07:00,540280739089114929,208463,167104,190974,1376
1783419161133454272,2026-07-07T17:12:41.133+07:00,540280739089114929,208342,167000,190866,1390
1783419161151636090,2026-07-07T17:12:41.151+07:00,540280739089114929,208265,166893,190722,1376
1783419161169817908,2026-07-07T17:12:41.169+07:00,540280739089114929,208218,166840,190687,1377
1783419161187999726,2026-07-07T17:12:41.188+07:00,540280739089114929,208090,166804,190675,1401
1783419161206181544,2026-07-07T17:12:41.206+07:00,540280739089114929,207988,166717,190540,1362
1783419161224363362,2026-07-07T17:12:41.224+07:00,540280739089114929,207860,166656,190395,1333
1783419161242545180,2026-07-07T17:12:41.242+07:00,540280739089114929,207814,166579,190356,1408
1783419161260726998,2026-07-07T17:12:41.260+07:00,540280739089114929,207740,166590,190235,1349
1783419161278908816,2026-07-07T17:12:41.278+07:00,540280739089114929,207732,166514,190218,1321
1783419161297090634,2026-07-07T17:12:41.297+07:00,540280739089114929,207709,166510,190196,1383
1783419161315272452,2026-07-07T17:12:41.315+07:00,540280739089114929,207655,166503,190182,1387
1783419161333454270,2026-07-07T17:12:41.333+07:00,540280739926458657,207607,166458,190148,1372
1783419161351636088,2026-07-07T17:12:41.351+07:00,540280739926458657,207527,166415,190114,1374
1783419161369817906,2026-07-07T17:12:41.369+07:00,540280739926458657,207514,166383,190002,1376
1783419161387999724,2026-07-07T17:12:41.388+07:00,540280739926458657,207482,166352,189959,1354
1783419161406181542,2026-07-07T17:12:41.406+07:00,540280739926458657,207492,166353,190002,1402
1783419161424363360,2026-07-07T17:12:41.424+07:00,540280739926458657,207426,166299,189966,1387
1783419161442545178,2026-07-07T17:12:41.442+07:00,540280739926458657,207402,166257,189924,1380
1783419161460726996,2026-07-07T17:12:41.460+07:00,540280739926458657,207487,166322,189961,1384
1783419161478908814,2026-07-07T17:12:41.478+07:00,540280739926458657,207415,166285,189884,1347
1783419161497090632,2026-07-07T17:12:41.497+07:00,540280739926458657,207367,166212,189848,1321
1783419161515272450,2026-07-07T17:12:41.515+07:00,540280739926458657,207319,166180,189866,1318
1783419161533454268,2026-07-07T17:12:41.533+07:00,540280739926458657,207370,166277,189876,1318
1783419161551636086,2026-07-07T17:12:41.551+07:00,540280739926458657,207360,166254,189908,1366
1783419161569817904,2026-07-07T17:12:41.569+07:00,540280739926458657,207327,166271,189937,1372
1783419161587999722,2026-07-07T17:12:41.588+07:00,540280739926458657,207340,166284,189944,1345
1783419161606181540,2026-07-07T17:12:41.606+07:00,540280739926458657,207395,166254,189942,1382
1783419161624363358,2026-07-07T17:12:41.624+07:00,540280739926458657,207382,166268,189922,1318
1783419161642545176,2026-07-07T17:12:41.642+07:00,540280739926458657,207396,166327,189943,1380
1783419161660726994,2026-07-07T17:12:41.660+07:00,540280739926458657,207428,166317,189961,1341
1783419161678908812,2026-07-07T17:12:41.678+07:00,540280739926458657,207397,166267,190025,1387
1783419161697090630,2026-07-07T17:12:41.697+07:00,540280739926458657,207416,166302,190001,1375
1783419161715272448,2026-07-07T17:12:41.715+07:00,540280739926458657,207409,166275,190050,1385
1783419161733454266,2026-07-07T17:12:41.733+07:00,540280739926458657,207443,166329,190040,1355
1783419161751636084,2026-07-07T17:12:41.751+07:00,540280739926458657,207458,166377,190119,1369
1783419161769817902,2026-07-07T17:12:41.769+07:00,540280739926458657,207475,166365,190152,1379
1783419161787999720,2026-07-07T17:12:41.788+07:00,540280739926458657,207500,166404,190127,1359
1783419161806181538,2026-07-07T17:12:41.806+07:00,540280739926458657,207559,166454,190181,1378
1783419161824363356,2026-07-07T17:12:41.824+07:00,540280739926458657,207537,166396,190045,1416
1783419161842545174,2026-07-07T17:12:41.842+07:00,540280739926458657,207502,166372,189992,1377
1783419161860726992,2026-07-07T17:12:41.860+07:00,540280739926458657,207449,166305,189962,1399
1783419161878908810,2026-07-07T17:12:41.878+07:00,540280739926458657,207386,166260,189895,1378
1783419161897090628,2026-07-07T17:12:41.897+07:00,540280739926458657,207336,166197,189799,1348
1783419161915272446,2026-07-07T17:12:41.915+07:00,540280739926458657,207242,166148,189664,1323
1783419161933454264,2026-07-07T17:12:41.933+07:00,540280739926458657,207186,166135,189717,1369
1783419161951636082,2026-07-07T17:12:41.951+07:00,540280739926458657,207140,166015,189606,1372
1783419161969817900,2026-07-07T17:12:41.969+07:00,540280739926458657,207059,165953,189545,1351
1783419161987999718,2026-07-07T17:12:41.988+07:00,540280739926458657,207011,165952,189458,1355
1783419162006181536,2026-07-07T17:12:42.006+07:00,540280739926458657,206993,165992,189502,1372
1783419162024363354,2026-07-07T17:12:42.024+07:00,540280739926458657,206899,165955,189420,1305
1783419162042545172,2026-07-07T17:12:42.042+07:00,540280739926458657,206955,165886,189393,1382
1783419162060726990,2026-07-07T17:12:42.060+07:00,540280739926458657,206939,165929,189384,1395
1783419162078908808,2026-07-07T17:12:42.078+07:00,540280739926458657,206920,165994,189408,1384
1783419162097090626,2026-07-07T17:12:42.097+07:00,540280739926458657,206840,165882,189340,1380
1783419162115272444,2026-07-07T17:12:42.115+07:00,540280739926458657,206827,165895,189383,1334
1783419162133454262,2026-07-07T17:12:42.133+07:00,540280739926458657,206815,165801,189251,1350
1783419162151636080,2026-07-07T17:12:42.151+07:00,540280739926458657,206787,165765,189202,1366
1783419162169817898,2026-07-07T17:12:42.169+07:00,540280740709164484,206781,165794,189201,1325
1783419162187999716,2026-07-07T17:12:42.188+07:00,540280740709164484,206789,165805,189238,1357
1783419162206181534,2026-07-07T17:12:42.206+07:00,540280740709164484,206808,165786,189237,1373
1783419162224363352,2026-07-07T17:12:42.224+07:00,540280740709164484,206759,165804,189227,1339
1783419162242545170,2026-07-07T17:12:42.242+07:00,540280740709164484,206758,165806,189249,1369
1783419162260726988,2026-07-07T17:12:42.260+07:00,540280740709164484,206750,165825,189186,1353
1783419162278908806,2026-07-07T17:12:42.278+07:00,540280740709164484,206777,165811,189242,1425
1783419162297090624,2026-07-07T17:12:42.297+07:00,540280740709164484,206765,165764,189251,1345
1783419162315272442,2026-07-07T17:12:42.315+07:00,540280740709164484,206804,165801,189259,1382
1783419162333454260,2026-07-07T17:12:42.333+07:00,540280740709164484,206834,165774,189245,1344
1783419162351636078,2026-07-07T17:12:42.351+07:00,540280740709164484,206863,165837,189311,1400
1783419162369817896,2026-07-07T17:12:42.369+07:00,540280740709164484,206850,165819,189340,1330
1783419162387999714,2026-07-07T17:12:42.388+07:00,540280740709164484,206924,165839,189353,1330
1783419162406181532,2026-07-07T17:12:42.406+07:00,540280740709164484,206925,165967,189417,1371
1783419162424363350,2026-07-07T17:12:42.424+07:00,540280740709164484,206992,165926,189390,1337
1783419162442545168,2026-07-07T17:12:42.442+07:00,540280740709164484,207118,166011,189468,1348
1783419162460726986,2026-07-07T17:12:42.460+07:00,540280740709164484,207073,166066,189534,1388
1783419162478908804,2026-07-07T17:12:42.478+07:00,540280740709164484,207131,165981,189517,1349
1783419162497090622,2026-07-07T17:12:42.497+07:00,540280740709164484,207155,166120,189545,1365
1783419162515272440,2026-07-07T17:12:42.515+07:00,540280740709164484,207231,166118,189645,1342
1783419162533454258,2026-07-07T17:12:42.533+07:00,540280740709164484,207369,166137,189677,1354
1783419162551636076,2026-07-07T17:12:42.551+07:00,540280740709164484,207318,166148,189671,1345
1783419162569817894,2026-07-07T17:12:42.569+07:00,540280740709164484,207285,166199,189650,1348
1783419162587999712,2026-07-07T17:12:42.588+07:00,540280740709164484,207235,166138,189588,1367
1783419162606181530,2026-07-07T17:12:42.606+07:00,540280740709164484,207147,166106,189554,1385
1783419162624363348,2026-07-07T17:12:42.624+07:00,540280740709164484,207126,166071,189488,1403
1783419162642545166,2026-07-07T17:12:42.642+07:00,540280740709164484,207006,166001,189338,1376
1783419162660726984,2026-07-07T17:12:42.660+07:00,540280740709164484,206989,165987,189304,1343
1783419162678908802,2026-07-07T17:12:42.678+07:00,540280740709164484,206951,165933,189288,1358
1783419162697090620,2026-07-07T17:12:42.697+07:00,540280740709164484,206969,165884,189238,1317
1783419162715272438,2026-07-07T17:12:42.715+07:00,540280740709164484,206917,165814,189173,1333
1783419162733454256,2026-07-07T17:12:42.733+07:00,540280740709164484,206929,165822,189118,1412
1783419162751636074,2026-07-07T17:12:42.751+07:00,540280740709164484,206820,165794,189131,1375
1783419162769817892,2026-07-07T17:12:42.769+07:00,540280740709164484,206802,165790,189093,1320
1783419162787999710,2026-07-07T17:12:42.788+07:00,540280740709164484,206764,165732,189077,1375
1783419162806181528,2026-07-07T17:12:42.806+07:00,540280740709164484,206810,165754,189039,1350
1783419162824363346,2026-07-07T17:12:42.824+07:00,540280740709164484,206657,165631,188933,1336
1783419162842545164,2026-07-07T17:12:42.842+07:00,540280740709164484,206690,165684,189003,1408
1783419162860726982,2026-07-07T17:12:42.860+07:00,540280740709164484,206704,165638,188947,1321
1783419162878908800,2026-07-07T17:12:42.878+07:00,540280740709164484,206682,165659,188927,1405
1783419162897090618,2026-07-07T17:12:42.897+07:00,540280740709164484,206569,165629,188838,1361
1783419162915272436,2026-07-07T17:12:42.915+07:00,540280740709164484,206569,165542,188803,1407
1783419162933454254,2026-07-07T17:12:42.933+07:00,540280740709164484,206514,165478,188735,1328
1783419162951636072,2026-07-07T17:12:42.951+07:00,540280741473722784,206501,165519,188781,1299
1783419162969817890,2026-07-07T17:12:42.969+07:00,540280741473722784,206539,165450,188783,1408
1783419162987999708,2026-07-07T17:12:42.988+07:00,540280741473722784,206554,165492,188836,1411
1783419163006181526,2026-07-07T17:12:43.006+07:00,540280741473722784,206562,165562,188908,1461
1783419163024363344,2026-07-07T17:12:43.024+07:00,540280741473722784,206512,165467,188823,1375
1783419163042545162,2026-07-07T17:12:43.042+07:00,540280741473722784,206532,165534,188890,1385
1783419163060726980,2026-07-07T17:12:43.060+07:00,540280741473722784,206558,165500,188871,1326
1783419163078908798,2026-07-07T17:12:43.078+07:00,540280741473722784,206598,165536,188904,1406
1783419163097090616,2026-07-07T17:12:43.097+07:00,540280741473722784,206663,165545,188992,1455
1783419163115272434,2026-07-07T17:12:43.115+07:00,540280741473722784,206615,165597,188900,1375
1783419163133454252,2026-07-07T17:12:43.133+07:00,540280741473722784,206686,165529,188937,1351
1783419163151636070,2026-07-07T17:12:43.151+07:00,540280741473722784,206662,165545,188965,1442
1783419163169817888,2026-07-07T17:12:43.169+07:00,540280741473722784,206664,165495,188929,1387
1783419163187999706,2026-07-07T17:12:43.188+07:00,540280741473722784,206721,165633,188997,1392
1783419163206181524,2026-07-07T17:12:43.206+07:00,540280741473722784,206753,165664,189003,1373
1783419163224363342,2026-07-07T17:12:43.224+07:00,540280741473722784,206718,165643,189121,1430
1783419163242545160,2026-07-07T17:12:43.242+07:00,540280741473722784,206833,165659,189082,1397
1783419163260726978,2026-07-07T17:12:43.260+07:00,540280741473722784,206789,165656,189087,1357
1783419163278908796,2026-07-07T17:12:43.278+07:00,540280741473722784,206849,165708,189175,1365
1783419163297090614,2026-07-07T17:12:43.297+07:00,540280741473722784,206936,165806,189224,1431
1783419163315272432,2026-07-07T17:12:43.315+07:00,540280741473722784,206878,165773,189146,1411
1783419163333454250,2026-07-07T17:12:43.333+07:00,540280741473722784,206870,165707,189175,1405
1783419163351636068,2026-07-07T17:12:43.351+07:00,540280741473722784,206775,165633,189042,1444
1783419163369817886,2026-07-07T17:12:43.369+07:00,540280741473722784,206709,165600,188987,1428
1783419163387999704,2026-07-07T17:12:43.388+07:00,540280741473722784,206590,165494,188830,1408
1783419163406181522,2026-07-07T17:12:43.406+07:00,540280741473722784,206498,165400,188746,1376
1783419163424363340,2026-07-07T17:12:43.424+07:00,540280741473722784,206396,165349,188652,1379
1783419163442545158,2026-07-07T17:12:43.442+07:00,540280741473722784,206411,165347,188647,1426
1783419163460726976,2026-07-07T17:12:43.460+07:00,540280741473722784,206260,165228,188577,1340
1783419163478908794,2026-07-07T17:12:43.478+07:00,540280741473722784,206263,165237,188562,1434
1783419163497090612,2026-07-07T17:12:43.497+07:00,540280741473722784,206234,165186,188459,1369
1783419163515272430,2026-07-07T17:12:43.515+07:00,540280741473722784,206254,165143,188417,1373
1783419163533454248,2026-07-07T17:12:43.533+07:00,540280741473722784,206251,165167,188413,1429
1783419163551636066,2026-07-07T17:12:43.551+07:00,540280741473722784,206176,165106,188378,1426
1783419163569817884,2026-07-07T17:12:43.569+07:00,540280741473722784,206132,165148,188335,1396
1783419163587999702,2026-07-07T17:12:43.588+07:00,540280741473722784,206091,165064,188306,1424
1783419163606181520,2026-07-07T17:12:43.606+07:00,540280741473722784,206101,165008,188221,1467
1783419163624363338,2026-07-07T17:12:43.624+07:00,540280741473722784,206040,165007,188210,1424
1783419163642545156,2026-07-07T17:12:43.642+07:00,540280741473722784,205965,164936,188169,1383
1783419163660726974,2026-07-07T17:12:43.660+07:00,540280741473722784,205898,164889,188083,1273
1783419163678908792,2026-07-07T17:12:43.678+07:00,540280741473722784,205894,164862,188034,1342
1783419163697090610,2026-07-07T17:12:43.697+07:00,540280741473722784,205869,164829,188079,1397
1783419163715272428,2026-07-07T17:12:43.715+07:00,540280742238259720,205786,164804,188028,1333
1783419163733454246,2026-07-07T17:12:43.733+07:00,540280742238259720,205792,164829,188083,1374
1783419163751636064,2026-07-07T17:12:43.751+07:00,540280742238259720,205890,164824,188039,1418
1783419163769817882,2026-07-07T17:12:43.769+07:00,540280742238259720,205887,164851,188029,1382
1783419163787999700,2026-07-07T17:12:43.788+07:00,540280742238259720,205887,164840,188091,1380
1783419163806181518,2026-07-07T17:12:43.806+07:00,540280742238259720,205811,164845,188066,1376
1783419163824363336,2026-07-07T17:12:43.824+07:00,540280742238259720,205917,164855,188043,1326
1783419163842545154,2026-07-07T17:12:43.842+07:00,540280742238259720,205931,164853,188025,1356
1783419163860726972,2026-07-07T17:12:43.860+07:00,540280742238259720,205969,164882,188081,1372
1783419163878908790,2026-07-07T17:12:43.878+07:00,540280742238259720,206005,164900,188067,1377
1783419163897090608,2026-07-07T17:12:43.897+07:00,540280742238259720,206057,164974,188203,1401
1783419163915272426,2026-07-07T17:12:43.915+07:00,540280742238259720,206091,165016,188170,1413
1783419163933454244,2026-07-07T17:12:43.933+07:00,540280742238259720,206127,165073,188278,1416
1783419163951636062,2026-07-07T17:12:43.951+07:00,540280742238259720,206129,165079,188308,1421
1783419163969817880,2026-07-07T17:12:43.969+07:00,540280742238259720,206252,165072,188338,1371
1783419163987999698,2026-07-07T17:12:43.988+07:00,540280742238259720,206255,165080,188402,1377
1783419164006181516,2026-07-07T17:12:44.006+07:00,540280742238259720,206349,165130,188490,1411
1783419164024363334,2026-07-07T17:12:44.024+07:00,540280742238259720,206365,165140,188460,1375
1783419164042545152,2026-07-07T17:12:44.042+07:00,540280742238259720,206439,165289,188591,1444
1783419164060726970,2026-07-07T17:12:44.060+07:00,540280742238259720,206393,165248,188548,1353
1783419164078908788,2026-07-07T17:12:44.078+07:00,540280742238259720,206434,165295,188564,1358
1783419164097090606,2026-07-07T17:12:44.097+07:00,540280742238259720,206342,165217,188480,1330
1783419164115272424,2026-07-07T17:12:44.115+07:00,540280742238259720,206310,165115,188412,1347
1783419164133454242,2026-07-07T17:12:44.133+07:00,540280742238259720,206174,165079,188293,1383
1783419164151636060,2026-07-07T17:12:44.151+07:00,540280742238259720,206125,165005,188252,1349
1783419164169817878,2026-07-07T17:12:44.169+07:00,540280742238259720,206151,165015,188258,1397
1783419164187999696,2026-07-07T17:12:44.188+07:00,540280742238259720,206013,164929,188118,1353
1783419164206181514,2026-07-07T17:12:44.206+07:00,540280742238259720,206040,164869,188117,1366
1783419164224363332,2026-07-07T17:12:44.224+07:00,540280742238259720,206010,164886,188059,1407
1783419164242545150,2026-07-07T17:12:44.242+07:00,540280742238259720,206027,164833,188020,1378
1783419164260726968,2026-07-07T17:12:44.260+07:00,540280742238259720,205998,164852,187958,1373
1783419164278908786,2026-07-07T17:12:44.278+07:00,540280742238259720,205968,164859,187947,1358
1783419164297090604,2026-07-07T17:12:44.297+07:00,540280742238259720,205990,164944,187940,1410
1783419164315272422,2026-07-07T17:12:44.315+07:00,540280742238259720,205953,164926,187949,1369
1783419164333454240,2026-07-07T17:12:44.333+07:00,540280742238259720,205990,164927,187909,1412
1783419164351636058,2026-07-07T17:12:44.351+07:00,540280742238259720,205971,164915,187914,1386
1783419164369817876,2026-07-07T17:12:44.369+07:00,540280742238259720,205996,164848,187946,1335
1783419164387999694,2026-07-07T17:12:44.388+07:00,540280742238259720,205962,164829,187973,1366
1783419164406181512,2026-07-07T17:12:44.406+07:00,540280742238259720,205966,164811,187903,1318
1783419164424363330,2026-07-07T17:12:44.424+07:00,540280742238259720,205970,164789,187885,1361
1783419164442545148,2026-07-07T17:12:44.442+07:00,540280742238259720,205946,164767,187885,1337
1783419164460726966,2026-07-07T17:12:44.460+07:00,540280742238259720,205920,164838,187886,1430
1783419164478908784,2026-07-07T17:12:44.478+07:00,540280743057373521,205972,164811,187920,1359
1783419164497090602,2026-07-07T17:12:44.497+07:00,540280743057373521,206001,164874,187910,1359
1783419164515272420,2026-07-07T17:12:44.515+07:00,540280743057373521,205998,164849,187855,1333
1783419164533454238,2026-07-07T17:12:44.533+07:00,540280743057373521,206049,164886,187916,1343
1783419164551636056,2026-07-07T17:12:44.551+07:00,540280743057373521,206047,164836,187906,1331
1783419164569817874,2026-07-07T17:12:44.569+07:00,540280743057373521,206047,164869,187974,1352
1783419164587999692,2026-07-07T17:12:44.588+07:00,540280743057373521,206080,164893,187991,1340
1783419164606181510,2026-07-07T17:12:44.606+07:00,540280743057373521,206134,164957,188074,1352
1783419164624363328,2026-07-07T17:12:44.624+07:00,540280743057373521,206128,164966,188060,1306
1783419164642545146,2026-07-07T17:12:44.642+07:00,540280743057373521,206214,165023,188148,1356
1783419164660726964,2026-07-07T17:12:44.660+07:00,540280743057373521,206197,165068,188145,1335
1783419164678908782,2026-07-07T17:12:44.678+07:00,540280743057373521,206215,165039,188187,1390
1783419164697090600,2026-07-07T17:12:44.697+07:00,540280743057373521,206243,164999,188191,1374
1783419164715272418,2026-07-07T17:12:44.715+07:00,540280743057373521,206235,165034,188227,1347
1783419164733454236,2026-07-07T17:12:44.733+07:00,540280743057373521,206270,165130,188262,1340
1783419164751636054,2026-07-07T17:12:44.751+07:00,540280743057373521,206321,165111,188261,1358
1783419164769817872,2026-07-07T17:12:44.769+07:00,540280743057373521,206296,165081,188274,1333
1783419164787999690,2026-07-07T17:12:44.788+07:00,540280743057373521,206344,165199,188364,1333
1783419164806181508,2026-07-07T17:12:44.806+07:00,540280743057373521,206331,165185,188367,1288
1783419164824363326,2026-07-07T17:12:44.824+07:00,540280743057373521,206417,165205,188401,1362
1783419164842545144,2026-07-07T17:12:44.842+07:00,540280743057373521,206440,165226,188432,1388
1783419164860726962,2026-07-07T17:12:44.860+07:00,540280743057373521,206414,165207,188447,1367
1783419164878908780,2026-07-07T17:12:44.878+07:00,540280743057373521,206303,165165,188289,1290
1783419164897090598,2026-07-07T17:12:44.897+07:00,540280743057373521,206299,165011,188167,1380
1783419164915272416,2026-07-07T17:12:44.915+07:00,540280743057373521,206151,164983,188085,1369
1783419164933454234,2026-07-07T17:12:44.933+07:00,540280743057373521,206046,164909,187991,1302
1783419164951636052,2026-07-07T17:12:44.951+07:00,540280743057373521,206001,164829,187887,1365
1783419164969817870,2026-07-07T17:12:44.969+07:00,540280743057373521,205867,164770,187833,1326
1783419164987999688,2026-07-07T17:12:44.988+07:00,540280743057373521,205894,164745,187751,1395
1783419165006181506,2026-07-07T17:12:45.006+07:00,540280743057373521,205813,164705,187757,1390
1783419165024363324,2026-07-07T17:12:45.024+07:00,540280743057373521,205798,164725,187663,1390
1783419165042545142,2026-07-07T17:12:45.042+07:00,540280743057373521,205690,164628,187640,1400
1783419165060726960,2026-07-07T17:12:45.060+07:00,540280743057373521,205641,164590,187568,1388
1783419165078908778,2026-07-07T17:12:45.078+07:00,540280743057373521,205612,164544,187570,1376
1783419165097090596,2026-07-07T17:12:45.097+07:00,540280743057373521,205538,164477,187521,1338
1783419165115272414,2026-07-07T17:12:45.115+07:00,540280743057373521,205493,164422,187501,1357
1783419165133454232,2026-07-07T17:12:45.133+07:00,540280743057373521,205506,164489,187494,1393
1783419165151636050,2026-07-07T17:12:45.151+07:00,540280743057373521,205437,164378,187424,1385
1783419165169817868,2026-07-07T17:12:45.169+07:00,540280743057373521,205417,164414,187380,1360
1783419165187999686,2026-07-07T17:12:45.188+07:00,540280743057373521,205345,164313,187290,1372
1783419165206181504,2026-07-07T17:12:45.206+07:00,540280743057373521,205317,164250,187315,1353
1783419165224363322,2026-07-07T17:12:45.224+07:00,540280743057373521,205311,164298,187281,1389
1783419165242545140,2026-07-07T17:12:45.242+07:00,540280743057373521,205316,164294,187241,1371
1783419165260726958,2026-07-07T17:12:45.260+07:00,540280743057373521,205330,164245,187327,1402
1783419165278908776,2026-07-07T17:12:45.278+07:00,540280743057373521,205239,164237,187184,1396
1783419165297090594,2026-07-07T17:12:45.297+07:00,540280744003977780,205253,164248,187192,1368
1783419165315272412,2026-07-07T17:12:45.315+07:00,540280744003977780,205298,164189,187181,1393
1783419165333454230,2026-07-07T17:12:45.333+07:00,540280744003977780,205200,164237,187202,1400
1783419165351636048,2026-07-07T17:12:45.351+07:00,540280744003977780,205221,164202,187214,1382
1783419165369817866,2026-07-07T17:12:45.369+07:00,540280744003977780,205250,164246,187186,1380
1783419165387999684,2026-07-07T17:12:45.388+07:00,540280744003977780,205240,164236,187194,1315
1783419165406181502,2026-07-07T17:12:45.406+07:00,540280744003977780,205239,164270,187237,1333
1783419165424363320,2026-07-07T17:12:45.424+07:00,540280744003977780,205292,164260,187192,1348
1783419165442545138,2026-07-07T17:12:45.442+07:00,540280744003977780,205287,164265,187282,1359
1783419165460726956,2026-07-07T17:12:45.460+07:00,540280744003977780,205341,164271,187358,1355
1783419165478908774,2026-07-07T17:12:45.478+07:00,540280744003977780,205339,164268,187337,1377
1783419165497090592,2026-07-07T17:12:45.497+07:00,540280744003977780,205379,164275,187419,1356
1783419165515272410,2026-07-07T17:12:45.515+07:00,540280744003977780,205343,164334,187434,1369
1783419165533454228,2026-07-07T17:12:45.533+07:00,540280744003977780,205396,164361,187427,1362
1783419165551636046,2026-07-07T17:12:45.551+07:00,540280744003977780,205382,164360,187507,1337
1783419165569817864,2026-07-07T17:12:45.569+07:00,540280744003977780,205436,164405,187535,1339
1783419165587999682,2026-07-07T17:12:45.588+07:00,540280744003977780,205460,164435,187523,1358
1783419165606181500,2026-07-07T17:12:45.606+07:00,540280744003977780,205489,164493,187599,1351
1783419165624363318,2026-07-07T17:12:45.624+07:00,540280744003977780,205510,164517,187540,1358
1783419165642545136,2026-07-07T17:12:45.642+07:00,540280744003977780,205480,164488,187566,1397
1783419165660726954,2026-07-07T17:12:45.660+07:00,540280744003977780,205441,164411,187529,1384
1783419165678908772,2026-07-07T17:12:45.678+07:00,540280744003977780,205351,164372,187424,1360
1783419165697090590,2026-07-07T17:12:45.697+07:00,540280744003977780,205285,164290,187325,1397
1783419165715272408,2026-07-07T17:12:45.715+07:00,540280744003977780,205213,164206,187230,1426
1783419165733454226,2026-07-07T17:12:45.733+07:00,540280744003977780,205136,164146,187214,1430
1783419165751636044,2026-07-07T17:12:45.751+07:00,540280744003977780,205118,164163,187104,1425
1783419165769817862,2026-07-07T17:12:45.769+07:00,540280744003977780,205076,164116,187047,1426
1783419165787999680,2026-07-07T17:12:45.788+07:00,540280744003977780,205023,164084,187053,1418
1783419165806181498,2026-07-07T17:12:45.806+07:00,540280744003977780,204952,164030,186943,1387
1783419165824363316,2026-07-07T17:12:45.824+07:00,540280744003977780,204887,163949,186876,1403
1783419165842545134,2026-07-07T17:12:45.842+07:00,540280744003977780,204835,163953,186883,1373
1783419165860726952,2026-07-07T17:12:45.860+07:00,540280744003977780,204882,163987,186877,1359
1783419165878908770,2026-07-07T17:12:45.878+07:00,540280744003977780,204835,163925,186766,1353
1783419165897090588,2026-07-07T17:12:45.897+07:00,540280744003977780,204857,163903,186845,1408
1783419165915272406,2026-07-07T17:12:45.915+07:00,540280744003977780,204833,163877,186786,1380
1783419165933454224,2026-07-07T17:12:45.933+07:00,540280744003977780,204764,163862,186715,1391
1783419165951636042,2026-07-07T17:12:45.951+07:00,540280744003977780,204786,163820,186675,1365
1783419165969817860,2026-07-07T17:12:45.969+07:00,540280744003977780,204746,163815,186635,1321
1783419165987999678,2026-07-07T17:12:45.988+07:00,540280744003977780,204650,163744,186664,1307
1783419166006181496,2026-07-07T17:12:46.006+07:00,540280744003977780,204649,163766,186681,1314
1783419166024363314,2026-07-07T17:12:46.024+07:00,540280744003977780,204651,163746,186632,1314
1783419166042545132,2026-07-07T17:12:46.042+07:00,540280744003977780,204679,163771,186685,1401
1783419166060726950,2026-07-07T17:12:46.060+07:00,540280744003977780,204649,163760,186634,1384
1783419166078908768,2026-07-07T17:12:46.078+07:00,540280744003977780,204676,163792,186656,1401
1783419166097090586,2026-07-07T17:12:46.097+07:00,540280744003977780,204724,163776,186615,1351
1783419166115272404,2026-07-07T17:12:46.115+07:00,540280744003977780,204706,163759,186660,1361
1783419166133454222,2026-07-07T17:12:46.133+07:00,540280744003977780,204723,163791,186716,1369
1783419166151636040,2026-07-07T17:12:46.151+07:00,540280744003977780,204719,163826,186716,1358
1783419166169817858,2026-07-07T17:12:46.169+07:00,540280744003977780,204727,163859,186776,1318
1783419166187999676,2026-07-07T17:12:46.188+07:00,540280744003977780,204762,163800,186774,1369
1783419166206181494,2026-07-07T17:12:46.206+07:00,540280744003977780,204757,163883,186754,1316
1783419166224363312,2026-07-07T17:12:46.224+07:00,540280744003977780,204799,163909,186810,1380
1783419166242545130,2026-07-07T17:12:46.242+07:00,540280744786845350,204831,163865,186847,1378
1783419166260726948,2026-07-07T17:12:46.260+07:00,540280744786845350,204873,163939,186836,1388
1783419166278908766,2026-07-07T17:12:46.278+07:00,540280744786845350,204895,164009,186889,1404
1783419166297090584,2026-07-07T17:12:46.297+07:00,540280744786845350,204883,163945,186887,1318
1783419166315272402,2026-07-07T17:12:46.315+07:00,540280744786845350,204979,163924,186903,1309
1783419166333454220,2026-07-07T17:12:46.333+07:00,540280744786845350,205001,164027,187014,1273
1783419166351636038,2026-07-07T17:12:46.351+07:00,540280744786845350,205055,164084,187056,1345
1783419166369817856,2026-07-07T17:12:46.369+07:00,540280744786845350,205112,164063,187070,1348
1783419166387999674,2026-07-07T17:12:46.388+07:00,540280744786845350,205121,164093,187153,1371
1783419166406181492,2026-07-07T17:12:46.406+07:00,540280744786845350,205167,164110,187125,1327
1783419166424363310,2026-07-07T17:12:46.424+07:00,540280744786845350,205168,164197,187201,1343
1783419166442545128,2026-07-07T17:12:46.442+07:00,540280744786845350,205163,164169,187120,1344
1783419166460726946,2026-07-07T17:12:46.460+07:00,540280744786845350,205145,164169,187085,1394
1783419166478908764,2026-07-07T17:12:46.478+07:00,540280744786845350,204986,164058,186991,1331
1783419166497090582,2026-07-07T17:12:46.497+07:00,540280744786845350,204971,163994,186905,1383
1783419166515272400,2026-07-07T17:12:46.515+07:00,540280744786845350,204826,163959,186823,1360
1783419166533454218,2026-07-07T17:12:46.533+07:00,540280744786845350,204813,163874,186817,1351
1783419166551636036,2026-07-07T17:12:46.551+07:00,540280744786845350,204844,163886,186832,1425
1783419166569817854,2026-07-07T17:12:46.569+07:00,540280744786845350,204723,163821,186704,1333
1783419166587999672,2026-07-07T17:12:46.588+07:00,540280744786845350,204793,163863,186686,1399
1783419166606181490,2026-07-07T17:12:46.606+07:00,540280744786845350,204753,163796,186651,1335
1783419166624363308,2026-07-07T17:12:46.624+07:00,540280744786845350,204702,163758,186608,1328
1783419166642545126,2026-07-07T17:12:46.642+07:00,540280744786845350,204721,163811,186674,1317
1783419166660726944,2026-07-07T17:12:46.660+07:00,540280744786845350,204679,163789,186624,1367
1783419166678908762,2026-07-07T17:12:46.678+07:00,540280744786845350,204652,163797,186618,1358
1783419166697090580,2026-07-07T17:12:46.697+07:00,540280744786845350,204691,163755,186586,1326
1783419166715272398,2026-07-07T17:12:46.715+07:00,540280744786845350,204661,163727,186554,1379
1783419166733454216,2026-07-07T17:12:46.733+07:00,540280744786845350,204632,163795,186542,1414
1783419166751636034,2026-07-07T17:12:46.751+07:00,540280744786845350,204643,163752,186551,1382
1783419166769817852,2026-07-07T17:12:46.769+07:00,540280744786845350,204627,163732,186551,1377
1783419166787999670,2026-07-07T17:12:46.788+07:00,540280744786845350,204603,163685,186504,1356
1783419166806181488,2026-07-07T17:12:46.806+07:00,540280744786845350,204642,163657,186527,1361
1783419166824363306,2026-07-07T17:12:46.824+07:00,540280744786845350,204666,163728,186537,1375
1783419166842545124,2026-07-07T17:12:46.842+07:00,540280744786845350,204633,163704,186518,1407
1783419166860726942,2026-07-07T17:12:46.860+07:00,540280744786845350,204638,163802,186523,1370
1783419166878908760,2026-07-07T17:12:46.878+07:00,540280744786845350,204614,163702,186572,1296
1783419166897090578,2026-07-07T17:12:46.897+07:00,540280744786845350,204775,163782,186605,1348
1783419166915272396,2026-07-07T17:12:46.915+07:00,540280744786845350,204832,163811,186669,1412
1783419166933454214,2026-07-07T17:12:46.933+07:00,540280744786845350,204843,163860,186635,1402
1783419166951636032,2026-07-07T17:12:46.951+07:00,540280744786845350,204873,163929,186744,1399
1783419166969817850,2026-07-07T17:12:46.969+07:00,540280744786845350,204895,163942,186776,1452
1783419166987999668,2026-07-07T17:12:46.988+07:00,540280744786845350,204900,163923,186720,1392
1783419167006181486,2026-07-07T17:12:47.006+07:00,540280744786845350,204913,163933,186789,1361
1783419167024363304,2026-07-07T17:12:47.024+07:00,540280745642542616,204962,163985,186904,1377
1783419167042545122,2026-07-07T17:12:47.042+07:00,540280745642542616,205045,163974,186888,1344
1783419167060726940,2026-07-07T17:12:47.060+07:00,540280745642542616,205121,164081,186980,1405
1783419167078908758,2026-07-07T17:12:47.078+07:00,540280745642542616,205098,164082,187006,1336
1783419167097090576,2026-07-07T17:12:47.097+07:00,540280745642542616,205127,164117,187042,1331
1783419167115272394,2026-07-07T17:12:47.115+07:00,540280745642542616,205227,164230,187101,1342
1783419167133454212,2026-07-07T17:12:47.133+07:00,540280745642542616,205286,164262,187198,1372
1783419167151636030,2026-07-07T17:12:47.151+07:00,540280745642542616,205304,164233,187166,1391
1783419167169817848,2026-07-07T17:12:47.169+07:00,540280745642542616,205328,164270,187210,1361
1783419167187999666,2026-07-07T17:12:47.188+07:00,540280745642542616,205344,164282,187247,1414
1783419167206181484,2026-07-07T17:12:47.206+07:00,540280745642542616,205343,164279,187194,1349
1783419167224363302,2026-07-07T17:12:47.224+07:00,540280745642542616,205328,164286,187238,1353
1783419167242545120,2026-07-07T17:12:47.242+07:00,540280745642542616,205241,164149,187112,1377
1783419167260726938,2026-07-07T17:12:47.260+07:00,540280745642542616,205139,164149,186989,1366
1783419167278908756,2026-07-07T17:12:47.278+07:00,540280745642542616,205082,164093,186928,1325
1783419167297090574,2026-07-07T17:12:47.297+07:00,540280745642542616,205066,164052,186887,1296
1783419167315272392,2026-07-07T17:12:47.315+07:00,540280745642542616,205057,164047,186907,1336
1783419167333454210,2026-07-07T17:12:47.333+07:00,540280745642542616,205078,164102,186861,1341
1783419167351636028,2026-07-07T17:12:47.351+07:00,540280745642542616,205040,164006,186818,1354
1783419167369817846,2026-07-07T17:12:47.369+07:00,540280745642542616,204974,163920,186733,1323
1783419167387999664,2026-07-07T17:12:47.388+07:00,540280745642542616,205033,163990,186827,1366
1783419167406181482,2026-07-07T17:12:47.406+07:00,540280745642542616,204988,163967,186835,1359
1783419167424363300,2026-07-07T17:12:47.424+07:00,540280745642542616,205034,163963,186797,1377
1783419167442545118,2026-07-07T17:12:47.442+07:00,540280745642542616,204946,164024,186808,1316
1783419167460726936,2026-07-07T17:12:47.460+07:00,540280745642542616,204981,163979,186744,1317
1783419167478908754,2026-07-07T17:12:47.478+07:00,540280745642542616,204997,163919,186791,1339
1783419167497090572,2026-07-07T17:12:47.497+07:00,540280745642542616,204934,163921,186725,1319
1783419167515272390,2026-07-07T17:12:47.515+07:00,540280745642542616,204952,163937,186651,1333
1783419167533454208,2026-07-07T17:12:47.533+07:00,540280745642542616,204969,163924,186752,1377
1783419167551636026,2026-07-07T17:12:47.551+07:00,540280745642542616,204994,163936,186707,1344
1783419167569817844,2026-07-07T17:12:47.569+07:00,540280745642542616,204971,163936,186724,1402
1783419167587999662,2026-07-07T17:12:47.588+07:00,540280745642542616,204975,163949,186750,1350
1783419167606181480,2026-07-07T17:12:47.606+07:00,540280745642542616,204931,163922,186764,1353
1783419167624363298,2026-07-07T17:12:47.624+07:00,540280745642542616,204946,163954,186727,1339
1783419167642545116,2026-07-07T17:12:47.642+07:00,540280745642542616,204994,163943,186741,1344
1783419167660726934,2026-07-07T17:12:47.660+07:00,540280745642542616,205031,163959,186709,1355
1783419167678908752,2026-07-07T17:12:47.678+07:00,540280745642542616,205030,164002,186811,1319
1783419167697090570,2026-07-07T17:12:47.697+07:00,540280745642542616,205053,164035,186832,1311
1783419167715272388,2026-07-07T17:12:47.715+07:00,540280745642542616,205169,164061,186912,1407
1783419167733454206,2026-07-07T17:12:47.733+07:00,540280745642542616,205154,164135,186910,1320
1783419167751636024,2026-07-07T17:12:47.751+07:00,540280745642542616,205242,164186,186996,1342
1783419167769817842,2026-07-07T17:12:47.769+07:00,540280745642542616,205203,164125,186955,1314
1783419167787999660,2026-07-07T17:12:47.788+07:00,540280745642542616,205257,164132,187013,1343
1783419167806181478,2026-07-07T17:12:47.806+07:00,540280745642542616,205278,164188,187020,1351
1783419167824363296,2026-07-07T17:12:47.824+07:00,540280745642542616,205258,164207,187050,1318
1783419167842545114,2026-07-07T17:12:47.842+07:00,540280745642542616,205400,164286,187170,1284
1783419167860726932,2026-07-07T17:12:47.860+07:00,540280745642542616,205451,164278,187198,1350
1783419167878908750,2026-07-07T17:12:47.878+07:00,540280746461813580,205447,164307,187215,1288
1783419167897090568,2026-07-07T17:12:47.897+07:00,540280746461813580,205540,164402,187296,1341
1783419167915272386,2026-07-07T17:12:47.915+07:00,540280746461813580,205546,164383,187299,1327
1783419167933454204,2026-07-07T17:12:47.933+07:00,540280746461813580,205680,164452,187406,1351
1783419167951636022,2026-07-07T17:12:47.951+07:00,540280746461813580,205666,164463,187482,1353
1783419167969817840,2026-07-07T17:12:47.969+07:00,540280746461813580,205699,164505,187497,1407
1783419167987999658,2026-07-07T17:12:47.988+07:00,540280746461813580,205652,164445,187454,1351
1783419168006181476,2026-07-07T17:12:48.006+07:00,540280746461813580,205651,164489,187443,1419
1783419168024363294,2026-07-07T17:12:48.024+07:00,540280746461813580,205560,164455,187357,1375
1783419168042545112,2026-07-07T17:12:48.042+07:00,540280746461813580,205467,164404,187293,1375
1783419168060726930,2026-07-07T17:12:48.060+07:00,540280746461813580,205451,164253,187227,1358
1783419168078908748,2026-07-07T17:12:48.078+07:00,540280746461813580,205354,164187,187107,1307
1783419168097090566,2026-07-07T17:12:48.097+07:00,540280746461813580,205333,164284,187145,1350
1783419168115272384,2026-07-07T17:12:48.115+07:00,540280746461813580,205297,164203,187049,1385
1783419168133454202,2026-07-07T17:12:48.133+07:00,540280746461813580,205309,164215,187073,1353
1783419168151636020,2026-07-07T17:12:48.151+07:00,540280746461813580,205299,164212,186999,1370
1783419168169817838,2026-07-07T17:12:48.169+07:00,540280746461813580,205282,164153,187017,1336
1783419168187999656,2026-07-07T17:12:48.188+07:00,540280746461813580,205275,164168,186988,1357
1783419168206181474,2026-07-07T17:12:48.206+07:00,540280746461813580,205292,164227,187040,1336
1783419168224363292,2026-07-07T17:12:48.224+07:00,540280746461813580,205283,164146,186995,1304
1783419168242545110,2026-07-07T17:12:48.242+07:00,540280746461813580,205257,164177,187026,1309
1783419168260726928,2026-07-07T17:12:48.260+07:00,540280746461813580,205246,164177,186991,1383
1783419168278908746,2026-07-07T17:12:48.278+07:00,540280746461813580,205265,164141,186942,1395
1783419168297090564,2026-07-07T17:12:48.297+07:00,540280746461813580,205267,164192,187067,1396
1783419168315272382,2026-07-07T17:12:48.315+07:00,540280746461813580,205276,164121,186981,1375
1783419168333454200,2026-07-07T17:12:48.333+07:00,540280746461813580,205317,164162,187008,1409
1783419168351636018,2026-07-07T17:12:48.351+07:00,540280746461813580,205341,164152,186971,1414
1783419168369817836,2026-07-07T17:12:48.369+07:00,540280746461813580,205284,164126,186962,1357
1783419168387999654,2026-07-07T17:12:48.388+07:00,540280746461813580,205343,164159,187007,1356
1783419168406181472,2026-07-07T17:12:48.406+07:00,540280746461813580,205356,164147,187046,1375
1783419168424363290,2026-07-07T17:12:48.424+07:00,540280746461813580,205341,164143,187027,1358
1783419168442545108,2026-07-07T17:12:48.442+07:00,540280746461813580,205396,164166,187052,1395
1783419168460726926,2026-07-07T17:12:48.460+07:00,540280746461813580,205402,164188,187049,1321
1783419168478908744,2026-07-07T17:12:48.478+07:00,540280746461813580,205442,164184,187094,1349
1783419168497090562,2026-07-07T17:12:48.497+07:00,540280746461813580,205461,164177,187152,1373
1783419168515272380,2026-07-07T17:12:48.515+07:00,540280746461813580,205481,164255,187198,1361
1783419168533454198,2026-07-07T17:12:48.533+07:00,540280746461813580,205571,164332,187290,1369
1783419168551636016,2026-07-07T17:12:48.551+07:00,540280746461813580,205536,164292,187253,1323
1783419168569817834,2026-07-07T17:12:48.569+07:00,540280746461813580,205547,164359,187312,1332
1783419168587999652,2026-07-07T17:12:48.588+07:00,540280746461813580,205666,164452,187391,1388
1783419168606181470,2026-07-07T17:12:48.606+07:00,540280746461813580,205695,164469,187394,1334
1783419168624363288,2026-07-07T17:12:48.624+07:00,540280746461813580,205758,164480,187489,1418
1783419168642545106,2026-07-07T17:12:48.642+07:00,540280746461813580,205800,164556,187569,1389
1783419168660726924,2026-07-07T17:12:48.660+07:00,540280746461813580,205828,164523,187569,1393
1783419168678908742,2026-07-07T17:12:48.678+07:00,540280746461813580,205878,164572,187648,1330
1783419168697090560,2026-07-07T17:12:48.697+07:00,540280747317503198,205854,164556,187588,1294
1783419168715272378,2026-07-07T17:12:48.715+07:00,540280747317503198,206008,164654,187651,1325
1783419168733454196,2026-07-07T17:12:48.733+07:00,540280747317503198,206002,164616,187745,1345
1783419168751636014,2026-07-07T17:12:48.751+07:00,540280747317503198,206024,164687,187783,1296
1783419168769817832,2026-07-07T17:12:48.769+07:00,540280747317503198,205978,164683,187725,1274
1783419168787999650,2026-07-07T17:12:48.788+07:00,540280747317503198,205941,164653,187695,1311
1783419168806181468,2026-07-07T17:12:48.806+07:00,540280747317503198,205950,164642,187674,1378
1783419168824363286,2026-07-07T17:12:48.824+07:00,540280747317503198,205896,164608,187667,1361
1783419168842545104,2026-07-07T17:12:48.842+07:00,540280747317503198,205790,164500,187501,1354
1783419168860726922,2026-07-07T17:12:48.860+07:00,540280747317503198,205749,164463,187488,1313
1783419168878908740,2026-07-07T17:12:48.878+07:00,540280747317503198,205768,164443,187488,1324
1783419168897090558,2026-07-07T17:12:48.897+07:00,540280747317503198,205732,164407,187424,1331
1783419168915272376,2026-07-07T17:12:48.915+07:00,540280747317503198,205706,164410,187405,1391
1783419168933454194,2026-07-07T17:12:48.933+07:00,540280747317503198,205695,164465,187374,1336
1783419168951636012,2026-07-07T17:12:48.951+07:00,540280747317503198,205645,164398,187363,1358
1783419168969817830,2026-07-07T17:12:48.969+07:00,540280747317503198,205683,164361,187439,1317
1783419168987999648,2026-07-07T17:12:48.988+07:00,540280747317503198,205692,164403,187411,1382
1783419169006181466,2026-07-07T17:12:49.006+07:00,540280747317503198,205671,164382,187376,1354
1783419169024363284,2026-07-07T17:12:49.024+07:00,540280747317503198,205615,164309,187397,1293
1783419169042545102,2026-07-07T17:12:49.042+07:00,540280747317503198,205649,164346,187373,1319
1783419169060726920,2026-07-07T17:12:49.060+07:00,540280747317503198,205688,164333,187400,1359
1783419169078908738,2026-07-07T17:12:49.078+07:00,540280747317503198,205610,164323,187378,1341
1783419169097090556,2026-07-07T17:12:49.097+07:00,540280747317503198,205633,164395,187411,1391
1783419169115272374,2026-07-07T17:12:49.115+07:00,540280747317503198,205628,164331,187371,1350
1783419169133454192,2026-07-07T17:12:49.133+07:00,540280747317503198,205599,164252,187336,1352
1783419169151636010,2026-07-07T17:12:49.151+07:00,540280747317503198,205618,164274,187340,1328
1783419169169817828,2026-07-07T17:12:49.169+07:00,540280747317503198,205630,164338,187330,1376
1783419169187999646,2026-07-07T17:12:49.188+07:00,540280747317503198,205678,164357,187422,1326
1783419169206181464,2026-07-07T17:12:49.206+07:00,540280747317503198,205747,164343,187424,1327
1783419169224363282,2026-07-07T17:12:49.224+07:00,540280747317503198,205753,164453,187487,1317
1783419169242545100,2026-07-07T17:12:49.242+07:00,540280747317503198,205763,164439,187578,1328
1783419169260726918,2026-07-07T17:12:49.260+07:00,540280747317503198,205837,164456,187579,1374
1783419169278908736,2026-07-07T17:12:49.278+07:00,540280747317503198,205813,164545,187641,1376
1783419169297090554,2026-07-07T17:12:49.297+07:00,540280747317503198,205810,164557,187657,1348
1783419169315272372,2026-07-07T17:12:49.315+07:00,540280747317503198,205887,164626,187712,1358
1783419169333454190,2026-07-07T17:12:49.333+07:00,540280747317503198,205934,164602,187710,1299
1783419169351636008,2026-07-07T17:12:49.351+07:00,540280747317503198,205941,164603,187812,1292
1783419169369817826,2026-07-07T17:12:49.369+07:00,540280747317503198,205992,164621,187841,1285
1783419169387999644,2026-07-07T17:12:49.388+07:00,540280747317503198,205983,164673,187844,1269
1783419169406181462,2026-07-07T17:12:49.406+07:00,540280747317503198,206075,164733,187836,1324
1783419169424363280,2026-07-07T17:12:49.424+07:00,540280747317503198,206134,164734,187952,1320
1783419169442545098,2026-07-07T17:12:49.442+07:00,540280747317503198,206145,164835,188019,1318
1783419169460726916,2026-07-07T17:12:49.460+07:00,540280747317503198,206241,164812,188068,1351
1783419169478908734,2026-07-07T17:12:49.478+07:00,540280747317503198,206255,164886,188163,1292
1783419169497090552,2026-07-07T17:12:49.497+07:00,540280747317503198,206304,164926,188156,1309
1783419169515272370,2026-07-07T17:12:49.515+07:00,540280747317503198,206372,164901,188234,1406
1783419169533454188,2026-07-07T17:12:49.533+07:00,540280747317503198,206243,164828,188126,1316
1783419169551636006,2026-07-07T17:12:49.551+07:00,540280748154921711,206276,164848,188143,1370
1783419169569817824,2026-07-07T17:12:49.569+07:00,540280748154921711,206234,164787,188056,1376
1783419169587999642,2026-07-07T17:12:49.588+07:00,540280748154921711,206174,164760,187979,1322
1783419169606181460,2026-07-07T17:12:49.606+07:00,540280748154921711,206074,164697,187965,1326
1783419169624363278,2026-07-07T17:12:49.624+07:00,540280748154921711,206095,164645,187938,1351
1783419169642545096,2026-07-07T17:12:49.642+07:00,540280748154921711,205945,164628,187813,1317
1783419169660726914,2026-07-07T17:12:49.660+07:00,540280748154921711,206021,164634,187817,1365
1783419169678908732,2026-07-07T17:12:49.678+07:00,540280748154921711,206003,164593,187816,1362
1783419169697090550,2026-07-07T17:12:49.697+07:00,540280748154921711,205966,164531,187843,1322
1783419169715272368,2026-07-07T17:12:49.715+07:00,540280748154921711,205974,164614,187833,1309
1783419169733454186,2026-07-07T17:12:49.733+07:00,540280748154921711,205929,164589,187821,1369
1783419169751636004,2026-07-07T17:12:49.751+07:00,540280748154921711,205927,164545,187760,1360
1783419169769817822,2026-07-07T17:12:49.769+07:00,540280748154921711,205871,164493,187733,1310
1783419169787999640,2026-07-07T17:12:49.788+07:00,540280748154921711,205949,164607,187824,1345
1783419169806181458,2026-07-07T17:12:49.806+07:00,540280748154921711,205894,164512,187795,1370
1783419169824363276,2026-07-07T17:12:49.824+07:00,540280748154921711,205945,164590,187824,1417
1783419169842545094,2026-07-07T17:12:49.842+07:00,540280748154921711,205896,164581,187813,1350
1783419169860726912,2026-07-07T17:12:49.860+07:00,540280748154921711,205851,164542,187722,1325
1783419169878908730,2026-07-07T17:12:49.878+07:00,540280748154921711,205866,164517,187780,1315
1783419169897090548,2026-07-07T17:12:49.897+07:00,540280748154921711,205883,164546,187856,1293
1783419169915272366,2026-07-07T17:12:49.915+07:00,540280748154921711,205908,164544,187816,1345
1783419169933454184,2026-07-07T17:12:49.933+07:00,540280748154921711,205839,164479,187787,1304
1783419169951636002,2026-07-07T17:12:49.951+07:00,540280748154921711,205927,164526,187813,1336
1783419169969817820,2026-07-07T17:12:49.969+07:00,540280748154921711,205937,164486,187825,1357
1783419169987999638,2026-07-07T17:12:49.988+07:00,540280748154921711,205921,164520,187922,1328
1783419170006181456,2026-07-07T17:12:50.006+07:00,540280748154921711,206001,164592,187939,1392
1783419170024363274,2026-07-07T17:12:50.024+07:00,540280748154921711,206017,164625,187964,1369
1783419170042545092,2026-07-07T17:12:50.042+07:00,540280748154921711,206058,164647,187948,1330
1783419170060726910,2026-07-07T17:12:50.060+07:00,540280748154921711,206083,164665,187964,1308
1783419170078908728,2026-07-07T17:12:50.078+07:00,540280748154921711,206088,164677,188009,1304
1783419170097090546,2026-07-07T17:12:50.097+07:00,540280748154921711,206193,164748,188111,1386
1783419170115272364,2026-07-07T17:12:50.115+07:00,540280748154921711,206231,164775,188166,1353
1783419170133454182,2026-07-07T17:12:50.133+07:00,540280748154921711,206291,164808,188212,1368
1783419170151636000,2026-07-07T17:12:50.151+07:00,540280748154921711,206238,164793,188250,1350
1783419170169817818,2026-07-07T17:12:50.169+07:00,540280748154921711,206247,164823,188265,1387
1783419170187999636,2026-07-07T17:12:50.188+07:00,540280748154921711,206319,164861,188292,1359
1783419170206181454,2026-07-07T17:12:50.206+07:00,540280748154921711,206353,164944,188380,1349
1783419170224363272,2026-07-07T17:12:50.224+07:00,540280748154921711,206361,164884,188444,1350
1783419170242545090,2026-07-07T17:12:50.242+07:00,540280748154921711,206471,164962,188487,1404
1783419170260726908,2026-07-07T17:12:50.260+07:00,540280748154921711,206495,165005,188469,1340
1783419170278908726,2026-07-07T17:12:50.278+07:00,540280748154921711,206580,165060,188529,1360
1783419170297090544,2026-07-07T17:12:50.297+07:00,540280748154921711,206605,165113,188574,1400
1783419170315272362,2026-07-07T17:12:50.315+07:00,540280748154921711,206512,164986,188469,1339
1783419170333454180,2026-07-07T17:12:50.333+07:00,540280748154921711,206409,164962,188487,1314
1783419170351635998,2026-07-07T17:12:50.351+07:00,540280748154921711,206351,164923,188415,1365
1783419170369817816,2026-07-07T17:12:50.369+07:00,540280748154921711,206282,164829,188306,1314
1783419170387999634,2026-07-07T17:12:50.388+07:00,540280749028760380,206213,164803,188248,1323
1783419170406181452,2026-07-07T17:12:50.406+07:00,540280749028760380,206235,164739,188259,1367
1783419170424363270,2026-07-07T17:12:50.424+07:00,540280749028760380,206133,164659,188209,1339
1783419170442545088,2026-07-07T17:12:50.442+07:00,540280749028760380,206178,164668,188199,1393
1783419170460726906,2026-07-07T17:12:50.460+07:00,540280749028760380,206116,164627,188104,1354
1783419170478908724,2026-07-07T17:12:50.478+07:00,540280749028760380,206083,164649,188206,1335
1783419170497090542,2026-07-07T17:12:50.497+07:00,540280749028760380,206066,164726,188177,1348
1783419170515272360,2026-07-07T17:12:50.515+07:00,540280749028760380,206083,164662,188137,1361
1783419170533454178,2026-07-07T17:12:50.533+07:00,540280749028760380,206058,164679,188100,1370
1783419170551635996,2026-07-07T17:12:50.551+07:00,540280749028760380,206015,164684,188073,1370
1783419170569817814,2026-07-07T17:12:50.569+07:00,540280749028760380,206072,164605,188098,1388
1783419170587999632,2026-07-07T17:12:50.588+07:00,540280749028760380,205978,164605,188071,1342
1783419170606181450,2026-07-07T17:12:50.606+07:00,540280749028760380,205939,164540,188034,1338
1783419170624363268,2026-07-07T17:12:50.624+07:00,540280749028760380,205983,164568,188071,1430
1783419170642545086,2026-07-07T17:12:50.642+07:00,540280749028760380,206002,164588,188139,1421
1783419170660726904,2026-07-07T17:12:50.660+07:00,540280749028760380,205928,164599,188101,1378
1783419170678908722,2026-07-07T17:12:50.678+07:00,540280749028760380,205924,164550,188057,1318
1783419170697090540,2026-07-07T17:12:50.697+07:00,540280749028760380,205962,164604,188040,1341
1783419170715272358,2026-07-07T17:12:50.715+07:00,540280749028760380,205971,164535,188066,1334
1783419170733454176,2026-07-07T17:12:50.733+07:00,540280749028760380,206054,164565,188154,1336
1783419170751635994,2026-07-07T17:12:50.751+07:00,540280749028760380,205999,164601,188141,1371
1783419170769817812,2026-07-07T17:12:50.769+07:00,540280749028760380,205990,164636,188235,1384
1783419170787999630,2026-07-07T17:12:50.788+07:00,540280749028760380,205989,164597,188159,1280
1783419170806181448,2026-07-07T17:12:50.806+07:00,540280749028760380,206050,164692,188226,1322
1783419170824363266,2026-07-07T17:12:50.824+07:00,540280749028760380,206052,164647,188246,1325
1783419170842545084,2026-07-07T17:12:50.842+07:00,540280749028760380,206109,164668,188318,1371
1783419170860726902,2026-07-07T17:12:50.860+07:00,540280749028760380,206138,164675,188350,1360
1783419170878908720,2026-07-07T17:12:50.878+07:00,540280749028760380,206138,164679,188376,1399
1783419170897090538,2026-07-07T17:12:50.897+07:00,540280749028760380,206203,164723,188401,1348
1783419170915272356,2026-07-07T17:12:50.915+07:00,540280749028760380,206187,164697,188417,1351
1783419170933454174,2026-07-07T17:12:50.933+07:00,540280749028760380,206208,164741,188479,1353
1783419170951635992,2026-07-07T17:12:50.951+07:00,540280749028760380,206245,164692,188506,1318
1783419170969817810,2026-07-07T17:12:50.969+07:00,540280749028760380,206324,164830,188536,1388
1783419170987999628,2026-07-07T17:12:50.988+07:00,540280749028760380,206286,164794,188563,1333
1783419171006181446,2026-07-07T17:12:51.006+07:00,540280749028760380,206333,164813,188630,1366
1783419171024363264,2026-07-07T17:12:51.024+07:00,540280749028760380,206371,164821,188670,1350
1783419171042545082,2026-07-07T17:12:51.042+07:00,540280749028760380,206435,164878,188711,1320
1783419171060726900,2026-07-07T17:12:51.060+07:00,540280749028760380,206481,164937,188784,1404
1783419171078908718,2026-07-07T17:12:51.078+07:00,540280749028760380,206403,164880,188705,1429
1783419171097090536,2026-07-07T17:12:51.097+07:00,540280749028760380,206304,164825,188643,1371
1783419171115272354,2026-07-07T17:12:51.115+07:00,540280749028760380,206227,164795,188532,1395
1783419171133454172,2026-07-07T17:12:51.133+07:00,540280749028760380,206109,164693,188416,1336
1783419171151635990,2026-07-07T17:12:51.151+07:00,540280749028760380,206047,164683,188374,1341
1783419171169817808,2026-07-07T17:12:51.169+07:00,540280749028760380,206043,164650,188361,1360
1783419171187999626,2026-07-07T17:12:51.188+07:00,540280749028760380,205929,164606,188329,1328
1783419171206181444,2026-07-07T17:12:51.206+07:00,540280749028760380,205930,164560,188260,1382
1783419171224363262,2026-07-07T17:12:51.224+07:00,540280749028760380,205903,164542,188189,1390
1783419171242545080,2026-07-07T17:12:51.242+07:00,540280749028760380,205889,164556,188235,1348
1783419171260726898,2026-07-07T17:12:51.260+07:00,540280749884392030,205786,164451,188209,1324
1783419171278908716,2026-07-07T17:12:51.278+07:00,540280749884392030,205805,164455,188225,1400
1783419171297090534,2026-07-07T17:12:51.297+07:00,540280749884392030,205749,164437,188146,1358
1783419171315272352,2026-07-07T17:12:51.315+07:00,540280749884392030,205697,164387,188065,1354
1783419171333454170,2026-07-07T17:12:51.333+07:00,540280749884392030,205663,164370,188098,1313
1783419171351635988,2026-07-07T17:12:51.351+07:00,540280749884392030,205664,164349,188086,1395
1783419171369817806,2026-07-07T17:12:51.369+07:00,540280749884392030,205611,164381,188058,1347
1783419171387999624,2026-07-07T17:12:51.388+07:00,540280749884392030,205508,164353,187978,1308
1783419171406181442,2026-07-07T17:12:51.406+07:00,540280749884392030,205556,164309,187984,1396
1783419171424363260,2026-07-07T17:12:51.424+07:00,540280749884392030,205527,164288,188000,1394
1783419171442545078,2026-07-07T17:12:51.442+07:00,540280749884392030,205488,164222,187974,1366
1783419171460726896,2026-07-07T17:12:51.460+07:00,540280749884392030,205536,164263,188041,1379
1783419171478908714,2026-07-07T17:12:51.478+07:00,540280749884392030,205526,164214,188001,1370
1783419171497090532,2026-07-07T17:12:51.497+07:00,540280749884392030,205497,164255,188020,1396
1783419171515272350,2026-07-07T17:12:51.515+07:00,540280749884392030,205560,164267,188051,1385
1783419171533454168,2026-07-07T17:12:51.533+07:00,540280749884392030,205485,164264,187998,1386
1783419171551635986,2026-07-07T17:12:51.551+07:00,540280749884392030,205542,164315,188053,1348
1783419171569817804,2026-07-07T17:12:51.569+07:00,540280749884392030,205519,164308,188040,1323
1783419171587999622,2026-07-07T17:12:51.588+07:00,540280749884392030,205588,164317,188097,1331
1783419171606181440,2026-07-07T17:12:51.606+07:00,540280749884392030,205605,164267,188112,1417
1783419171624363258,2026-07-07T17:12:51.624+07:00,540280749884392030,205492,164257,188129,1321
1783419171642545076,2026-07-07T17:12:51.642+07:00,540280749884392030,205584,164262,188204,1352
1783419171660726894,2026-07-07T17:12:51.660+07:00,540280749884392030,205557,164321,188193,1359
1783419171678908712,2026-07-07T17:12:51.678+07:00,540280749884392030,205599,164330,188223,1385
1783419171697090530,2026-07-07T17:12:51.697+07:00,540280749884392030,205622,164316,188253,1417
1783419171715272348,2026-07-07T17:12:51.715+07:00,540280749884392030,205642,164387,188239,1385
1783419171733454166,2026-07-07T17:12:51.733+07:00,540280749884392030,205553,164422,188256,1384
1783419171751635984,2026-07-07T17:12:51.751+07:00,540280749884392030,205664,164469,188315,1387
1783419171769817802,2026-07-07T17:12:51.769+07:00,540280749884392030,205697,164454,188354,1395
1783419171787999620,2026-07-07T17:12:51.788+07:00,540280749884392030,205722,164489,188388,1345
1783419171806181438,2026-07-07T17:12:51.806+07:00,540280749884392030,205714,164488,188469,1305
1783419171824363256,2026-07-07T17:12:51.824+07:00,540280749884392030,205794,164500,188497,1411
1783419171842545074,2026-07-07T17:12:51.842+07:00,540280749884392030,205770,164511,188449,1321
1783419171860726892,2026-07-07T17:12:51.860+07:00,540280749884392030,205729,164516,188477,1394
1783419171878908710,2026-07-07T17:12:51.878+07:00,540280749884392030,205600,164407,188347,1358
1783419171897090528,2026-07-07T17:12:51.897+07:00,540280749884392030,205537,164439,188225,1402
1783419171915272346,2026-07-07T17:12:51.915+07:00,540280749884392030,205425,164308,188194,1389
1783419171933454164,2026-07-07T17:12:51.933+07:00,540280749884392030,205369,164159,188088,1337
1783419171951635982,2026-07-07T17:12:51.951+07:00,540280749884392030,205309,164152,188051,1368
1783419171969817800,2026-07-07T17:12:51.969+07:00,540280749884392030,205198,164098,187964,1299
1783419171987999618,2026-07-07T17:12:51.988+07:00,540280749884392030,205223,164041,187918,1344
1783419172006181436,2026-07-07T17:12:52.006+07:00,540280749884392030,205064,164001,187884,1353
1783419172024363254,2026-07-07T17:12:52.024+07:00,540280749884392030,205106,164076,187911,1442
1783419172042545072,2026-07-07T17:12:52.042+07:00,540280749884392030,205001,164002,187836,1380
1783419172060726890,2026-07-07T17:12:52.060+07:00,540280749884392030,205027,164017,187794,1316
1783419172078908708,2026-07-07T17:12:52.078+07:00,540280749884392030,204997,163976,187813,1334
1783419172097090526,2026-07-07T17:12:52.097+07:00,540280749884392030,204930,163968,187707,1391
1783419172115272344,2026-07-07T17:12:52.115+07:00,540280750721732706,204923,163931,187708,1360
1783419172133454162,2026-07-07T17:12:52.133+07:00,540280750721732706,204881,163846,187642,1353
1783419172151635980,2026-07-07T17:12:52.151+07:00,540280750721732706,204861,163803,187673,1353
1783419172169817798,2026-07-07T17:12:52.169+07:00,540280750721732706,204879,163812,187705,1387
1783419172187999616,2026-07-07T17:12:52.188+07:00,540280750721732706,204829,163771,187588,1357
1783419172206181434,2026-07-07T17:12:52.206+07:00,540280750721732706,204788,163782,187573,1376
1783419172224363252,2026-07-07T17:12:52.224+07:00,540280750721732706,204771,163839,187571,1340
1783419172242545070,2026-07-07T17:12:52.242+07:00,540280750721732706,204812,163846,187695,1335
1783419172260726888,2026-07-07T17:12:52.260+07:00,540280750721732706,204721,163821,187612,1368
1783419172278908706,2026-07-07T17:12:52.278+07:00,540280750721732706,204761,163792,187648,1365
1783419172297090524,2026-07-07T17:12:52.297+07:00,540280750721732706,204794,163814,187659,1411
