host_timestamp_ns,host_timestamp_iso,pmd_timestamp,ppg0,ppg1,ppg2,ambient
1783422521191547382,2026-07-07T18:08:41.191+07:00,540284099934266926,214720,190721,198106,1365
1783422521209729200,2026-07-07T18:08:41.209+07:00,540284099934266926,214563,190640,197983,1304
1783422521227911018,2026-07-07T18:08:41.227+07:00,540284099934266926,214528,190549,197873,1297
1783422521246092836,2026-07-07T18:08:41.246+07:00,540284099934266926,214495,190428,197798,1273
1783422521264274654,2026-07-07T18:08:41.264+07:00,540284099934266926,214437,190412,197756,1279
1783422521282456472,2026-07-07T18:08:41.282+07:00,540284099934266926,214480,190362,197677,1283
1783422521300638290,2026-07-07T18:08:41.300+07:00,540284099934266926,214409,190324,197612,1255
1783422521318820108,2026-07-07T18:08:41.318+07:00,540284099934266926,214353,190183,197583,1271
1783422521337001926,2026-07-07T18:08:41.337+07:00,540284099934266926,214327,190095,197494,1269
1783422521355183744,2026-07-07T18:08:41.355+07:00,540284099934266926,214247,190102,197364,1322
1783422521373365562,2026-07-07T18:08:41.373+07:00,540284099934266926,214278,190237,197234,1214
1783422521391547380,2026-07-07T18:08:41.391+07:00,540284099934266926,214500,190585,197154,1226
1783422521409729198,2026-07-07T18:08:41.409+07:00,540284099934266926,214950,191175,197120,1266
1783422521427911016,2026-07-07T18:08:41.427+07:00,540284099934266926,215420,191643,197014,1315
1783422521446092834,2026-07-07T18:08:41.446+07:00,540284099934266926,215758,191686,197063,1307
1783422521464274652,2026-07-07T18:08:41.464+07:00,540284099934266926,215931,191428,197308,1362
1783422521482456470,2026-07-07T18:08:41.482+07:00,540284099934266926,215397,190727,196960,1317
1783422521500638288,2026-07-07T18:08:41.500+07:00,540284099934266926,214510,190186,196276,1353
1783422521518820106,2026-07-07T18:08:41.518+07:00,540284099934266926,214017,189885,195204,1355
1783422521537001924,2026-07-07T18:08:41.537+07:00,540284099934266926,214095,189541,194493,1347
1783422521555183742,2026-07-07T18:08:41.555+07:00,540284099934266926,214199,189144,194213,1338
1783422521573365560,2026-07-07T18:08:41.573+07:00,540284099934266926,214461,188916,193960,1296
1783422521591547378,2026-07-07T18:08:41.591+07:00,540284099934266926,214649,188841,193758,1288
1783422521609729196,2026-07-07T18:08:41.609+07:00,540284099934266926,215103,188869,193547,1291
1783422521627911014,2026-07-07T18:08:41.627+07:00,540284099934266926,215620,189089,193473,1337
1783422521646092832,2026-07-07T18:08:41.646+07:00,540284099934266926,216153,189364,193416,1335
1783422521664274650,2026-07-07T18:08:41.664+07:00,540284099934266926,216543,189675,193377,1313
1783422521682456468,2026-07-07T18:08:41.682+07:00,540284099934266926,216847,189692,193247,1297
1783422521700638286,2026-07-07T18:08:41.700+07:00,540284099934266926,216748,189593,192966,1308
1783422521718820104,2026-07-07T18:08:41.718+07:00,540284099934266926,216736,189556,192637,1332
1783422521737001922,2026-07-07T18:08:41.737+07:00,540284099934266926,217011,189667,192457,1353
1783422521755183740,2026-07-07T18:08:41.755+07:00,540284099934266926,217544,189953,192554,1375
1783422521773365558,2026-07-07T18:08:41.773+07:00,540284099934266926,218448,190406,192893,1394
1783422521791547376,2026-07-07T18:08:41.791+07:00,540284099934266926,219450,190941,193432,1410
1783422521809729194,2026-07-07T18:08:41.809+07:00,540284099934266926,220370,191449,193859,1427
1783422521827911012,2026-07-07T18:08:41.827+07:00,540284099934266926,221113,191770,194202,1390
1783422521846092830,2026-07-07T18:08:41.846+07:00,540284100571176061,221651,192076,194489,1360
1783422521864274648,2026-07-07T18:08:41.864+07:00,540284100571176061,222010,192252,194617,1354
1783422521882456466,2026-07-07T18:08:41.882+07:00,540284100571176061,222426,192438,194824,1382
1783422521900638284,2026-07-07T18:08:41.900+07:00,540284100571176061,222874,192621,195011,1368
1783422521918820102,2026-07-07T18:08:41.918+07:00,540284100571176061,223340,192825,195129,1405
1783422521937001920,2026-07-07T18:08:41.937+07:00,540284100571176061,223781,193024,195343,1409
1783422521955183738,2026-07-07T18:08:41.955+07:00,540284100571176061,224174,193161,195473,1408
1783422521973365556,2026-07-07T18:08:41.973+07:00,540284100571176061,224620,193342,195659,1406
1783422521991547374,2026-07-07T18:08:41.991+07:00,540284100571176061,225183,193514,195839,1370
1783422522009729192,2026-07-07T18:08:42.009+07:00,540284100571176061,225691,193737,196055,1405
1783422522027911010,2026-07-07T18:08:42.027+07:00,540284100571176061,226434,194208,196504,1626
1783422522046092828,2026-07-07T18:08:42.046+07:00,540284100571176061,227078,194508,196854,1678
1783422522064274646,2026-07-07T18:08:42.064+07:00,540284100571176061,227603,194731,197171,1612
1783422522082456464,2026-07-07T18:08:42.082+07:00,540284100571176061,228138,194967,197503,1547
1783422522100638282,2026-07-07T18:08:42.100+07:00,540284100571176061,228662,195190,197817,1549
1783422522118820100,2026-07-07T18:08:42.118+07:00,540284100571176061,229181,195373,198157,1528
1783422522137001918,2026-07-07T18:08:42.137+07:00,540284100571176061,229827,195521,198574,1513
1783422522155183736,2026-07-07T18:08:42.155+07:00,540284100571176061,230552,195639,198973,1485
1783422522173365554,2026-07-07T18:08:42.173+07:00,540284100571176061,231386,195708,199437,1465
1783422522191547372,2026-07-07T18:08:42.191+07:00,540284100571176061,232261,195857,200037,1444
1783422522209729190,2026-07-07T18:08:42.209+07:00,540284100571176061,233206,195904,200721,1457
1783422522227911008,2026-07-07T18:08:42.227+07:00,540284100571176061,234067,196051,201501,1462
1783422522246092826,2026-07-07T18:08:42.246+07:00,540284100571176061,234717,196156,202271,1442
1783422522264274644,2026-07-07T18:08:42.264+07:00,540284100571176061,235264,196189,203123,1426
1783422522282456462,2026-07-07T18:08:42.282+07:00,540284100571176061,235803,196323,203907,1444
1783422522300638280,2026-07-07T18:08:42.300+07:00,540284100571176061,236125,196581,204606,1428
1783422522318820098,2026-07-07T18:08:42.318+07:00,540284100571176061,236450,196690,205279,1394
1783422522337001916,2026-07-07T18:08:42.337+07:00,540284100571176061,236780,196919,205849,1446
1783422522355183734,2026-07-07T18:08:42.355+07:00,540284100571176061,237266,197135,206374,1446
1783422522373365552,2026-07-07T18:08:42.373+07:00,540284100571176061,237896,197521,207067,1421
1783422522391547370,2026-07-07T18:08:42.391+07:00,540284100571176061,238592,197919,207665,1422
1783422522409729188,2026-07-07T18:08:42.409+07:00,540284100571176061,239138,198255,208201,1434
1783422522427911006,2026-07-07T18:08:42.427+07:00,540284100571176061,239514,198496,208501,1393
1783422522446092824,2026-07-07T18:08:42.446+07:00,540284100571176061,239876,198775,208785,1433
1783422522464274642,2026-07-07T18:08:42.464+07:00,540284100571176061,240065,198800,208863,1361
1783422522482456460,2026-07-07T18:08:42.482+07:00,540284101335534467,240274,198858,208853,1425
1783422522500638278,2026-07-07T18:08:42.500+07:00,540284101335534467,240396,198767,208734,1409
1783422522518820096,2026-07-07T18:08:42.518+07:00,540284101335534467,240378,198715,208558,1401
1783422522537001914,2026-07-07T18:08:42.537+07:00,540284101335534467,240470,198696,208501,1417
1783422522555183732,2026-07-07T18:08:42.555+07:00,540284101335534467,240519,198639,208395,1408
1783422522573365550,2026-07-07T18:08:42.573+07:00,540284101335534467,240722,198537,208293,1498
1783422522591547368,2026-07-07T18:08:42.591+07:00,540284101335534467,240768,198465,208125,1409
1783422522609729186,2026-07-07T18:08:42.609+07:00,540284101335534467,240869,198360,207949,1401
1783422522627911004,2026-07-07T18:08:42.627+07:00,540284101335534467,241021,198278,207844,1416
1783422522646092822,2026-07-07T18:08:42.646+07:00,540284101335534467,241250,198154,207829,1429
1783422522664274640,2026-07-07T18:08:42.664+07:00,540284101335534467,241381,198114,207779,1441
1783422522682456458,2026-07-07T18:08:42.682+07:00,540284101335534467,241405,197971,207670,1387
1783422522700638276,2026-07-07T18:08:42.700+07:00,540284101335534467,241628,197866,207651,1464
1783422522718820094,2026-07-07T18:08:42.718+07:00,540284101335534467,241564,197695,207652,1455
1783422522737001912,2026-07-07T18:08:42.737+07:00,540284101335534467,241302,197435,207520,1455
1783422522755183730,2026-07-07T18:08:42.755+07:00,540284101335534467,241014,197161,207314,1420
1783422522773365548,2026-07-07T18:08:42.773+07:00,540284101335534467,240637,196992,207245,1464
1783422522791547366,2026-07-07T18:08:42.791+07:00,540284101335534467,240275,196811,207113,1452
1783422522809729184,2026-07-07T18:08:42.809+07:00,540284101335534467,240003,196702,207005,1465
1783422522827911002,2026-07-07T18:08:42.827+07:00,540284101335534467,239775,196706,206890,1435
1783422522846092820,2026-07-07T18:08:42.846+07:00,540284101335534467,239585,196630,206701,1452
1783422522864274638,2026-07-07T18:08:42.864+07:00,540284101335534467,239448,196591,206555,1452
1783422522882456456,2026-07-07T18:08:42.882+07:00,540284101335534467,239262,196646,206471,1488
1783422522900638274,2026-07-07T18:08:42.900+07:00,540284101335534467,239006,196680,206269,1421
1783422522918820092,2026-07-07T18:08:42.918+07:00,540284101335534467,238823,196603,206008,1418
1783422522937001910,2026-07-07T18:08:42.937+07:00,540284101335534467,238694,196601,205812,1507
1783422522955183728,2026-07-07T18:08:42.955+07:00,540284101335534467,238540,196608,205615,1420
1783422522973365546,2026-07-07T18:08:42.973+07:00,540284101335534467,238448,196598,205409,1379
1783422522991547364,2026-07-07T18:08:42.991+07:00,540284101335534467,238412,196521,205246,1400
1783422523009729182,2026-07-07T18:08:43.009+07:00,540284101335534467,238372,196410,205084,1411
1783422523027911000,2026-07-07T18:08:43.027+07:00,540284101335534467,238268,196325,204869,1463
1783422523046092818,2026-07-07T18:08:43.046+07:00,540284101335534467,238344,196264,204781,1436
1783422523064274636,2026-07-07T18:08:43.064+07:00,540284101335534467,238366,196274,204694,1481
1783422523082456454,2026-07-07T18:08:43.082+07:00,540284101335534467,238395,196323,204607,1492
1783422523100638272,2026-07-07T18:08:43.100+07:00,540284101335534467,238296,196291,204317,1407
1783422523118820090,2026-07-07T18:08:43.118+07:00,540284101335534467,238190,196265,204153,1498
1783422523137001908,2026-07-07T18:08:43.137+07:00,540284101335534467,237753,196014,203649,1372
1783422523155183726,2026-07-07T18:08:43.155+07:00,540284101335534467,237484,195835,203336,1428
1783422523173365544,2026-07-07T18:08:43.173+07:00,540284101335534467,237358,195828,203072,1478
1783422523191547362,2026-07-07T18:08:43.191+07:00,540284101335534467,237180,195676,202887,1406
1783422523209729180,2026-07-07T18:08:43.209+07:00,540284101335534467,236991,195644,202663,1434
1783422523227910998,2026-07-07T18:08:43.227+07:00,540284101335534467,236822,195608,202469,1416
1783422523246092816,2026-07-07T18:08:43.246+07:00,540284102063449803,236804,195640,202380,1411
1783422523264274634,2026-07-07T18:08:43.264+07:00,540284102063449803,236776,195655,202315,1417
1783422523282456452,2026-07-07T18:08:43.282+07:00,540284102063449803,236786,195679,202254,1463
1783422523300638270,2026-07-07T18:08:43.300+07:00,540284102063449803,236849,195624,202283,1459
1783422523318820088,2026-07-07T18:08:43.318+07:00,540284102063449803,236865,195582,202273,1423
1783422523337001906,2026-07-07T18:08:43.337+07:00,540284102063449803,236865,195580,202376,1447
1783422523355183724,2026-07-07T18:08:43.355+07:00,540284102063449803,236869,195512,202427,1440
1783422523373365542,2026-07-07T18:08:43.373+07:00,540284102063449803,236909,195509,202546,1420
1783422523391547360,2026-07-07T18:08:43.391+07:00,540284102063449803,236992,195564,202624,1457
1783422523409729178,2026-07-07T18:08:43.409+07:00,540284102063449803,237152,195592,202663,1450
1783422523427910996,2026-07-07T18:08:43.427+07:00,540284102063449803,237327,195670,202733,1393
1783422523446092814,2026-07-07T18:08:43.446+07:00,540284102063449803,237529,195753,202851,1451
1783422523464274632,2026-07-07T18:08:43.464+07:00,540284102063449803,237691,195837,203037,1445
1783422523482456450,2026-07-07T18:08:43.482+07:00,540284102063449803,237957,195947,203090,1453
1783422523500638268,2026-07-07T18:08:43.500+07:00,540284102063449803,238266,196075,203286,1461
1783422523518820086,2026-07-07T18:08:43.518+07:00,540284102063449803,238603,196253,203441,1446
1783422523537001904,2026-07-07T18:08:43.537+07:00,540284102063449803,238902,196403,203544,1402
1783422523555183722,2026-07-07T18:08:43.555+07:00,540284102063449803,239326,196596,203800,1461
1783422523573365540,2026-07-07T18:08:43.573+07:00,540284102063449803,239728,196793,204044,1492
1783422523591547358,2026-07-07T18:08:43.591+07:00,540284102063449803,240143,196987,204293,1489
1783422523609729176,2026-07-07T18:08:43.609+07:00,540284102063449803,240633,197226,204645,1561
1783422523627910994,2026-07-07T18:08:43.627+07:00,540284102063449803,241131,197485,204993,1583
1783422523646092812,2026-07-07T18:08:43.646+07:00,540284102063449803,241654,197781,205311,1556
1783422523664274630,2026-07-07T18:08:43.664+07:00,540284102063449803,242125,198139,205646,1461
1783422523682456448,2026-07-07T18:08:43.682+07:00,540284102063449803,242693,198485,206135,1501
1783422523700638266,2026-07-07T18:08:43.700+07:00,540284102063449803,243222,198949,206510,1492
1783422523718820084,2026-07-07T18:08:43.718+07:00,540284102063449803,243747,199331,206972,1481
1783422523737001902,2026-07-07T18:08:43.737+07:00,540284102063449803,244179,199708,207382,1429
1783422523755183720,2026-07-07T18:08:43.755+07:00,540284102063449803,244595,200077,207744,1407
1783422523773365538,2026-07-07T18:08:43.773+07:00,540284102063449803,245007,200459,208130,1475
1783422523791547356,2026-07-07T18:08:43.791+07:00,540284102063449803,245237,200726,208367,1465
1783422523809729174,2026-07-07T18:08:43.809+07:00,540284102063449803,245397,200948,208554,1457
1783422523827910992,2026-07-07T18:08:43.827+07:00,540284102063449803,245537,201041,208686,1450
1783422523846092810,2026-07-07T18:08:43.846+07:00,540284102063449803,245507,201100,208716,1410
1783422523864274628,2026-07-07T18:08:43.864+07:00,540284102063449803,245453,201161,208778,1436
1783422523882456446,2026-07-07T18:08:43.882+07:00,540284102063449803,245478,201176,208864,1490
1783422523900638264,2026-07-07T18:08:43.900+07:00,540284102063449803,245476,201236,208976,1484
1783422523918820082,2026-07-07T18:08:43.918+07:00,540284102063449803,245513,201222,208957,1490
1783422523937001900,2026-07-07T18:08:43.937+07:00,540284102063449803,245619,201291,209020,1424
1783422523955183718,2026-07-07T18:08:43.955+07:00,540284102063449803,245758,201220,209016,1437
1783422523973365536,2026-07-07T18:08:43.973+07:00,540284102827760905,245973,201289,209025,1453
1783422523991547354,2026-07-07T18:08:43.991+07:00,540284102827760905,246225,201366,209017,1392
1783422524009729172,2026-07-07T18:08:44.009+07:00,540284102827760905,246452,201335,208968,1433
1783422524027910990,2026-07-07T18:08:44.027+07:00,540284102827760905,246629,201344,208787,1443
1783422524046092808,2026-07-07T18:08:44.046+07:00,540284102827760905,246807,201294,208615,1473
1783422524064274626,2026-07-07T18:08:44.064+07:00,540284102827760905,246919,201297,208354,1461
1783422524082456444,2026-07-07T18:08:44.082+07:00,540284102827760905,246926,201220,208082,1455
1783422524100638262,2026-07-07T18:08:44.100+07:00,540284102827760905,246932,201109,207870,1457
1783422524118820080,2026-07-07T18:08:44.118+07:00,540284102827760905,246886,200959,207612,1412
1783422524137001898,2026-07-07T18:08:44.137+07:00,540284102827760905,246735,200784,207430,1419
1783422524155183716,2026-07-07T18:08:44.155+07:00,540284102827760905,246544,200451,207169,1416
1783422524173365534,2026-07-07T18:08:44.173+07:00,540284102827760905,246322,200158,207043,1411
1783422524191547352,2026-07-07T18:08:44.191+07:00,540284102827760905,246183,199914,207075,1428
1783422524209729170,2026-07-07T18:08:44.209+07:00,540284102827760905,246286,199789,207160,1442
1783422524227910988,2026-07-07T18:08:44.227+07:00,540284102827760905,246409,199687,207088,1387
1783422524246092806,2026-07-07T18:08:44.246+07:00,540284102827760905,246316,199518,206926,1388
1783422524264274624,2026-07-07T18:08:44.264+07:00,540284102827760905,246097,199350,206758,1419
1783422524282456442,2026-07-07T18:08:44.282+07:00,540284102827760905,245864,199252,206576,1397
1783422524300638260,2026-07-07T18:08:44.300+07:00,540284102827760905,245556,199183,206389,1436
1783422524318820078,2026-07-07T18:08:44.318+07:00,540284102827760905,245218,199098,206221,1399
1783422524337001896,2026-07-07T18:08:44.337+07:00,540284102827760905,244825,199003,205988,1426
1783422524355183714,2026-07-07T18:08:44.355+07:00,540284102827760905,244444,198944,205652,1347
1783422524373365532,2026-07-07T18:08:44.373+07:00,540284102827760905,244168,198855,205467,1422
1783422524391547350,2026-07-07T18:08:44.391+07:00,540284102827760905,243819,198798,205174,1394
1783422524409729168,2026-07-07T18:08:44.409+07:00,540284102827760905,243509,198695,204905,1386
1783422524427910986,2026-07-07T18:08:44.427+07:00,540284102827760905,243260,198630,204693,1399
1783422524446092804,2026-07-07T18:08:44.446+07:00,540284102827760905,243178,198670,204551,1506
1783422524464274622,2026-07-07T18:08:44.464+07:00,540284102827760905,243178,198793,204462,1704
1783422524482456440,2026-07-07T18:08:44.482+07:00,540284102827760905,242847,198431,204210,1482
1783422524500638258,2026-07-07T18:08:44.500+07:00,540284102827760905,242705,198223,204043,1457
1783422524518820076,2026-07-07T18:08:44.518+07:00,540284102827760905,242578,198048,203935,1382
1783422524537001894,2026-07-07T18:08:44.537+07:00,540284102827760905,242499,197822,203938,1352
1783422524555183712,2026-07-07T18:08:44.555+07:00,540284102827760905,242447,197686,203869,1362
1783422524573365530,2026-07-07T18:08:44.573+07:00,540284102827760905,242301,197535,203867,1339
1783422524591547348,2026-07-07T18:08:44.591+07:00,540284102827760905,242112,197390,203817,1367
1783422524609729166,2026-07-07T18:08:44.609+07:00,540284102827760905,241783,197238,203710,1311
1783422524627910984,2026-07-07T18:08:44.627+07:00,540284102827760905,241561,197148,203652,1356
1783422524646092802,2026-07-07T18:08:44.646+07:00,540284102827760905,241292,196906,203675,1391
1783422524664274620,2026-07-07T18:08:44.664+07:00,540284102827760905,241028,196681,203666,1313
1783422524682456438,2026-07-07T18:08:44.682+07:00,540284102827760905,240803,196631,203560,1327
1783422524700638256,2026-07-07T18:08:44.700+07:00,540284102827760905,240632,196533,203551,1310
1783422524718820074,2026-07-07T18:08:44.718+07:00,540284102827760905,240482,196377,203627,1309
1783422524737001892,2026-07-07T18:08:44.737+07:00,540284103592072007,240263,196294,203600,1311
1783422524755183710,2026-07-07T18:08:44.755+07:00,540284103592072007,240016,196223,203600,1302
1783422524773365528,2026-07-07T18:08:44.773+07:00,540284103592072007,239819,196036,203565,1282
1783422524791547346,2026-07-07T18:08:44.791+07:00,540284103592072007,239506,195916,203421,1309
1783422524809729164,2026-07-07T18:08:44.809+07:00,540284103592072007,239226,195683,203238,1337
1783422524827910982,2026-07-07T18:08:44.827+07:00,540284103592072007,238901,195406,203041,1300
1783422524846092800,2026-07-07T18:08:44.846+07:00,540284103592072007,238512,195107,202858,1282
1783422524864274618,2026-07-07T18:08:44.864+07:00,540284103592072007,238253,194878,202706,1324
1783422524882456436,2026-07-07T18:08:44.882+07:00,540284103592072007,237987,194656,202506,1368
1783422524900638254,2026-07-07T18:08:44.900+07:00,540284103592072007,237633,194411,202339,1361
1783422524918820072,2026-07-07T18:08:44.918+07:00,540284103592072007,237299,194212,202081,1341
1783422524937001890,2026-07-07T18:08:44.937+07:00,540284103592072007,237015,193958,201845,1347
1783422524955183708,2026-07-07T18:08:44.955+07:00,540284103592072007,236693,193779,201644,1285
1783422524973365526,2026-07-07T18:08:44.973+07:00,540284103592072007,236374,193517,201331,1256
1783422524991547344,2026-07-07T18:08:44.991+07:00,540284103592072007,236122,193272,201110,1290
1783422525009729162,2026-07-07T18:08:45.009+07:00,540284103592072007,235827,193060,200919,1271
1783422525027910980,2026-07-07T18:08:45.027+07:00,540284103592072007,235620,192885,200632,1262
1783422525046092798,2026-07-07T18:08:45.046+07:00,540284103592072007,235319,192731,200451,1258
1783422525064274616,2026-07-07T18:08:45.064+07:00,540284103592072007,235092,192524,200207,1323
1783422525082456434,2026-07-07T18:08:45.082+07:00,540284103592072007,234835,192387,199977,1246
1783422525100638252,2026-07-07T18:08:45.100+07:00,540284103592072007,234630,192221,199740,1292
1783422525118820070,2026-07-07T18:08:45.118+07:00,540284103592072007,234359,192033,199525,1303
1783422525137001888,2026-07-07T18:08:45.137+07:00,540284103592072007,234169,191926,199307,1352
1783422525155183706,2026-07-07T18:08:45.155+07:00,540284103592072007,233897,191725,199047,1322
1783422525173365524,2026-07-07T18:08:45.173+07:00,540284103592072007,233638,191507,198769,1330
1783422525191547342,2026-07-07T18:08:45.191+07:00,540284103592072007,233322,191347,198467,1321
1783422525209729160,2026-07-07T18:08:45.209+07:00,540284103592072007,233016,191128,198140,1334
1783422525227910978,2026-07-07T18:08:45.227+07:00,540284103592072007,232562,190762,197731,1277
1783422525246092796,2026-07-07T18:08:45.246+07:00,540284103592072007,232156,190447,197310,1230
1783422525264274614,2026-07-07T18:08:45.264+07:00,540284103592072007,231711,190154,196875,1345
1783422525282456432,2026-07-07T18:08:45.282+07:00,540284103592072007,231282,189808,196384,1294
1783422525300638250,2026-07-07T18:08:45.300+07:00,540284103592072007,230877,189508,196053,1307
1783422525318820068,2026-07-07T18:08:45.318+07:00,540284103592072007,230461,189261,195663,1294
1783422525337001886,2026-07-07T18:08:45.337+07:00,540284103592072007,230061,188911,195180,1294
1783422525355183704,2026-07-07T18:08:45.355+07:00,540284103592072007,229718,188652,194811,1303
1783422525373365522,2026-07-07T18:08:45.373+07:00,540284103592072007,229286,188330,194428,1301
1783422525391547340,2026-07-07T18:08:45.391+07:00,540284103592072007,228919,188092,194044,1310
1783422525409729158,2026-07-07T18:08:45.409+07:00,540284103592072007,228604,187879,193721,1322
1783422525427910976,2026-07-07T18:08:45.427+07:00,540284103592072007,228308,187650,193432,1297
1783422525446092794,2026-07-07T18:08:45.446+07:00,540284103592072007,227921,187397,193079,1300
1783422525464274612,2026-07-07T18:08:45.464+07:00,540284103592072007,227636,187209,192716,1328
1783422525482456430,2026-07-07T18:08:45.482+07:00,540284103592072007,227267,186985,192404,1320
1783422525500638248,2026-07-07T18:08:45.500+07:00,540284104356383109,226953,186720,192100,1336
1783422525518820066,2026-07-07T18:08:45.518+07:00,540284104356383109,226631,186485,191801,1340
1783422525537001884,2026-07-07T18:08:45.537+07:00,540284104356383109,226207,186245,191456,1276
1783422525555183702,2026-07-07T18:08:45.555+07:00,540284104356383109,225919,186080,191168,1319
1783422525573365520,2026-07-07T18:08:45.573+07:00,540284104356383109,225631,185853,190878,1326
1783422525591547338,2026-07-07T18:08:45.591+07:00,540284104356383109,225283,185618,190531,1320
1783422525609729156,2026-07-07T18:08:45.609+07:00,540284104356383109,224983,185438,190234,1316
1783422525627910974,2026-07-07T18:08:45.627+07:00,540284104356383109,224759,185252,190030,1332
1783422525646092792,2026-07-07T18:08:45.646+07:00,540284104356383109,224545,185052,189746,1350
1783422525664274610,2026-07-07T18:08:45.664+07:00,540284104356383109,224275,184877,189540,1361
1783422525682456428,2026-07-07T18:08:45.682+07:00,540284104356383109,224123,184794,189305,1429
1783422525700638246,2026-07-07T18:08:45.700+07:00,540284104356383109,223866,184631,189129,1371
1783422525718820064,2026-07-07T18:08:45.718+07:00,540284104356383109,223686,184468,188905,1324
1783422525737001882,2026-07-07T18:08:45.737+07:00,540284104356383109,223489,184297,188733,1344
1783422525755183700,2026-07-07T18:08:45.755+07:00,540284104356383109,223216,184079,188536,1234
1783422525773365518,2026-07-07T18:08:45.773+07:00,540284104356383109,223053,183969,188434,1339
1783422525791547336,2026-07-07T18:08:45.791+07:00,540284104356383109,222871,183854,188258,1313
1783422525809729154,2026-07-07T18:08:45.809+07:00,540284104356383109,222685,183729,188028,1325
1783422525827910972,2026-07-07T18:08:45.827+07:00,540284104356383109,222482,183580,187885,1271
1783422525846092790,2026-07-07T18:08:45.846+07:00,540284104356383109,222324,183520,187746,1367
1783422525864274608,2026-07-07T18:08:45.864+07:00,540284104356383109,222212,183470,187705,1396
1783422525882456426,2026-07-07T18:08:45.882+07:00,540284104356383109,221961,183269,187412,1320
1783422525900638244,2026-07-07T18:08:45.900+07:00,540284104356383109,221799,183160,187312,1366
1783422525918820062,2026-07-07T18:08:45.918+07:00,540284104356383109,221624,182987,187063,1378
1783422525937001880,2026-07-07T18:08:45.937+07:00,540284104356383109,221389,182802,186836,1345
1783422525955183698,2026-07-07T18:08:45.955+07:00,540284104356383109,221116,182583,186545,1321
1783422525973365516,2026-07-07T18:08:45.973+07:00,540284104356383109,220972,182366,186332,1355
1783422525991547334,2026-07-07T18:08:45.991+07:00,540284104356383109,220665,182152,186095,1349
1783422526009729152,2026-07-07T18:08:46.009+07:00,540284104356383109,220466,182054,185910,1342
1783422526027910970,2026-07-07T18:08:46.027+07:00,540284104356383109,220184,181974,185663,1303
1783422526046092788,2026-07-07T18:08:46.046+07:00,540284104356383109,220039,181889,185471,1356
1783422526064274606,2026-07-07T18:08:46.064+07:00,540284104356383109,219859,181712,185325,1376
1783422526082456424,2026-07-07T18:08:46.082+07:00,540284104356383109,219706,181685,185132,1318
1783422526100638242,2026-07-07T18:08:46.100+07:00,540284104356383109,219573,181613,185011,1309
1783422526118820060,2026-07-07T18:08:46.118+07:00,540284104356383109,219511,181591,184849,1344
1783422526137001878,2026-07-07T18:08:46.137+07:00,540284104356383109,219434,181642,184774,1314
1783422526155183696,2026-07-07T18:08:46.155+07:00,540284104356383109,219417,181660,184721,1293
1783422526173365514,2026-07-07T18:08:46.173+07:00,540284104356383109,219487,181756,184755,1325
1783422526191547332,2026-07-07T18:08:46.191+07:00,540284104356383109,219529,181775,184777,1342
1783422526209729150,2026-07-07T18:08:46.209+07:00,540284104356383109,219555,181922,184845,1307
1783422526227910968,2026-07-07T18:08:46.227+07:00,540284104356383109,219690,182079,184863,1373
1783422526246092786,2026-07-07T18:08:46.246+07:00,540284104356383109,219841,182272,184987,1362
1783422526264274604,2026-07-07T18:08:46.264+07:00,540284105102496336,220116,182485,185080,1365
1783422526282456422,2026-07-07T18:08:46.282+07:00,540284105102496336,220454,182685,185225,1336
1783422526300638240,2026-07-07T18:08:46.300+07:00,540284105102496336,220800,182938,185343,1357
1783422526318820058,2026-07-07T18:08:46.318+07:00,540284105102496336,221064,183128,185490,1251
1783422526337001876,2026-07-07T18:08:46.337+07:00,540284105102496336,221514,183380,185609,1328
1783422526355183694,2026-07-07T18:08:46.355+07:00,540284105102496336,221787,183601,185821,1314
1783422526373365512,2026-07-07T18:08:46.373+07:00,540284105102496336,222190,183804,185995,1334
1783422526391547330,2026-07-07T18:08:46.391+07:00,540284105102496336,222471,184032,186115,1286
1783422526409729148,2026-07-07T18:08:46.409+07:00,540284105102496336,222781,184196,186229,1390
1783422526427910966,2026-07-07T18:08:46.427+07:00,540284105102496336,223064,184445,186329,1333
1783422526446092784,2026-07-07T18:08:46.446+07:00,540284105102496336,223331,184624,186480,1309
1783422526464274602,2026-07-07T18:08:46.464+07:00,540284105102496336,223571,184747,186655,1285
1783422526482456420,2026-07-07T18:08:46.482+07:00,540284105102496336,223822,184855,186812,1322
1783422526500638238,2026-07-07T18:08:46.500+07:00,540284105102496336,224074,185098,187054,1368
1783422526518820056,2026-07-07T18:08:46.518+07:00,540284105102496336,224275,185259,187197,1286
1783422526537001874,2026-07-07T18:08:46.537+07:00,540284105102496336,224409,185422,187391,1283
1783422526555183692,2026-07-07T18:08:46.555+07:00,540284105102496336,224631,185608,187662,1300
1783422526573365510,2026-07-07T18:08:46.573+07:00,540284105102496336,224832,185846,188043,1342
1783422526591547328,2026-07-07T18:08:46.591+07:00,540284105102496336,225008,186044,188380,1255
1783422526609729146,2026-07-07T18:08:46.609+07:00,540284105102496336,225221,186240,188692,1285
1783422526627910964,2026-07-07T18:08:46.627+07:00,540284105102496336,225396,186335,188995,1318
1783422526646092782,2026-07-07T18:08:46.646+07:00,540284105102496336,225485,186484,189201,1307
1783422526664274600,2026-07-07T18:08:46.664+07:00,540284105102496336,225482,186599,189394,1307
1783422526682456418,2026-07-07T18:08:46.682+07:00,540284105102496336,225448,186745,189456,1385
1783422526700638236,2026-07-07T18:08:46.700+07:00,540284105102496336,225452,186788,189538,1359
1783422526718820054,2026-07-07T18:08:46.718+07:00,540284105102496336,225404,186830,189607,1349
1783422526737001872,2026-07-07T18:08:46.737+07:00,540284105102496336,225391,186927,189627,1413
1783422526755183690,2026-07-07T18:08:46.755+07:00,540284105102496336,225372,187010,189669,1400
1783422526773365508,2026-07-07T18:08:46.773+07:00,540284105102496336,225329,187063,189711,1390
1783422526791547326,2026-07-07T18:08:46.791+07:00,540284105102496336,225386,187124,189863,1387
1783422526809729144,2026-07-07T18:08:46.809+07:00,540284105102496336,225317,187243,190011,1392
1783422526827910962,2026-07-07T18:08:46.827+07:00,540284105102496336,225299,187435,190181,1320
1783422526846092780,2026-07-07T18:08:46.846+07:00,540284105102496336,225284,187573,190334,1372
1783422526864274598,2026-07-07T18:08:46.864+07:00,540284105102496336,225265,187763,190558,1342
1783422526882456416,2026-07-07T18:08:46.882+07:00,540284105102496336,225302,187963,190664,1310
1783422526900638234,2026-07-07T18:08:46.900+07:00,540284105102496336,225386,188231,190983,1352
1783422526918820052,2026-07-07T18:08:46.918+07:00,540284105102496336,225513,188486,191178,1405
1783422526937001870,2026-07-07T18:08:46.937+07:00,540284105102496336,225656,188692,191333,1412
1783422526955183688,2026-07-07T18:08:46.955+07:00,540284105102496336,225871,189041,191605,1418
1783422526973365506,2026-07-07T18:08:46.973+07:00,540284105102496336,226009,189303,191908,1414
1783422526991547324,2026-07-07T18:08:46.991+07:00,540284105102496336,226200,189594,192244,1410
1783422527009729142,2026-07-07T18:08:47.009+07:00,540284105775766131,226513,189868,192725,1394
1783422527027910960,2026-07-07T18:08:47.027+07:00,540284105775766131,226811,190226,193174,1383
1783422527046092778,2026-07-07T18:08:47.046+07:00,540284105775766131,227236,190677,193745,1353
1783422527064274596,2026-07-07T18:08:47.064+07:00,540284105775766131,227702,191060,194321,1386
1783422527082456414,2026-07-07T18:08:47.082+07:00,540284105775766131,228168,191451,194953,1422
1783422527100638232,2026-07-07T18:08:47.100+07:00,540284105775766131,228767,191894,195456,1439
1783422527118820050,2026-07-07T18:08:47.118+07:00,540284105775766131,229242,192252,196014,1358
1783422527137001868,2026-07-07T18:08:47.137+07:00,540284105775766131,229809,192631,196478,1354
1783422527155183686,2026-07-07T18:08:47.155+07:00,540284105775766131,230275,192953,196927,1375
1783422527173365504,2026-07-07T18:08:47.173+07:00,540284105775766131,230833,193370,197293,1409
1783422527191547322,2026-07-07T18:08:47.191+07:00,540284105775766131,231313,193710,197710,1412
1783422527209729140,2026-07-07T18:08:47.209+07:00,540284105775766131,231761,194009,198095,1397
1783422527227910958,2026-07-07T18:08:47.227+07:00,540284105775766131,232188,194281,198464,1389
1783422527246092776,2026-07-07T18:08:47.246+07:00,540284105775766131,232624,194586,198877,1402
1783422527264274594,2026-07-07T18:08:47.264+07:00,540284105775766131,232892,194879,199206,1367
1783422527282456412,2026-07-07T18:08:47.282+07:00,540284105775766131,233261,195139,199612,1380
1783422527300638230,2026-07-07T18:08:47.300+07:00,540284105775766131,233488,195374,199968,1384
1783422527318820048,2026-07-07T18:08:47.318+07:00,540284105775766131,233627,195554,200127,1343
1783422527337001866,2026-07-07T18:08:47.337+07:00,540284105775766131,233689,195706,200289,1334
1783422527355183684,2026-07-07T18:08:47.355+07:00,540284105775766131,233740,195852,200347,1396
1783422527373365502,2026-07-07T18:08:47.373+07:00,540284105775766131,233740,195986,200373,1344
1783422527391547320,2026-07-07T18:08:47.391+07:00,540284105775766131,233689,196037,200316,1350
1783422527409729138,2026-07-07T18:08:47.409+07:00,540284105775766131,233633,196086,200258,1382
1783422527427910956,2026-07-07T18:08:47.427+07:00,540284105775766131,233591,196089,200166,1439
1783422527446092774,2026-07-07T18:08:47.446+07:00,540284105775766131,233433,195972,199996,1367
1783422527464274592,2026-07-07T18:08:47.464+07:00,540284105775766131,233387,195922,199901,1396
1783422527482456410,2026-07-07T18:08:47.482+07:00,540284105775766131,233301,195816,199808,1418
1783422527500638228,2026-07-07T18:08:47.500+07:00,540284105775766131,233198,195812,199697,1412
1783422527518820046,2026-07-07T18:08:47.518+07:00,540284105775766131,233030,195742,199585,1374
1783422527537001864,2026-07-07T18:08:47.537+07:00,540284105775766131,232891,195685,199470,1332
1783422527555183682,2026-07-07T18:08:47.555+07:00,540284105775766131,232807,195634,199362,1351
1783422527573365500,2026-07-07T18:08:47.573+07:00,540284105775766131,232733,195663,199214,1365
1783422527591547318,2026-07-07T18:08:47.591+07:00,540284105775766131,232669,195672,199124,1433
1783422527609729136,2026-07-07T18:08:47.609+07:00,540284105775766131,232561,195607,199019,1362
1783422527627910954,2026-07-07T18:08:47.627+07:00,540284105775766131,232529,195693,198897,1396
1783422527646092772,2026-07-07T18:08:47.646+07:00,540284105775766131,232459,195733,198816,1448
1783422527664274590,2026-07-07T18:08:47.664+07:00,540284105775766131,232423,195765,198727,1469
1783422527682456408,2026-07-07T18:08:47.682+07:00,540284106540095551,232400,195793,198583,1400
1783422527700638226,2026-07-07T18:08:47.700+07:00,540284106540095551,232348,195857,198559,1344
1783422527718820044,2026-07-07T18:08:47.718+07:00,540284106540095551,232338,195938,198493,1323
1783422527737001862,2026-07-07T18:08:47.737+07:00,540284106540095551,232435,196017,198601,1399
1783422527755183680,2026-07-07T18:08:47.755+07:00,540284106540095551,232463,196089,198624,1353
1783422527773365498,2026-07-07T18:08:47.773+07:00,540284106540095551,232657,196170,198683,1404
1783422527791547316,2026-07-07T18:08:47.791+07:00,540284106540095551,232739,196248,198738,1324
1783422527809729134,2026-07-07T18:08:47.809+07:00,540284106540095551,232960,196346,198869,1323
1783422527827910952,2026-07-07T18:08:47.827+07:00,540284106540095551,233122,196482,198917,1316
1783422527846092770,2026-07-07T18:08:47.846+07:00,540284106540095551,233286,196638,199048,1413
1783422527864274588,2026-07-07T18:08:47.864+07:00,540284106540095551,233544,196657,199281,1395
1783422527882456406,2026-07-07T18:08:47.882+07:00,540284106540095551,233849,196711,199581,1368
1783422527900638224,2026-07-07T18:08:47.900+07:00,540284106540095551,234023,196877,199793,1318
1783422527918820042,2026-07-07T18:08:47.918+07:00,540284106540095551,234195,197022,200092,1352
1783422527937001860,2026-07-07T18:08:47.937+07:00,540284106540095551,234315,197082,200191,1320
1783422527955183678,2026-07-07T18:08:47.955+07:00,540284106540095551,234520,197157,200392,1307
1783422527973365496,2026-07-07T18:08:47.973+07:00,540284106540095551,234698,197334,200714,1357
1783422527991547314,2026-07-07T18:08:47.991+07:00,540284106540095551,234916,197478,200920,1359
1783422528009729132,2026-07-07T18:08:48.009+07:00,540284106540095551,235029,197636,201075,1303
1783422528027910950,2026-07-07T18:08:48.027+07:00,540284106540095551,235217,197807,201291,1342
1783422528046092768,2026-07-07T18:08:48.046+07:00,540284106540095551,235328,197873,201512,1282
1783422528064274586,2026-07-07T18:08:48.064+07:00,540284106540095551,235417,197949,201638,1306
1783422528082456404,2026-07-07T18:08:48.082+07:00,540284106540095551,235500,198003,201687,1315
1783422528100638222,2026-07-07T18:08:48.100+07:00,540284106540095551,235462,198011,201641,1332
1783422528118820040,2026-07-07T18:08:48.118+07:00,540284106540095551,235433,197937,201588,1345
1783422528137001858,2026-07-07T18:08:48.137+07:00,540284106540095551,235257,197881,201479,1260
1783422528155183676,2026-07-07T18:08:48.155+07:00,540284106540095551,235199,197850,201448,1287
1783422528173365494,2026-07-07T18:08:48.173+07:00,540284106540095551,235067,197755,201296,1318
1783422528191547312,2026-07-07T18:08:48.191+07:00,540284106540095551,234894,197576,201072,1289
1783422528209729130,2026-07-07T18:08:48.209+07:00,540284106540095551,234787,197584,200985,1300
1783422528227910948,2026-07-07T18:08:48.227+07:00,540284106540095551,234692,197525,200855,1291
1783422528246092766,2026-07-07T18:08:48.246+07:00,540284106540095551,234556,197471,200728,1317
1783422528264274584,2026-07-07T18:08:48.264+07:00,540284106540095551,234484,197487,200622,1331
1783422528282456402,2026-07-07T18:08:48.282+07:00,540284106540095551,234426,197373,200495,1294
1783422528300638220,2026-07-07T18:08:48.300+07:00,540284106540095551,234417,197327,200413,1284
1783422528318820038,2026-07-07T18:08:48.318+07:00,540284106540095551,234408,197354,200383,1309
1783422528337001856,2026-07-07T18:08:48.337+07:00,540284106540095551,234399,197274,200316,1332
1783422528355183674,2026-07-07T18:08:48.355+07:00,540284106540095551,234436,197272,200272,1296
1783422528373365492,2026-07-07T18:08:48.373+07:00,540284106540095551,234522,197297,200207,1334
1783422528391547310,2026-07-07T18:08:48.391+07:00,540284106540095551,234518,197288,200213,1345
1783422528409729128,2026-07-07T18:08:48.409+07:00,540284106540095551,234656,197244,200133,1296
1783422528427910946,2026-07-07T18:08:48.427+07:00,540284106540095551,234675,197265,200104,1308
1783422528446092764,2026-07-07T18:08:48.446+07:00,540284107377231759,234680,197334,200091,1320
1783422528464274582,2026-07-07T18:08:48.464+07:00,540284107377231759,234716,197295,200016,1324
1783422528482456400,2026-07-07T18:08:48.482+07:00,540284107377231759,234781,197381,200053,1313
1783422528500638218,2026-07-07T18:08:48.500+07:00,540284107377231759,234806,197290,200012,1246
1783422528518820036,2026-07-07T18:08:48.518+07:00,540284107377231759,234957,197384,200064,1310
1783422528537001854,2026-07-07T18:08:48.537+07:00,540284107377231759,235095,197464,200106,1311
1783422528555183672,2026-07-07T18:08:48.555+07:00,540284107377231759,235144,197508,200120,1291
1783422528573365490,2026-07-07T18:08:48.573+07:00,540284107377231759,235213,197609,200128,1270
1783422528591547308,2026-07-07T18:08:48.591+07:00,540284107377231759,235218,197577,200150,1266
1783422528609729126,2026-07-07T18:08:48.609+07:00,540284107377231759,235357,197728,200286,1320
1783422528627910944,2026-07-07T18:08:48.627+07:00,540284107377231759,235407,197742,200275,1340
1783422528646092762,2026-07-07T18:08:48.646+07:00,540284107377231759,235455,197763,200366,1290
1783422528664274580,2026-07-07T18:08:48.664+07:00,540284107377231759,235621,197845,200435,1285
1783422528682456398,2026-07-07T18:08:48.682+07:00,540284107377231759,235636,197880,200518,1277
1783422528700638216,2026-07-07T18:08:48.700+07:00,540284107377231759,235710,197965,200521,1281
1783422528718820034,2026-07-07T18:08:48.718+07:00,540284107377231759,235811,198034,200597,1287
1783422528737001852,2026-07-07T18:08:48.737+07:00,540284107377231759,235920,198167,200718,1348
1783422528755183670,2026-07-07T18:08:48.755+07:00,540284107377231759,235966,198221,200746,1301
1783422528773365488,2026-07-07T18:08:48.773+07:00,540284107377231759,236057,198290,200837,1262
1783422528791547306,2026-07-07T18:08:48.791+07:00,540284107377231759,236128,198372,200913,1290
1783422528809729124,2026-07-07T18:08:48.809+07:00,540284107377231759,236189,198413,200947,1259
1783422528827910942,2026-07-07T18:08:48.827+07:00,540284107377231759,236310,198430,200996,1266
1783422528846092760,2026-07-07T18:08:48.846+07:00,540284107377231759,236249,198465,200983,1361
1783422528864274578,2026-07-07T18:08:48.864+07:00,540284107377231759,236196,198412,200956,1384
1783422528882456396,2026-07-07T18:08:48.882+07:00,540284107377231759,236110,198375,200866,1316
1783422528900638214,2026-07-07T18:08:48.900+07:00,540284107377231759,236102,198308,200872,1289
1783422528918820032,2026-07-07T18:08:48.918+07:00,540284107377231759,236051,198254,200768,1283
1783422528937001850,2026-07-07T18:08:48.937+07:00,540284107377231759,235927,198190,200693,1277
1783422528955183668,2026-07-07T18:08:48.955+07:00,540284107377231759,235935,198151,200677,1246
1783422528973365486,2026-07-07T18:08:48.973+07:00,540284107377231759,235938,198126,200664,1264
1783422528991547304,2026-07-07T18:08:48.991+07:00,540284107377231759,235945,198141,200641,1336
1783422529009729122,2026-07-07T18:08:49.009+07:00,540284107377231759,235913,198052,200590,1308
1783422529027910940,2026-07-07T18:08:49.027+07:00,540284107377231759,235911,198052,200641,1350
1783422529046092758,2026-07-07T18:08:49.046+07:00,540284107377231759,235911,198092,200667,1301
1783422529064274576,2026-07-07T18:08:49.064+07:00,540284107377231759,235903,198123,200681,1304
1783422529082456394,2026-07-07T18:08:49.082+07:00,540284107377231759,235952,198107,200643,1314
1783422529100638212,2026-07-07T18:08:49.100+07:00,540284107377231759,235935,198102,200637,1323
1783422529118820030,2026-07-07T18:08:49.118+07:00,540284107377231759,235930,197991,200632,1345
1783422529137001848,2026-07-07T18:08:49.137+07:00,540284107377231759,235933,198048,200675,1328
1783422529155183666,2026-07-07T18:08:49.155+07:00,540284107377231759,235892,198075,200609,1297
1783422529173365484,2026-07-07T18:08:49.173+07:00,540284107377231759,235897,198051,200584,1299
1783422529191547302,2026-07-07T18:08:49.191+07:00,540284107377231759,235883,198017,200613,1307
1783422529209729120,2026-07-07T18:08:49.209+07:00,540284107377231759,236001,198048,200697,1289
1783422529227910938,2026-07-07T18:08:49.227+07:00,540284107377231759,236020,198057,200718,1340
1783422529246092756,2026-07-07T18:08:49.246+07:00,540284107377231759,235985,198068,200706,1334
1783422529264274574,2026-07-07T18:08:49.264+07:00,540284107377231759,235969,198042,200728,1314
1783422529282456392,2026-07-07T18:08:49.282+07:00,540284108196136510,236028,198115,200738,1310
1783422529300638210,2026-07-07T18:08:49.300+07:00,540284108196136510,236051,198095,200748,1274
1783422529318820028,2026-07-07T18:08:49.318+07:00,540284108196136510,236082,198156,200771,1302
1783422529337001846,2026-07-07T18:08:49.337+07:00,540284108196136510,236139,198185,200796,1361
1783422529355183664,2026-07-07T18:08:49.355+07:00,540284108196136510,236251,198206,200914,1286
1783422529373365482,2026-07-07T18:08:49.373+07:00,540284108196136510,236299,198217,200988,1321
1783422529391547300,2026-07-07T18:08:49.391+07:00,540284108196136510,236320,198290,201000,1299
1783422529409729118,2026-07-07T18:08:49.409+07:00,540284108196136510,236363,198293,201057,1331
1783422529427910936,2026-07-07T18:08:49.427+07:00,540284108196136510,236445,198334,201093,1294
1783422529446092754,2026-07-07T18:08:49.446+07:00,540284108196136510,236524,198421,201189,1350
1783422529464274572,2026-07-07T18:08:49.464+07:00,540284108196136510,236548,198428,201212,1286
1783422529482456390,2026-07-07T18:08:49.482+07:00,540284108196136510,236630,198491,201290,1292
1783422529500638208,2026-07-07T18:08:49.500+07:00,540284108196136510,236679,198576,201311,1288
1783422529518820026,2026-07-07T18:08:49.518+07:00,540284108196136510,236651,198491,201330,1308
1783422529537001844,2026-07-07T18:08:49.537+07:00,540284108196136510,236618,198545,201321,1289
1783422529555183662,2026-07-07T18:08:49.555+07:00,540284108196136510,236530,198436,201286,1291
1783422529573365480,2026-07-07T18:08:49.573+07:00,540284108196136510,236456,198372,201185,1343
1783422529591547298,2026-07-07T18:08:49.591+07:00,540284108196136510,236372,198307,201164,1359
1783422529609729116,2026-07-07T18:08:49.609+07:00,540284108196136510,236322,198230,201069,1323
1783422529627910934,2026-07-07T18:08:49.627+07:00,540284108196136510,236232,198208,201002,1315
1783422529646092752,2026-07-07T18:08:49.646+07:00,540284108196136510,236135,198071,200960,1375
1783422529664274570,2026-07-07T18:08:49.664+07:00,540284108196136510,236068,198032,200943,1367
1783422529682456388,2026-07-07T18:08:49.682+07:00,540284108196136510,236026,198006,200942,1362
1783422529700638206,2026-07-07T18:08:49.700+07:00,540284108196136510,235975,197972,200883,1311
1783422529718820024,2026-07-07T18:08:49.718+07:00,540284108196136510,235993,197925,200832,1345
1783422529737001842,2026-07-07T18:08:49.737+07:00,540284108196136510,235950,197888,200840,1283
1783422529755183660,2026-07-07T18:08:49.755+07:00,540284108196136510,235959,197902,200862,1281
1783422529773365478,2026-07-07T18:08:49.773+07:00,540284108196136510,235946,197825,200897,1372
1783422529791547296,2026-07-07T18:08:49.791+07:00,540284108196136510,235913,197868,200876,1376
1783422529809729114,2026-07-07T18:08:49.809+07:00,540284108196136510,235953,197814,200813,1332
1783422529827910932,2026-07-07T18:08:49.827+07:00,540284108196136510,235932,197834,200797,1360
1783422529846092750,2026-07-07T18:08:49.846+07:00,540284108196136510,235867,197768,200814,1333
1783422529864274568,2026-07-07T18:08:49.864+07:00,540284108196136510,235858,197766,200771,1328
1783422529882456386,2026-07-07T18:08:49.882+07:00,540284108196136510,235872,197776,200770,1332
1783422529900638204,2026-07-07T18:08:49.900+07:00,540284108196136510,235855,197714,200769,1324
1783422529918820022,2026-07-07T18:08:49.918+07:00,540284108196136510,235863,197722,200861,1267
1783422529937001840,2026-07-07T18:08:49.937+07:00,540284108196136510,235852,197701,200855,1371
1783422529955183658,2026-07-07T18:08:49.955+07:00,540284108196136510,235885,197727,200831,1337
1783422529973365476,2026-07-07T18:08:49.973+07:00,540284108196136510,235883,197723,200905,1311
1783422529991547294,2026-07-07T18:08:49.991+07:00,540284108196136510,235926,197706,200951,1311
1783422530009729112,2026-07-07T18:08:50.009+07:00,540284108196136510,235999,197733,201001,1291
1783422530027910930,2026-07-07T18:08:50.027+07:00,540284108196136510,236071,197764,201018,1281
1783422530046092748,2026-07-07T18:08:50.046+07:00,540284108196136510,236036,197799,201066,1292
1783422530064274566,2026-07-07T18:08:50.064+07:00,540284108196136510,236096,197796,201091,1347
1783422530082456384,2026-07-07T18:08:50.082+07:00,540284108196136510,236111,197825,201160,1309
1783422530100638202,2026-07-07T18:08:50.100+07:00,540284108978676013,236205,197886,201288,1320
1783422530118820020,2026-07-07T18:08:50.118+07:00,540284108978676013,236293,197891,201306,1386
1783422530137001838,2026-07-07T18:08:50.137+07:00,540284108978676013,236302,197937,201333,1339
1783422530155183656,2026-07-07T18:08:50.155+07:00,540284108978676013,236335,197991,201405,1285
1783422530173365474,2026-07-07T18:08:50.173+07:00,540284108978676013,236450,198022,201397,1337
1783422530191547292,2026-07-07T18:08:50.191+07:00,540284108978676013,236493,198019,201476,1302
1783422530209729110,2026-07-07T18:08:50.209+07:00,540284108978676013,236476,198011,201433,1306
1783422530227910928,2026-07-07T18:08:50.227+07:00,540284108978676013,236430,197939,201373,1287
1783422530246092746,2026-07-07T18:08:50.246+07:00,540284108978676013,236244,197874,201272,1305
1783422530264274564,2026-07-07T18:08:50.264+07:00,540284108978676013,236141,197812,201212,1336
1783422530282456382,2026-07-07T18:08:50.282+07:00,540284108978676013,235981,197652,201125,1326
1783422530300638200,2026-07-07T18:08:50.300+07:00,540284108978676013,235892,197525,201017,1303
1783422530318820018,2026-07-07T18:08:50.318+07:00,540284108978676013,235812,197475,200953,1318
1783422530337001836,2026-07-07T18:08:50.337+07:00,540284108978676013,235705,197403,200886,1285
1783422530355183654,2026-07-07T18:08:50.355+07:00,540284108978676013,235728,197345,200842,1384
1783422530373365472,2026-07-07T18:08:50.373+07:00,540284108978676013,235679,197319,200811,1319
1783422530391547290,2026-07-07T18:08:50.391+07:00,540284108978676013,235577,197294,200789,1324
1783422530409729108,2026-07-07T18:08:50.409+07:00,540284108978676013,235525,197216,200734,1289
1783422530427910926,2026-07-07T18:08:50.427+07:00,540284108978676013,235549,197161,200728,1342
1783422530446092744,2026-07-07T18:08:50.446+07:00,540284108978676013,235532,197232,200771,1379
1783422530464274562,2026-07-07T18:08:50.464+07:00,540284108978676013,235488,197186,200794,1353
1783422530482456380,2026-07-07T18:08:50.482+07:00,540284108978676013,235413,197099,200731,1323
1783422530500638198,2026-07-07T18:08:50.500+07:00,540284108978676013,235361,197038,200673,1284
1783422530518820016,2026-07-07T18:08:50.518+07:00,540284108978676013,235306,197075,200669,1277
1783422530537001834,2026-07-07T18:08:50.537+07:00,540284108978676013,235218,196992,200608,1309
1783422530555183652,2026-07-07T18:08:50.555+07:00,540284108978676013,235237,196976,200566,1362
1783422530573365470,2026-07-07T18:08:50.573+07:00,540284108978676013,235181,196944,200576,1289
1783422530591547288,2026-07-07T18:08:50.591+07:00,540284108978676013,235162,196972,200563,1324
1783422530609729106,2026-07-07T18:08:50.609+07:00,540284108978676013,235192,196949,200652,1323
1783422530627910924,2026-07-07T18:08:50.627+07:00,540284108978676013,235201,196955,200620,1273
1783422530646092742,2026-07-07T18:08:50.646+07:00,540284108978676013,235172,196932,200590,1301
1783422530664274560,2026-07-07T18:08:50.664+07:00,540284108978676013,235192,196918,200630,1296
1783422530682456378,2026-07-07T18:08:50.682+07:00,540284108978676013,235269,196949,200724,1327
1783422530700638196,2026-07-07T18:08:50.700+07:00,540284108978676013,235272,196996,200736,1298
1783422530718820014,2026-07-07T18:08:50.718+07:00,540284108978676013,235299,197020,200784,1338
1783422530737001832,2026-07-07T18:08:50.737+07:00,540284108978676013,235280,197084,200835,1309
1783422530755183650,2026-07-07T18:08:50.755+07:00,540284108978676013,235304,197052,200834,1277
1783422530773365468,2026-07-07T18:08:50.773+07:00,540284108978676013,235351,197115,200845,1293
1783422530791547286,2026-07-07T18:08:50.791+07:00,540284108978676013,235388,197113,200938,1306
1783422530809729104,2026-07-07T18:08:50.809+07:00,540284108978676013,235392,197088,200958,1268
1783422530827910922,2026-07-07T18:08:50.827+07:00,540284108978676013,235555,197141,201016,1311
1783422530846092740,2026-07-07T18:08:50.846+07:00,540284108978676013,235525,197149,201014,1245
1783422530864274558,2026-07-07T18:08:50.864+07:00,540284108978676013,235584,197157,201071,1288
1783422530882456376,2026-07-07T18:08:50.882+07:00,540284109743017633,235551,197192,201129,1268
1783422530900638194,2026-07-07T18:08:50.900+07:00,540284109743017633,235552,197206,201095,1285
1783422530918820012,2026-07-07T18:08:50.918+07:00,540284109743017633,235450,197219,201062,1271
1783422530937001830,2026-07-07T18:08:50.937+07:00,540284109743017633,235368,197082,200973,1290
1783422530955183648,2026-07-07T18:08:50.955+07:00,540284109743017633,235236,197005,200887,1311
1783422530973365466,2026-07-07T18:08:50.973+07:00,540284109743017633,235076,196869,200765,1369
1783422530991547284,2026-07-07T18:08:50.991+07:00,540284109743017633,234909,196727,200642,1316
1783422531009729102,2026-07-07T18:08:51.009+07:00,540284109743017633,234787,196600,200612,1309
1783422531027910920,2026-07-07T18:08:51.027+07:00,540284109743017633,234665,196451,200439,1297
1783422531046092738,2026-07-07T18:08:51.046+07:00,540284109743017633,234632,196418,200427,1282
1783422531064274556,2026-07-07T18:08:51.064+07:00,540284109743017633,234497,196472,200342,1307
1783422531082456374,2026-07-07T18:08:51.082+07:00,540284109743017633,234436,196374,200280,1309
1783422531100638192,2026-07-07T18:08:51.100+07:00,540284109743017633,234343,196335,200322,1319
1783422531118820010,2026-07-07T18:08:51.118+07:00,540284109743017633,234361,196299,200281,1327
1783422531137001828,2026-07-07T18:08:51.137+07:00,540284109743017633,234283,196293,200240,1378
1783422531155183646,2026-07-07T18:08:51.155+07:00,540284109743017633,234243,196230,200259,1366
1783422531173365464,2026-07-07T18:08:51.173+07:00,540284109743017633,234137,196169,200256,1341
1783422531191547282,2026-07-07T18:08:51.191+07:00,540284109743017633,234088,196121,200196,1362
1783422531209729100,2026-07-07T18:08:51.209+07:00,540284109743017633,234042,196106,200122,1353
1783422531227910918,2026-07-07T18:08:51.227+07:00,540284109743017633,234022,196088,200098,1352
1783422531246092736,2026-07-07T18:08:51.246+07:00,540284109743017633,233958,196031,200071,1358
1783422531264274554,2026-07-07T18:08:51.264+07:00,540284109743017633,233821,195926,200020,1314
1783422531282456372,2026-07-07T18:08:51.282+07:00,540284109743017633,233774,195908,200035,1318
1783422531300638190,2026-07-07T18:08:51.300+07:00,540284109743017633,233741,195883,199992,1351
1783422531318820008,2026-07-07T18:08:51.318+07:00,540284109743017633,233739,195875,199966,1313
1783422531337001826,2026-07-07T18:08:51.337+07:00,540284109743017633,233664,195915,199968,1281
1783422531355183644,2026-07-07T18:08:51.355+07:00,540284109743017633,233715,195873,199991,1285
1783422531373365462,2026-07-07T18:08:51.373+07:00,540284109743017633,233742,195880,200064,1323
1783422531391547280,2026-07-07T18:08:51.391+07:00,540284109743017633,233753,195892,200084,1284
1783422531409729098,2026-07-07T18:08:51.409+07:00,540284109743017633,233801,195840,200145,1350
1783422531427910916,2026-07-07T18:08:51.427+07:00,540284109743017633,233781,195953,200187,1377
1783422531446092734,2026-07-07T18:08:51.446+07:00,540284109743017633,233730,195953,200197,1345
1783422531464274552,2026-07-07T18:08:51.464+07:00,540284109743017633,233763,195933,200170,1374
1783422531482456370,2026-07-07T18:08:51.482+07:00,540284109743017633,233791,196007,200215,1353
1783422531500638188,2026-07-07T18:08:51.500+07:00,540284109743017633,233924,196111,200232,1309
1783422531518820006,2026-07-07T18:08:51.518+07:00,540284109743017633,234012,196104,200301,1279
1783422531537001824,2026-07-07T18:08:51.537+07:00,540284109743017633,234194,196186,200450,1332
1783422531555183642,2026-07-07T18:08:51.555+07:00,540284109743017633,234344,196290,200579,1327
1783422531573365460,2026-07-07T18:08:51.573+07:00,540284109743017633,234546,196274,200704,1353
1783422531591547278,2026-07-07T18:08:51.591+07:00,540284109743017633,234718,196363,200808,1368
1783422531609729096,2026-07-07T18:08:51.609+07:00,540284109743017633,234868,196425,200932,1351
1783422531627910914,2026-07-07T18:08:51.627+07:00,540284109743017633,234981,196430,200925,1354
1783422531646092732,2026-07-07T18:08:51.646+07:00,540284110543755019,234951,196379,200974,1380
1783422531664274550,2026-07-07T18:08:51.664+07:00,540284110543755019,234948,196355,200969,1384
1783422531682456368,2026-07-07T18:08:51.682+07:00,540284110543755019,234941,196311,200931,1393
1783422531700638186,2026-07-07T18:08:51.700+07:00,540284110543755019,234868,196267,200890,1333
1783422531718820004,2026-07-07T18:08:51.718+07:00,540284110543755019,234918,196218,200921,1350
1783422531737001822,2026-07-07T18:08:51.737+07:00,540284110543755019,234872,196211,200924,1332
1783422531755183640,2026-07-07T18:08:51.755+07:00,540284110543755019,234879,196243,201013,1347
1783422531773365458,2026-07-07T18:08:51.773+07:00,540284110543755019,234927,196206,201069,1335
1783422531791547276,2026-07-07T18:08:51.791+07:00,540284110543755019,234969,196259,201147,1412
1783422531809729094,2026-07-07T18:08:51.809+07:00,540284110543755019,234979,196257,201190,1310
1783422531827910912,2026-07-07T18:08:51.827+07:00,540284110543755019,235004,196325,201211,1349
1783422531846092730,2026-07-07T18:08:51.846+07:00,540284110543755019,235027,196287,201167,1318
1783422531864274548,2026-07-07T18:08:51.864+07:00,540284110543755019,235095,196315,201278,1340
1783422531882456366,2026-07-07T18:08:51.882+07:00,540284110543755019,235121,196366,201280,1327
1783422531900638184,2026-07-07T18:08:51.900+07:00,540284110543755019,235174,196321,201256,1337
1783422531918820002,2026-07-07T18:08:51.918+07:00,540284110543755019,235264,196300,201375,1360
1783422531937001820,2026-07-07T18:08:51.937+07:00,540284110543755019,235391,196378,201501,1351
1783422531955183638,2026-07-07T18:08:51.955+07:00,540284110543755019,235429,196348,201589,1338
1783422531973365456,2026-07-07T18:08:51.973+07:00,540284110543755019,235518,196424,201663,1336
1783422531991547274,2026-07-07T18:08:51.991+07:00,540284110543755019,235498,196447,201680,1297
1783422532009729092,2026-07-07T18:08:52.009+07:00,540284110543755019,235613,196459,201693,1337
1783422532027910910,2026-07-07T18:08:52.027+07:00,540284110543755019,235706,196540,201741,1333
1783422532046092728,2026-07-07T18:08:52.046+07:00,540284110543755019,235726,196603,201822,1331
1783422532064274546,2026-07-07T18:08:52.064+07:00,540284110543755019,235828,196605,201922,1319
1783422532082456364,2026-07-07T18:08:52.082+07:00,540284110543755019,235978,196690,201994,1347
1783422532100638182,2026-07-07T18:08:52.100+07:00,540284110543755019,236057,196683,202039,1316
1783422532118820000,2026-07-07T18:08:52.118+07:00,540284110543755019,236194,196803,202247,1297
1783422532137001818,2026-07-07T18:08:52.137+07:00,540284110543755019,236257,196839,202325,1321
1783422532155183636,2026-07-07T18:08:52.155+07:00,540284110543755019,236288,196913,202431,1306
1783422532173365454,2026-07-07T18:08:52.173+07:00,540284110543755019,236295,196993,202443,1302
1783422532191547272,2026-07-07T18:08:52.191+07:00,540284110543755019,236422,197028,202466,1293
1783422532209729090,2026-07-07T18:08:52.209+07:00,540284110543755019,236504,197044,202517,1301
1783422532227910908,2026-07-07T18:08:52.227+07:00,540284110543755019,236654,197158,202671,1322
1783422532246092726,2026-07-07T18:08:52.246+07:00,540284110543755019,236740,197186,202766,1335
1783422532264274544,2026-07-07T18:08:52.264+07:00,540284110543755019,236849,197285,202857,1271
1783422532282456362,2026-07-07T18:08:52.282+07:00,540284110543755019,237030,197344,203011,1305
1783422532300638180,2026-07-07T18:08:52.300+07:00,540284110543755019,237111,197347,203095,1319
1783422532318819998,2026-07-07T18:08:52.318+07:00,540284110543755019,237149,197430,203109,1388
1783422532337001816,2026-07-07T18:08:52.337+07:00,540284110543755019,237120,197373,203087,1367
1783422532355183634,2026-07-07T18:08:52.355+07:00,540284110543755019,236891,197352,202959,1334
1783422532373365452,2026-07-07T18:08:52.373+07:00,540284110543755019,236783,197246,202907,1304
1783422532391547270,2026-07-07T18:08:52.391+07:00,540284110543755019,236728,197216,202787,1342
1783422532409729088,2026-07-07T18:08:52.409+07:00,540284110543755019,236580,197111,202670,1323
1783422532427910906,2026-07-07T18:08:52.427+07:00,540284110543755019,236600,197113,202699,1286
1783422532446092724,2026-07-07T18:08:52.446+07:00,540284111289898764,236577,197148,202728,1311
1783422532464274542,2026-07-07T18:08:52.464+07:00,540284111289898764,236596,197133,202827,1316
1783422532482456360,2026-07-07T18:08:52.482+07:00,540284111289898764,236546,197135,202778,1324
1783422532500638178,2026-07-07T18:08:52.500+07:00,540284111289898764,236523,197084,202708,1284
1783422532518819996,2026-07-07T18:08:52.518+07:00,540284111289898764,236543,197143,202690,1288
1783422532537001814,2026-07-07T18:08:52.537+07:00,540284111289898764,236533,197162,202694,1259
1783422532555183632,2026-07-07T18:08:52.555+07:00,540284111289898764,236518,197134,202632,1298
1783422532573365450,2026-07-07T18:08:52.573+07:00,540284111289898764,236495,197176,202654,1293
1783422532591547268,2026-07-07T18:08:52.591+07:00,540284111289898764,236438,197114,202619,1324
1783422532609729086,2026-07-07T18:08:52.609+07:00,540284111289898764,236465,197086,202683,1342
1783422532627910904,2026-07-07T18:08:52.627+07:00,540284111289898764,236437,197154,202674,1313
1783422532646092722,2026-07-07T18:08:52.646+07:00,540284111289898764,236430,197209,202727,1293
1783422532664274540,2026-07-07T18:08:52.664+07:00,540284111289898764,236478,197185,202743,1281
1783422532682456358,2026-07-07T18:08:52.682+07:00,540284111289898764,236449,197228,202751,1313
1783422532700638176,2026-07-07T18:08:52.700+07:00,540284111289898764,236436,197177,202742,1333
1783422532718819994,2026-07-07T18:08:52.718+07:00,540284111289898764,236510,197308,202834,1354
1783422532737001812,2026-07-07T18:08:52.737+07:00,540284111289898764,236541,197299,202790,1303
1783422532755183630,2026-07-07T18:08:52.755+07:00,540284111289898764,236596,197383,202806,1352
1783422532773365448,2026-07-07T18:08:52.773+07:00,540284111289898764,236699,197389,202888,1315
1783422532791547266,2026-07-07T18:08:52.791+07:00,540284111289898764,236763,197447,202934,1293
1783422532809729084,2026-07-07T18:08:52.809+07:00,540284111289898764,236829,197454,202970,1326
1783422532827910902,2026-07-07T18:08:52.827+07:00,540284111289898764,237030,197576,203112,1328
1783422532846092720,2026-07-07T18:08:52.846+07:00,540284111289898764,237024,197594,203086,1256
1783422532864274538,2026-07-07T18:08:52.864+07:00,540284111289898764,237134,197654,203204,1321
1783422532882456356,2026-07-07T18:08:52.882+07:00,540284111289898764,237183,197745,203289,1335
1783422532900638174,2026-07-07T18:08:52.900+07:00,540284111289898764,237281,197846,203436,1328
1783422532918819992,2026-07-07T18:08:52.918+07:00,540284111289898764,237371,197834,203426,1319
1783422532937001810,2026-07-07T18:08:52.937+07:00,540284111289898764,237453,197936,203581,1293
1783422532955183628,2026-07-07T18:08:52.955+07:00,540284111289898764,237561,198045,203661,1326
1783422532973365446,2026-07-07T18:08:52.973+07:00,540284111289898764,237636,198109,203702,1365
1783422532991547264,2026-07-07T18:08:52.991+07:00,540284111289898764,237552,198209,203770,1307
1783422533009729082,2026-07-07T18:08:53.009+07:00,540284111289898764,237661,198134,203766,1349
1783422533027910900,2026-07-07T18:08:53.027+07:00,540284111289898764,237609,198132,203767,1291
1783422533046092718,2026-07-07T18:08:53.046+07:00,540284111289898764,237546,198109,203696,1279
1783422533064274536,2026-07-07T18:08:53.064+07:00,540284111289898764,237546,198063,203651,1325
1783422533082456354,2026-07-07T18:08:53.082+07:00,540284111289898764,237427,197962,203529,1315
1783422533100638172,2026-07-07T18:08:53.100+07:00,540284111289898764,237216,197900,203446,1325
1783422533118819990,2026-07-07T18:08:53.118+07:00,540284111289898764,237123,197834,203330,1248
1783422533137001808,2026-07-07T18:08:53.137+07:00,540284111289898764,237063,197835,203327,1290
1783422533155183626,2026-07-07T18:08:53.155+07:00,540284111289898764,237063,197842,203279,1311
1783422533173365444,2026-07-07T18:08:53.173+07:00,540284111289898764,236965,197744,203257,1274
1783422533191547262,2026-07-07T18:08:53.191+07:00,540284112108834033,236994,197779,203331,1322
1783422533209729080,2026-07-07T18:08:53.209+07:00,540284112108834033,236975,197746,203293,1298
1783422533227910898,2026-07-07T18:08:53.227+07:00,540284112108834033,237027,197826,203286,1324
1783422533246092716,2026-07-07T18:08:53.246+07:00,540284112108834033,236989,197819,203267,1319
1783422533264274534,2026-07-07T18:08:53.264+07:00,540284112108834033,236986,197861,203316,1332
1783422533282456352,2026-07-07T18:08:53.282+07:00,540284112108834033,236905,197846,203217,1284
1783422533300638170,2026-07-07T18:08:53.300+07:00,540284112108834033,236874,197818,203167,1280
1783422533318819988,2026-07-07T18:08:53.318+07:00,540284112108834033,236813,197830,203152,1291
1783422533337001806,2026-07-07T18:08:53.337+07:00,540284112108834033,236767,197747,203080,1293
1783422533355183624,2026-07-07T18:08:53.355+07:00,540284112108834033,236797,197748,203167,1335
1783422533373365442,2026-07-07T18:08:53.373+07:00,540284112108834033,236735,197831,203105,1308
1783422533391547260,2026-07-07T18:08:53.391+07:00,540284112108834033,236810,197870,203134,1360
1783422533409729078,2026-07-07T18:08:53.409+07:00,540284112108834033,236784,197782,203077,1324
1783422533427910896,2026-07-07T18:08:53.427+07:00,540284112108834033,236777,197778,203130,1332
1783422533446092714,2026-07-07T18:08:53.446+07:00,540284112108834033,236845,197847,203147,1341
1783422533464274532,2026-07-07T18:08:53.464+07:00,540284112108834033,236782,197879,203139,1298
1783422533482456350,2026-07-07T18:08:53.482+07:00,540284112108834033,236787,197914,203106,1348
1783422533500638168,2026-07-07T18:08:53.500+07:00,540284112108834033,236797,197912,203065,1341
1783422533518819986,2026-07-07T18:08:53.518+07:00,540284112108834033,236731,197938,203038,1336
1783422533537001804,2026-07-07T18:08:53.537+07:00,540284112108834033,236686,197963,203015,1307
1783422533555183622,2026-07-07T18:08:53.555+07:00,540284112108834033,236581,197897,202917,1293
1783422533573365440,2026-07-07T18:08:53.573+07:00,540284112108834033,236475,197881,202887,1322
1783422533591547258,2026-07-07T18:08:53.591+07:00,540284112108834033,236373,197799,202780,1317
1783422533609729076,2026-07-07T18:08:53.609+07:00,540284112108834033,236248,197882,202804,1311
1783422533627910894,2026-07-07T18:08:53.627+07:00,540284112108834033,236112,197822,202747,1389
1783422533646092712,2026-07-07T18:08:53.646+07:00,540284112108834033,235997,197764,202708,1356
1783422533664274530,2026-07-07T18:08:53.664+07:00,540284112108834033,235909,197718,202665,1323
1783422533682456348,2026-07-07T18:08:53.682+07:00,540284112108834033,235750,197707,202526,1315
1783422533700638166,2026-07-07T18:08:53.700+07:00,540284112108834033,235654,197672,202383,1367
1783422533718819984,2026-07-07T18:08:53.718+07:00,540284112108834033,235567,197538,202312,1359
1783422533737001802,2026-07-07T18:08:53.737+07:00,540284112108834033,235247,197374,202015,1268
1783422533755183620,2026-07-07T18:08:53.755+07:00,540284112108834033,235007,197254,201792,1300
1783422533773365438,2026-07-07T18:08:53.773+07:00,540284112108834033,234723,197050,201519,1266
1783422533791547256,2026-07-07T18:08:53.791+07:00,540284112108834033,234435,196858,201328,1386
1783422533809729074,2026-07-07T18:08:53.809+07:00,540284112108834033,234240,196682,201079,1325
1783422533827910892,2026-07-07T18:08:53.827+07:00,540284112108834033,234015,196513,200898,1277
1783422533846092710,2026-07-07T18:08:53.846+07:00,540284112108834033,233902,196398,200729,1314
1783422533864274528,2026-07-07T18:08:53.864+07:00,540284112108834033,233678,196242,200527,1321
1783422533882456346,2026-07-07T18:08:53.882+07:00,540284112108834033,233528,196221,200409,1308
1783422533900638164,2026-07-07T18:08:53.900+07:00,540284112108834033,233420,196051,200250,1294
1783422533918819982,2026-07-07T18:08:53.918+07:00,540284112108834033,233335,195975,200178,1340
1783422533937001800,2026-07-07T18:08:53.937+07:00,540284112108834033,233155,195838,200060,1337
1783422533955183618,2026-07-07T18:08:53.955+07:00,540284112108834033,233080,195779,199986,1388
1783422533973365436,2026-07-07T18:08:53.973+07:00,540284112108834033,232932,195626,199799,1369
1783422533991547254,2026-07-07T18:08:53.991+07:00,540284112108834033,232772,195491,199723,1314
1783422534009729072,2026-07-07T18:08:54.009+07:00,540284112873155817,232659,195434,199508,1298
1783422534027910890,2026-07-07T18:08:54.027+07:00,540284112873155817,232531,195314,199342,1360
1783422534046092708,2026-07-07T18:08:54.046+07:00,540284112873155817,232391,195178,199185,1268
1783422534064274526,2026-07-07T18:08:54.064+07:00,540284112873155817,232328,195083,199077,1331
1783422534082456344,2026-07-07T18:08:54.082+07:00,540284112873155817,232154,194960,198931,1313
1783422534100638162,2026-07-07T18:08:54.100+07:00,540284112873155817,232091,194834,198843,1349
1783422534118819980,2026-07-07T18:08:54.118+07:00,540284112873155817,232040,194813,198803,1349
1783422534137001798,2026-07-07T18:08:54.137+07:00,540284112873155817,231864,194701,198695,1377
1783422534155183616,2026-07-07T18:08:54.155+07:00,540284112873155817,231833,194697,198621,1343
1783422534173365434,2026-07-07T18:08:54.173+07:00,540284112873155817,231784,194650,198562,1343
1783422534191547252,2026-07-07T18:08:54.191+07:00,540284112873155817,231750,194609,198541,1276
1783422534209729070,2026-07-07T18:08:54.209+07:00,540284112873155817,231725,194526,198427,1335
1783422534227910888,2026-07-07T18:08:54.227+07:00,540284112873155817,231704,194506,198381,1324
1783422534246092706,2026-07-07T18:08:54.246+07:00,540284112873155817,231626,194428,198327,1326
1783422534264274524,2026-07-07T18:08:54.264+07:00,540284112873155817,231559,194422,198244,1264
1783422534282456342,2026-07-07T18:08:54.282+07:00,540284112873155817,231522,194321,198208,1318
1783422534300638160,2026-07-07T18:08:54.300+07:00,540284112873155817,231471,194320,198088,1326
1783422534318819978,2026-07-07T18:08:54.318+07:00,540284112873155817,231435,194275,198000,1331
1783422534337001796,2026-07-07T18:08:54.337+07:00,540284112873155817,231447,194299,198041,1371
1783422534355183614,2026-07-07T18:08:54.355+07:00,540284112873155817,231412,194276,198035,1343
1783422534373365432,2026-07-07T18:08:54.373+07:00,540284112873155817,231309,194137,197920,1274
1783422534391547250,2026-07-07T18:08:54.391+07:00,540284112873155817,231363,194149,197963,1326
1783422534409729068,2026-07-07T18:08:54.409+07:00,540284112873155817,231218,194110,197810,1251
1783422534427910886,2026-07-07T18:08:54.427+07:00,540284112873155817,231077,193957,197652,1276
1783422534446092704,2026-07-07T18:08:54.446+07:00,540284112873155817,230948,193814,197426,1380
1783422534464274522,2026-07-07T18:08:54.464+07:00,540284112873155817,230734,193690,197272,1323
1783422534482456340,2026-07-07T18:08:54.482+07:00,540284112873155817,230535,193492,197076,1338
1783422534500638158,2026-07-07T18:08:54.500+07:00,540284112873155817,230371,193263,196813,1345
1783422534518819976,2026-07-07T18:08:54.518+07:00,540284112873155817,230194,193121,196677,1311
1783422534537001794,2026-07-07T18:08:54.537+07:00,540284112873155817,229972,193069,196493,1319
1783422534555183612,2026-07-07T18:08:54.555+07:00,540284112873155817,229869,192848,196329,1318
1783422534573365430,2026-07-07T18:08:54.573+07:00,540284112873155817,229764,192860,196219,1303
1783422534591547248,2026-07-07T18:08:54.591+07:00,540284112873155817,229699,192773,196092,1294
1783422534609729066,2026-07-07T18:08:54.609+07:00,540284112873155817,229498,192636,195960,1292
1783422534627910884,2026-07-07T18:08:54.627+07:00,540284112873155817,229429,192599,195939,1352
1783422534646092702,2026-07-07T18:08:54.646+07:00,540284112873155817,229346,192503,195788,1310
1783422534664274520,2026-07-07T18:08:54.664+07:00,540284112873155817,229213,192408,195724,1344
1783422534682456338,2026-07-07T18:08:54.682+07:00,540284112873155817,229143,192239,195567,1299
1783422534700638156,2026-07-07T18:08:54.700+07:00,540284112873155817,228989,192130,195441,1273
1783422534718819974,2026-07-07T18:08:54.718+07:00,540284112873155817,228816,192017,195270,1253
1783422534737001792,2026-07-07T18:08:54.737+07:00,540284112873155817,228842,191965,195217,1294
1783422534755183610,2026-07-07T18:08:54.755+07:00,540284112873155817,228689,191907,195079,1259
1783422534773365428,2026-07-07T18:08:54.773+07:00,540284113637666813,228556,191823,194978,1338
1783422534791547246,2026-07-07T18:08:54.791+07:00,540284113637666813,228485,191675,194841,1310
1783422534809729064,2026-07-07T18:08:54.809+07:00,540284113637666813,228376,191617,194800,1296
1783422534827910882,2026-07-07T18:08:54.827+07:00,540284113637666813,228350,191590,194744,1331
1783422534846092700,2026-07-07T18:08:54.846+07:00,540284113637666813,228285,191486,194694,1292
1783422534864274518,2026-07-07T18:08:54.864+07:00,540284113637666813,228258,191487,194628,1323
1783422534882456336,2026-07-07T18:08:54.882+07:00,540284113637666813,228164,191463,194577,1294
1783422534900638154,2026-07-07T18:08:54.900+07:00,540284113637666813,228122,191415,194567,1296
1783422534918819972,2026-07-07T18:08:54.918+07:00,540284113637666813,228138,191390,194490,1290
1783422534937001790,2026-07-07T18:08:54.937+07:00,540284113637666813,228098,191366,194461,1300
1783422534955183608,2026-07-07T18:08:54.955+07:00,540284113637666813,228087,191327,194433,1282
1783422534973365426,2026-07-07T18:08:54.973+07:00,540284113637666813,228082,191318,194372,1257
1783422534991547244,2026-07-07T18:08:54.991+07:00,540284113637666813,228011,191137,194278,1283
1783422535009729062,2026-07-07T18:08:55.009+07:00,540284113637666813,228057,191109,194276,1320
1783422535027910880,2026-07-07T18:08:55.027+07:00,540284113637666813,227989,191147,194266,1258
1783422535046092698,2026-07-07T18:08:55.046+07:00,540284113637666813,227943,191115,194277,1342
1783422535064274516,2026-07-07T18:08:55.064+07:00,540284113637666813,227940,191063,194195,1360
1783422535082456334,2026-07-07T18:08:55.082+07:00,540284113637666813,227911,191048,194143,1303
1783422535100638152,2026-07-07T18:08:55.100+07:00,540284113637666813,227808,191014,194057,1350
1783422535118819970,2026-07-07T18:08:55.118+07:00,540284113637666813,227642,190801,193916,1245
1783422535137001788,2026-07-07T18:08:55.137+07:00,540284113637666813,227475,190664,193740,1293
1783422535155183606,2026-07-07T18:08:55.155+07:00,540284113637666813,227241,190402,193438,1291
1783422535173365424,2026-07-07T18:08:55.173+07:00,540284113637666813,227042,190323,193304,1325
1783422535191547242,2026-07-07T18:08:55.191+07:00,540284113637666813,226775,190133,193040,1336
1783422535209729060,2026-07-07T18:08:55.209+07:00,540284113637666813,226628,189943,192882,1302
1783422535227910878,2026-07-07T18:08:55.227+07:00,540284113637666813,226411,189795,192715,1302
1783422535246092696,2026-07-07T18:08:55.246+07:00,540284113637666813,226250,189555,192489,1330
1783422535264274514,2026-07-07T18:08:55.264+07:00,540284113637666813,226142,189411,192389,1334
1783422535282456332,2026-07-07T18:08:55.282+07:00,540284113637666813,225997,189325,192318,1348
1783422535300638150,2026-07-07T18:08:55.300+07:00,540284113637666813,225861,189211,192196,1341
1783422535318819968,2026-07-07T18:08:55.318+07:00,540284113637666813,225795,189079,192050,1370
1783422535337001786,2026-07-07T18:08:55.337+07:00,540284113637666813,225693,189018,191948,1350
1783422535355183604,2026-07-07T18:08:55.355+07:00,540284113637666813,225471,188866,191729,1282
1783422535373365422,2026-07-07T18:08:55.373+07:00,540284113637666813,225358,188774,191590,1303
1783422535391547240,2026-07-07T18:08:55.391+07:00,540284113637666813,225182,188611,191541,1327
1783422535409729058,2026-07-07T18:08:55.409+07:00,540284113637666813,225035,188510,191352,1274
1783422535427910876,2026-07-07T18:08:55.427+07:00,540284113637666813,224940,188412,191298,1317
1783422535446092694,2026-07-07T18:08:55.446+07:00,540284113637666813,224877,188308,191143,1319
1783422535464274512,2026-07-07T18:08:55.464+07:00,540284113637666813,224722,188187,191041,1247
1783422535482456330,2026-07-07T18:08:55.482+07:00,540284113637666813,224639,188119,190969,1325
1783422535500638148,2026-07-07T18:08:55.500+07:00,540284113637666813,224515,187953,190822,1303
1783422535518819966,2026-07-07T18:08:55.518+07:00,540284113637666813,224449,187939,190789,1365
1783422535537001784,2026-07-07T18:08:55.537+07:00,540284114420325338,224386,187862,190697,1292
1783422535555183602,2026-07-07T18:08:55.555+07:00,540284114420325338,224313,187762,190639,1303
1783422535573365420,2026-07-07T18:08:55.573+07:00,540284114420325338,224284,187725,190596,1320
1783422535591547238,2026-07-07T18:08:55.591+07:00,540284114420325338,224297,187695,190562,1354
1783422535609729056,2026-07-07T18:08:55.609+07:00,540284114420325338,224224,187577,190493,1304
1783422535627910874,2026-07-07T18:08:55.627+07:00,540284114420325338,224207,187565,190444,1372
1783422535646092692,2026-07-07T18:08:55.646+07:00,540284114420325338,224144,187468,190390,1304
1783422535664274510,2026-07-07T18:08:55.664+07:00,540284114420325338,224057,187479,190339,1321
1783422535682456328,2026-07-07T18:08:55.682+07:00,540284114420325338,224048,187383,190305,1326
1783422535700638146,2026-07-07T18:08:55.700+07:00,540284114420325338,224034,187331,190273,1308
1783422535718819964,2026-07-07T18:08:55.718+07:00,540284114420325338,224015,187281,190251,1384
1783422535737001782,2026-07-07T18:08:55.737+07:00,540284114420325338,223948,187281,190281,1365
1783422535755183600,2026-07-07T18:08:55.755+07:00,540284114420325338,223942,187265,190208,1280
1783422535773365418,2026-07-07T18:08:55.773+07:00,540284114420325338,223945,187235,190219,1290
1783422535791547236,2026-07-07T18:08:55.791+07:00,540284114420325338,223847,187156,190203,1314
1783422535809729054,2026-07-07T18:08:55.809+07:00,540284114420325338,223793,187080,190101,1262
1783422535827910872,2026-07-07T18:08:55.827+07:00,540284114420325338,223619,186966,189897,1326
1783422535846092690,2026-07-07T18:08:55.846+07:00,540284114420325338,223418,186734,189714,1327
1783422535864274508,2026-07-07T18:08:55.864+07:00,540284114420325338,223185,186515,189467,1306
1783422535882456326,2026-07-07T18:08:55.882+07:00,540284114420325338,222968,186315,189223,1290
1783422535900638144,2026-07-07T18:08:55.900+07:00,540284114420325338,222725,186141,189005,1337
1783422535918819962,2026-07-07T18:08:55.918+07:00,540284114420325338,222469,185936,188848,1331
1783422535937001780,2026-07-07T18:08:55.937+07:00,540284114420325338,222281,185754,188653,1335
1783422535955183598,2026-07-07T18:08:55.955+07:00,540284114420325338,222098,185647,188424,1296
1783422535973365416,2026-07-07T18:08:55.973+07:00,540284114420325338,221922,185453,188327,1314
1783422535991547234,2026-07-07T18:08:55.991+07:00,540284114420325338,221803,185306,188156,1318
1783422536009729052,2026-07-07T18:08:56.009+07:00,540284114420325338,221597,185162,188070,1311
1783422536027910870,2026-07-07T18:08:56.027+07:00,540284114420325338,221499,185135,187937,1371
1783422536046092688,2026-07-07T18:08:56.046+07:00,540284114420325338,221386,185018,187814,1369
1783422536064274506,2026-07-07T18:08:56.064+07:00,540284114420325338,221251,184957,187690,1403
1783422536082456324,2026-07-07T18:08:56.082+07:00,540284114420325338,221141,184852,187573,1352
1783422536100638142,2026-07-07T18:08:56.100+07:00,540284114420325338,221008,184708,187443,1274
1783422536118819960,2026-07-07T18:08:56.118+07:00,540284114420325338,220872,184579,187336,1337
1783422536137001778,2026-07-07T18:08:56.137+07:00,540284114420325338,220733,184437,187172,1332
1783422536155183596,2026-07-07T18:08:56.155+07:00,540284114420325338,220660,184350,187094,1362
1783422536173365414,2026-07-07T18:08:56.173+07:00,540284114420325338,220593,184249,187053,1318
1783422536191547232,2026-07-07T18:08:56.191+07:00,540284114420325338,220451,184164,186953,1354
1783422536209729050,2026-07-07T18:08:56.209+07:00,540284114420325338,220372,184129,186897,1417
1783422536227910868,2026-07-07T18:08:56.227+07:00,540284114420325338,220317,184059,186823,1389
1783422536246092686,2026-07-07T18:08:56.246+07:00,540284114420325338,220306,184043,186800,1357
1783422536264274504,2026-07-07T18:08:56.264+07:00,540284114420325338,220237,183960,186724,1328
1783422536282456322,2026-07-07T18:08:56.282+07:00,540284114420325338,220233,183931,186698,1356
1783422536300638140,2026-07-07T18:08:56.300+07:00,540284114420325338,220151,183846,186669,1337
1783422536318819958,2026-07-07T18:08:56.318+07:00,540284115239323167,220101,183827,186607,1360
1783422536337001776,2026-07-07T18:08:56.337+07:00,540284115239323167,220106,183833,186654,1315
1783422536355183594,2026-07-07T18:08:56.355+07:00,540284115239323167,220132,183794,186593,1320
1783422536373365412,2026-07-07T18:08:56.373+07:00,540284115239323167,219993,183725,186522,1275
1783422536391547230,2026-07-07T18:08:56.391+07:00,540284115239323167,220049,183688,186532,1268
1783422536409729048,2026-07-07T18:08:56.409+07:00,540284115239323167,219998,183711,186467,1368
1783422536427910866,2026-07-07T18:08:56.427+07:00,540284115239323167,219891,183683,186478,1338
1783422536446092684,2026-07-07T18:08:56.446+07:00,540284115239323167,219991,183647,186511,1355
1783422536464274502,2026-07-07T18:08:56.464+07:00,540284115239323167,219988,183665,186571,1333
1783422536482456320,2026-07-07T18:08:56.482+07:00,540284115239323167,219999,183577,186553,1358
1783422536500638138,2026-07-07T18:08:56.500+07:00,540284115239323167,219990,183594,186528,1369
1783422536518819956,2026-07-07T18:08:56.518+07:00,540284115239323167,219843,183475,186393,1303
1783422536537001774,2026-07-07T18:08:56.537+07:00,540284115239323167,219710,183294,186327,1300
1783422536555183592,2026-07-07T18:08:56.555+07:00,540284115239323167,219531,183160,186101,1300
1783422536573365410,2026-07-07T18:08:56.573+07:00,540284115239323167,219325,183009,185921,1281
1783422536591547228,2026-07-07T18:08:56.591+07:00,540284115239323167,219057,182795,185721,1314
1783422536609729046,2026-07-07T18:08:56.609+07:00,540284115239323167,218785,182574,185507,1310
1783422536627910864,2026-07-07T18:08:56.627+07:00,540284115239323167,218591,182430,185336,1266
1783422536646092682,2026-07-07T18:08:56.646+07:00,540284115239323167,218473,182275,185173,1331
1783422536664274500,2026-07-07T18:08:56.664+07:00,540284115239323167,218335,182197,185006,1266
1783422536682456318,2026-07-07T18:08:56.682+07:00,540284115239323167,218208,182149,184916,1276
1783422536700638136,2026-07-07T18:08:56.700+07:00,540284115239323167,218060,181943,184818,1262
1783422536718819954,2026-07-07T18:08:56.718+07:00,540284115239323167,218076,181928,184788,1340
1783422536737001772,2026-07-07T18:08:56.737+07:00,540284115239323167,217980,181858,184720,1332
1783422536755183590,2026-07-07T18:08:56.755+07:00,540284115239323167,217819,181711,184576,1299
1783422536773365408,2026-07-07T18:08:56.773+07:00,540284115239323167,217703,181603,184440,1327
1783422536791547226,2026-07-07T18:08:56.791+07:00,540284115239323167,217601,181529,184415,1368
1783422536809729044,2026-07-07T18:08:56.809+07:00,540284115239323167,217556,181422,184294,1392
1783422536827910862,2026-07-07T18:08:56.827+07:00,540284115239323167,217437,181344,184253,1321
1783422536846092680,2026-07-07T18:08:56.846+07:00,540284115239323167,217312,181263,184169,1305
1783422536864274498,2026-07-07T18:08:56.864+07:00,540284115239323167,217239,181221,184105,1334
1783422536882456316,2026-07-07T18:08:56.882+07:00,540284115239323167,217129,181174,184020,1318
1783422536900638134,2026-07-07T18:08:56.900+07:00,540284115239323167,217058,181119,183959,1339
1783422536918819952,2026-07-07T18:08:56.918+07:00,540284115239323167,217094,181081,183940,1327
1783422536937001770,2026-07-07T18:08:56.937+07:00,540284115239323167,217081,181011,183989,1328
1783422536955183588,2026-07-07T18:08:56.955+07:00,540284115239323167,217047,180991,183927,1319
1783422536973365406,2026-07-07T18:08:56.973+07:00,540284115239323167,217007,180977,183891,1274
1783422536991547224,2026-07-07T18:08:56.991+07:00,540284115239323167,216934,180935,183900,1259
1783422537009729042,2026-07-07T18:08:57.009+07:00,540284115239323167,216963,180954,183892,1310
1783422537027910860,2026-07-07T18:08:57.027+07:00,540284115239323167,216997,180977,184002,1366
1783422537046092678,2026-07-07T18:08:57.046+07:00,540284115239323167,216934,180937,183968,1283
1783422537064274496,2026-07-07T18:08:57.064+07:00,540284115239323167,216986,180917,183959,1311
1783422537082456314,2026-07-07T18:08:57.082+07:00,540284115239323167,216973,180973,183973,1308
1783422537100638132,2026-07-07T18:08:57.100+07:00,540284115239323167,216942,180876,183927,1337
1783422537118819950,2026-07-07T18:08:57.118+07:00,540284115239323167,217007,180904,183987,1382
1783422537137001768,2026-07-07T18:08:57.137+07:00,540284116021958808,216980,180947,184009,1344
1783422537155183586,2026-07-07T18:08:57.155+07:00,540284116021958808,217017,180922,183999,1330
1783422537173365404,2026-07-07T18:08:57.173+07:00,540284116021958808,216995,180930,184029,1304
1783422537191547222,2026-07-07T18:08:57.191+07:00,540284116021958808,216906,180859,183959,1305
1783422537209729040,2026-07-07T18:08:57.209+07:00,540284116021958808,216766,180790,183846,1286
1783422537227910858,2026-07-07T18:08:57.227+07:00,540284116021958808,216667,180651,183736,1323
1783422537246092676,2026-07-07T18:08:57.246+07:00,540284116021958808,216443,180461,183554,1336
1783422537264274494,2026-07-07T18:08:57.264+07:00,540284116021958808,216227,180305,183347,1293
1783422537282456312,2026-07-07T18:08:57.282+07:00,540284116021958808,216049,180162,183232,1324
1783422537300638130,2026-07-07T18:08:57.300+07:00,540284116021958808,215938,180099,183115,1380
1783422537318819948,2026-07-07T18:08:57.318+07:00,540284116021958808,215841,179980,183018,1301
1783422537337001766,2026-07-07T18:08:57.337+07:00,540284116021958808,215714,179850,182939,1296
1783422537355183584,2026-07-07T18:08:57.355+07:00,540284116021958808,215621,179705,182814,1237
1783422537373365402,2026-07-07T18:08:57.373+07:00,540284116021958808,215469,179687,182741,1242
1783422537391547220,2026-07-07T18:08:57.391+07:00,540284116021958808,215379,179629,182741,1282
1783422537409729038,2026-07-07T18:08:57.409+07:00,540284116021958808,215321,179570,182712,1333
1783422537427910856,2026-07-07T18:08:57.427+07:00,540284116021958808,215273,179522,182626,1303
1783422537446092674,2026-07-07T18:08:57.446+07:00,540284116021958808,215228,179450,182621,1305
1783422537464274492,2026-07-07T18:08:57.464+07:00,540284116021958808,215218,179376,182576,1314
1783422537482456310,2026-07-07T18:08:57.482+07:00,540284116021958808,215142,179350,182528,1336
1783422537500638128,2026-07-07T18:08:57.500+07:00,540284116021958808,215047,179295,182453,1345
1783422537518819946,2026-07-07T18:08:57.518+07:00,540284116021958808,214948,179184,182393,1293
1783422537537001764,2026-07-07T18:08:57.537+07:00,540284116021958808,214990,179230,182372,1343
1783422537555183582,2026-07-07T18:08:57.555+07:00,540284116021958808,214898,179213,182371,1330
1783422537573365400,2026-07-07T18:08:57.573+07:00,540284116021958808,214889,179196,182402,1340
1783422537591547218,2026-07-07T18:08:57.591+07:00,540284116021958808,214840,179122,182347,1338
1783422537609729036,2026-07-07T18:08:57.609+07:00,540284116021958808,214877,179157,182378,1296
1783422537627910854,2026-07-07T18:08:57.627+07:00,540284116021958808,214904,179091,182389,1321
1783422537646092672,2026-07-07T18:08:57.646+07:00,540284116021958808,214858,179101,182366,1330
1783422537664274490,2026-07-07T18:08:57.664+07:00,540284116021958808,214887,179116,182415,1309
1783422537682456308,2026-07-07T18:08:57.682+07:00,540284116021958808,214921,179129,182389,1271
1783422537700638126,2026-07-07T18:08:57.700+07:00,540284116021958808,214930,179114,182443,1325
1783422537718819944,2026-07-07T18:08:57.718+07:00,540284116021958808,214906,179131,182463,1270
1783422537737001762,2026-07-07T18:08:57.737+07:00,540284116021958808,214913,179176,182514,1313
1783422537755183580,2026-07-07T18:08:57.755+07:00,540284116021958808,214951,179237,182574,1384
1783422537773365398,2026-07-07T18:08:57.773+07:00,540284116021958808,215018,179219,182661,1357
1783422537791547216,2026-07-07T18:08:57.791+07:00,540284116021958808,215047,179283,182693,1319
1783422537809729034,2026-07-07T18:08:57.809+07:00,540284116021958808,215068,179232,182667,1378
1783422537827910852,2026-07-07T18:08:57.827+07:00,540284116021958808,215045,179237,182707,1349
1783422537846092670,2026-07-07T18:08:57.846+07:00,540284116021958808,215007,179170,182632,1330
1783422537864274488,2026-07-07T18:08:57.864+07:00,540284116021958808,214934,179031,182526,1351
1783422537882456306,2026-07-07T18:08:57.882+07:00,540284116021958808,214757,178924,182391,1393
1783422537900638124,2026-07-07T18:08:57.900+07:00,540284116021958808,214518,178793,182280,1352
1783422537918819942,2026-07-07T18:08:57.918+07:00,540284116822665676,214365,178640,182111,1377
1783422537937001760,2026-07-07T18:08:57.937+07:00,540284116822665676,214247,178567,182003,1267
1783422537955183578,2026-07-07T18:08:57.955+07:00,540284116822665676,214134,178471,181891,1341
1783422537973365396,2026-07-07T18:08:57.973+07:00,540284116822665676,214041,178447,181878,1342
1783422537991547214,2026-07-07T18:08:57.991+07:00,540284116822665676,214011,178346,181798,1350
1783422538009729032,2026-07-07T18:08:58.009+07:00,540284116822665676,213956,178292,181729,1330
1783422538027910850,2026-07-07T18:08:58.027+07:00,540284116822665676,213936,178278,181735,1341
1783422538046092668,2026-07-07T18:08:58.046+07:00,540284116822665676,213849,178214,181681,1333
1783422538064274486,2026-07-07T18:08:58.064+07:00,540284116822665676,213827,178207,181677,1304
1783422538082456304,2026-07-07T18:08:58.082+07:00,540284116822665676,213774,178205,181658,1320
1783422538100638122,2026-07-07T18:08:58.100+07:00,540284116822665676,213708,178113,181656,1289
1783422538118819940,2026-07-07T18:08:58.118+07:00,540284116822665676,213707,178083,181652,1265
1783422538137001758,2026-07-07T18:08:58.137+07:00,540284116822665676,213660,178049,181649,1250
1783422538155183576,2026-07-07T18:08:58.155+07:00,540284116822665676,213742,178053,181641,1320
1783422538173365394,2026-07-07T18:08:58.173+07:00,540284116822665676,213614,177987,181570,1268
1783422538191547212,2026-07-07T18:08:58.191+07:00,540284116822665676,213591,177998,181594,1300
1783422538209729030,2026-07-07T18:08:58.209+07:00,540284116822665676,213665,177993,181652,1296
1783422538227910848,2026-07-07T18:08:58.227+07:00,540284116822665676,213678,177987,181669,1336
1783422538246092666,2026-07-07T18:08:58.246+07:00,540284116822665676,213699,178052,181698,1308
1783422538264274484,2026-07-07T18:08:58.264+07:00,540284116822665676,213734,178119,181709,1308
1783422538282456302,2026-07-07T18:08:58.282+07:00,540284116822665676,213808,178075,181787,1304
1783422538300638120,2026-07-07T18:08:58.300+07:00,540284116822665676,213884,178171,181809,1322
1783422538318819938,2026-07-07T18:08:58.318+07:00,540284116822665676,213862,178138,181783,1264
1783422538337001756,2026-07-07T18:08:58.337+07:00,540284116822665676,213992,178211,181946,1283
1783422538355183574,2026-07-07T18:08:58.355+07:00,540284116822665676,214015,178270,182020,1308
1783422538373365392,2026-07-07T18:08:58.373+07:00,540284116822665676,214050,178318,182010,1291
1783422538391547210,2026-07-07T18:08:58.391+07:00,540284116822665676,214165,178339,182135,1330
1783422538409729028,2026-07-07T18:08:58.409+07:00,540284116822665676,214191,178419,182168,1305
1783422538427910846,2026-07-07T18:08:58.427+07:00,540284116822665676,214318,178522,182288,1361
1783422538446092664,2026-07-07T18:08:58.446+07:00,540284116822665676,214289,178534,182305,1290
1783422538464274482,2026-07-07T18:08:58.464+07:00,540284116822665676,214493,178620,182423,1356
1783422538482456300,2026-07-07T18:08:58.482+07:00,540284116822665676,214518,178619,182511,1320
1783422538500638118,2026-07-07T18:08:58.500+07:00,540284116822665676,214489,178655,182537,1298
1783422538518819936,2026-07-07T18:08:58.518+07:00,540284116822665676,214547,178708,182558,1282
1783422538537001754,2026-07-07T18:08:58.537+07:00,540284116822665676,214497,178689,182498,1307
1783422538555183572,2026-07-07T18:08:58.555+07:00,540284116822665676,214353,178587,182409,1257
1783422538573365390,2026-07-07T18:08:58.573+07:00,540284116822665676,214169,178426,182310,1264
1783422538591547208,2026-07-07T18:08:58.591+07:00,540284116822665676,214054,178375,182140,1255
1783422538609729026,2026-07-07T18:08:58.609+07:00,540284116822665676,214017,178203,182014,1301
1783422538627910844,2026-07-07T18:08:58.627+07:00,540284116822665676,213912,178176,182023,1311
1783422538646092662,2026-07-07T18:08:58.646+07:00,540284116822665676,213814,178067,181937,1335
1783422538664274480,2026-07-07T18:08:58.664+07:00,540284116822665676,213730,178057,181890,1359
1783422538682456298,2026-07-07T18:08:58.682+07:00,540284116822665676,213744,178104,181870,1310
1783422538700638116,2026-07-07T18:08:58.700+07:00,540284116822665676,213667,178060,181879,1331
1783422538718819934,2026-07-07T18:08:58.718+07:00,540284117641570427,213631,178026,181846,1310
1783422538737001752,2026-07-07T18:08:58.737+07:00,540284117641570427,213590,178026,181890,1314
1783422538755183570,2026-07-07T18:08:58.755+07:00,540284117641570427,213617,178055,181904,1344
1783422538773365388,2026-07-07T18:08:58.773+07:00,540284117641570427,213667,177981,181901,1350
1783422538791547206,2026-07-07T18:08:58.791+07:00,540284117641570427,213577,177964,181840,1330
1783422538809729024,2026-07-07T18:08:58.809+07:00,540284117641570427,213583,178007,181872,1323
1783422538827910842,2026-07-07T18:08:58.827+07:00,540284117641570427,213573,178001,181843,1290
1783422538846092660,2026-07-07T18:08:58.846+07:00,540284117641570427,213578,177954,181880,1379
1783422538864274478,2026-07-07T18:08:58.864+07:00,540284117641570427,213544,177988,181866,1302
1783422538882456296,2026-07-07T18:08:58.882+07:00,540284117641570427,213573,177944,181870,1286
1783422538900638114,2026-07-07T18:08:58.900+07:00,540284117641570427,213554,177921,181874,1317
1783422538918819932,2026-07-07T18:08:58.918+07:00,540284117641570427,213552,177983,181901,1333
1783422538937001750,2026-07-07T18:08:58.937+07:00,540284117641570427,213642,178025,181977,1365
1783422538955183568,2026-07-07T18:08:58.955+07:00,540284117641570427,213690,178034,182007,1336
1783422538973365386,2026-07-07T18:08:58.973+07:00,540284117641570427,213728,177989,182047,1336
1783422538991547204,2026-07-07T18:08:58.991+07:00,540284117641570427,213798,178151,182179,1311
1783422539009729022,2026-07-07T18:08:59.009+07:00,540284117641570427,213884,178220,182262,1382
1783422539027910840,2026-07-07T18:08:59.027+07:00,540284117641570427,213951,178246,182281,1320
1783422539046092658,2026-07-07T18:08:59.046+07:00,540284117641570427,213901,178263,182318,1309
1783422539064274476,2026-07-07T18:08:59.064+07:00,540284117641570427,213974,178345,182396,1313
1783422539082456294,2026-07-07T18:08:59.082+07:00,540284117641570427,214051,178422,182422,1298
1783422539100638112,2026-07-07T18:08:59.100+07:00,540284117641570427,214104,178443,182517,1262
1783422539118819930,2026-07-07T18:08:59.118+07:00,540284117641570427,214192,178584,182604,1300
1783422539137001748,2026-07-07T18:08:59.137+07:00,540284117641570427,214263,178502,182570,1309
1783422539155183566,2026-07-07T18:08:59.155+07:00,540284117641570427,214374,178593,182730,1358
1783422539173365384,2026-07-07T18:08:59.173+07:00,540284117641570427,214404,178687,182770,1287
1783422539191547202,2026-07-07T18:08:59.191+07:00,540284117641570427,214458,178719,182899,1338
1783422539209729020,2026-07-07T18:08:59.209+07:00,540284117641570427,214581,178821,182984,1343
1783422539227910838,2026-07-07T18:08:59.227+07:00,540284117641570427,214656,178867,183058,1335
1783422539246092656,2026-07-07T18:08:59.246+07:00,540284117641570427,214665,178887,183064,1285
1783422539264274474,2026-07-07T18:08:59.264+07:00,540284117641570427,214722,178962,183090,1322
1783422539282456292,2026-07-07T18:08:59.282+07:00,540284117641570427,214634,178845,183043,1351
1783422539300638110,2026-07-07T18:08:59.300+07:00,540284117641570427,214536,178852,182933,1336
1783422539318819928,2026-07-07T18:08:59.318+07:00,540284117641570427,214362,178638,182803,1255
1783422539337001746,2026-07-07T18:08:59.337+07:00,540284117641570427,214224,178579,182681,1282
1783422539355183564,2026-07-07T18:08:59.355+07:00,540284117641570427,214159,178496,182637,1330
1783422539373365382,2026-07-07T18:08:59.373+07:00,540284117641570427,214069,178420,182615,1285
1783422539391547200,2026-07-07T18:08:59.391+07:00,540284117641570427,213984,178343,182512,1274
1783422539409729018,2026-07-07T18:08:59.409+07:00,540284117641570427,213910,178325,182527,1334
1783422539427910836,2026-07-07T18:08:59.427+07:00,540284117641570427,213856,178278,182552,1325
1783422539446092654,2026-07-07T18:08:59.446+07:00,540284117641570427,213781,178269,182473,1342
1783422539464274472,2026-07-07T18:08:59.464+07:00,540284117641570427,213795,178295,182476,1324
1783422539482456290,2026-07-07T18:08:59.482+07:00,540284117641570427,213790,178310,182501,1311
1783422539500638108,2026-07-07T18:08:59.500+07:00,540284117641570427,213835,178306,182446,1351
1783422539518819926,2026-07-07T18:08:59.518+07:00,540284117641570427,213832,178313,182469,1359
1783422539537001744,2026-07-07T18:08:59.537+07:00,540284118424109930,213748,178306,182455,1266
1783422539555183562,2026-07-07T18:08:59.555+07:00,540284118424109930,213773,178226,182413,1324
1783422539573365380,2026-07-07T18:08:59.573+07:00,540284118424109930,213702,178244,182371,1291
1783422539591547198,2026-07-07T18:08:59.591+07:00,540284118424109930,213827,178295,182449,1328
1783422539609729016,2026-07-07T18:08:59.609+07:00,540284118424109930,213709,178230,182407,1284
1783422539627910834,2026-07-07T18:08:59.627+07:00,540284118424109930,213736,178222,182458,1332
1783422539646092652,2026-07-07T18:08:59.646+07:00,540284118424109930,213776,178258,182469,1319
1783422539664274470,2026-07-07T18:08:59.664+07:00,540284118424109930,213832,178313,182519,1313
1783422539682456288,2026-07-07T18:08:59.682+07:00,540284118424109930,213882,178388,182578,1353
1783422539700638106,2026-07-07T18:08:59.700+07:00,540284118424109930,213866,178377,182610,1315
1783422539718819924,2026-07-07T18:08:59.718+07:00,540284118424109930,213972,178413,182688,1313
1783422539737001742,2026-07-07T18:08:59.737+07:00,540284118424109930,214000,178469,182767,1320
1783422539755183560,2026-07-07T18:08:59.755+07:00,540284118424109930,214129,178556,182808,1333
1783422539773365378,2026-07-07T18:08:59.773+07:00,540284118424109930,214198,178630,182870,1297
1783422539791547196,2026-07-07T18:08:59.791+07:00,540284118424109930,214247,178698,182956,1245
1783422539809729014,2026-07-07T18:08:59.809+07:00,540284118424109930,214346,178776,183073,1311
1783422539827910832,2026-07-07T18:08:59.827+07:00,540284118424109930,214356,178837,183128,1309
1783422539846092650,2026-07-07T18:08:59.846+07:00,540284118424109930,214445,178925,183228,1331
1783422539864274468,2026-07-07T18:08:59.864+07:00,540284118424109930,214574,179038,183308,1379
1783422539882456286,2026-07-07T18:08:59.882+07:00,540284118424109930,214639,179021,183345,1313
1783422539900638104,2026-07-07T18:08:59.900+07:00,540284118424109930,214700,179111,183391,1324
1783422539918819922,2026-07-07T18:08:59.918+07:00,540284118424109930,214792,179159,183546,1372
1783422539937001740,2026-07-07T18:08:59.937+07:00,540284118424109930,214912,179300,183592,1361
1783422539955183558,2026-07-07T18:08:59.955+07:00,540284118424109930,215041,179351,183688,1348
1783422539973365376,2026-07-07T18:08:59.973+07:00,540284118424109930,215117,179376,183803,1320
1783422539991547194,2026-07-07T18:08:59.991+07:00,540284118424109930,215215,179446,183844,1335
1783422540009729012,2026-07-07T18:09:00.009+07:00,540284118424109930,215357,179591,183967,1418
1783422540027910830,2026-07-07T18:09:00.027+07:00,540284118424109930,215439,179680,184020,1349
1783422540046092648,2026-07-07T18:09:00.046+07:00,540284118424109930,215477,179679,184126,1342
1783422540064274466,2026-07-07T18:09:00.064+07:00,540284118424109930,215471,179680,184062,1370
1783422540082456284,2026-07-07T18:09:00.082+07:00,540284118424109930,215301,179551,183911,1347
1783422540100638102,2026-07-07T18:09:00.100+07:00,540284118424109930,215143,179548,183801,1348
1783422540118819920,2026-07-07T18:09:00.118+07:00,540284118424109930,215098,179456,183761,1379
1783422540137001738,2026-07-07T18:09:00.137+07:00,540284118424109930,214994,179429,183635,1348
1783422540155183556,2026-07-07T18:09:00.155+07:00,540284118424109930,214934,179353,183576,1342
1783422540173365374,2026-07-07T18:09:00.173+07:00,540284118424109930,214910,179336,183578,1370
1783422540191547192,2026-07-07T18:09:00.191+07:00,540284118424109930,214859,179290,183483,1280
1783422540209729010,2026-07-07T18:09:00.209+07:00,540284118424109930,214828,179282,183502,1334
1783422540227910828,2026-07-07T18:09:00.227+07:00,540284118424109930,214795,179245,183500,1299
1783422540246092646,2026-07-07T18:09:00.246+07:00,540284118424109930,214905,179318,183603,1321
1783422540264274464,2026-07-07T18:09:00.264+07:00,540284118424109930,214812,179226,183559,1330
1783422540282456282,2026-07-07T18:09:00.282+07:00,540284118424109930,214863,179317,183542,1361
1783422540300638100,2026-07-07T18:09:00.300+07:00,540284118424109930,214820,179330,183576,1326
1783422540318819918,2026-07-07T18:09:00.318+07:00,540284119206641805,214921,179398,183584,1327
1783422540337001736,2026-07-07T18:09:00.337+07:00,540284119206641805,214860,179344,183587,1334
1783422540355183554,2026-07-07T18:09:00.355+07:00,540284119206641805,214865,179361,183561,1307
1783422540373365372,2026-07-07T18:09:00.373+07:00,540284119206641805,214912,179380,183577,1288
1783422540391547190,2026-07-07T18:09:00.391+07:00,540284119206641805,214921,179425,183601,1347
1783422540409729008,2026-07-07T18:09:00.409+07:00,540284119206641805,214919,179444,183588,1300
1783422540427910826,2026-07-07T18:09:00.427+07:00,540284119206641805,214994,179492,183650,1319
1783422540446092644,2026-07-07T18:09:00.446+07:00,540284119206641805,215045,179446,183669,1361
1783422540464274462,2026-07-07T18:09:00.464+07:00,540284119206641805,215110,179586,183801,1392
1783422540482456280,2026-07-07T18:09:00.482+07:00,540284119206641805,215150,179647,183815,1351
1783422540500638098,2026-07-07T18:09:00.500+07:00,540284119206641805,215204,179691,183857,1350
1783422540518819916,2026-07-07T18:09:00.518+07:00,540284119206641805,215273,179738,183884,1280
1783422540537001734,2026-07-07T18:09:00.537+07:00,540284119206641805,215371,179796,184003,1253
1783422540555183552,2026-07-07T18:09:00.555+07:00,540284119206641805,215476,179950,184142,1308
1783422540573365370,2026-07-07T18:09:00.573+07:00,540284119206641805,215544,180001,184196,1323
1783422540591547188,2026-07-07T18:09:00.591+07:00,540284119206641805,215585,180080,184265,1347
1783422540609729006,2026-07-07T18:09:00.609+07:00,540284119206641805,215702,180174,184385,1286
1783422540627910824,2026-07-07T18:09:00.627+07:00,540284119206641805,215819,180221,184432,1292
1783422540646092642,2026-07-07T18:09:00.646+07:00,540284119206641805,215860,180266,184481,1314
1783422540664274460,2026-07-07T18:09:00.664+07:00,540284119206641805,215937,180374,184638,1293
1783422540682456278,2026-07-07T18:09:00.682+07:00,540284119206641805,216024,180365,184634,1259
1783422540700638096,2026-07-07T18:09:00.700+07:00,540284119206641805,216125,180499,184741,1322
1783422540718819914,2026-07-07T18:09:00.718+07:00,540284119206641805,216227,180511,184762,1247
1783422540737001732,2026-07-07T18:09:00.737+07:00,540284119206641805,216371,180659,184891,1336
1783422540755183550,2026-07-07T18:09:00.755+07:00,540284119206641805,216459,180799,185026,1356
1783422540773365368,2026-07-07T18:09:00.773+07:00,540284119206641805,216554,180819,185089,1337
1783422540791547186,2026-07-07T18:09:00.791+07:00,540284119206641805,216633,180881,185193,1322
1783422540809729004,2026-07-07T18:09:00.809+07:00,540284119206641805,216603,180905,185155,1305
1783422540827910822,2026-07-07T18:09:00.827+07:00,540284119206641805,216572,180905,185169,1360
1783422540846092640,2026-07-07T18:09:00.846+07:00,540284119206641805,216401,180812,185009,1318
1783422540864274458,2026-07-07T18:09:00.864+07:00,540284119206641805,216328,180721,184942,1302
1783422540882456276,2026-07-07T18:09:00.882+07:00,540284119206641805,216161,180583,184757,1286
1783422540900638094,2026-07-07T18:09:00.900+07:00,540284119206641805,216040,180563,184709,1318
1783422540918819912,2026-07-07T18:09:00.918+07:00,540284119206641805,215978,180463,184675,1344
1783422540937001730,2026-07-07T18:09:00.937+07:00,540284119206641805,215894,180399,184622,1359
1783422540955183548,2026-07-07T18:09:00.955+07:00,540284119206641805,215828,180327,184542,1291
1783422540973365366,2026-07-07T18:09:00.973+07:00,540284119206641805,215735,180302,184501,1301
1783422540991547184,2026-07-07T18:09:00.991+07:00,540284119206641805,215716,180311,184476,1271
1783422541009729002,2026-07-07T18:09:01.009+07:00,540284119206641805,215683,180309,184465,1296
1783422541027910820,2026-07-07T18:09:01.027+07:00,540284119206641805,215704,180228,184446,1327
1783422541046092638,2026-07-07T18:09:01.046+07:00,540284119206641805,215630,180259,184470,1282
1783422541064274456,2026-07-07T18:09:01.064+07:00,540284119206641805,215682,180249,184423,1332
1783422541082456274,2026-07-07T18:09:01.082+07:00,540284119206641805,215646,180260,184447,1289
1783422541100638092,2026-07-07T18:09:01.100+07:00,540284120007385295,215684,180252,184423,1310
1783422541118819910,2026-07-07T18:09:01.118+07:00,540284120007385295,215657,180255,184420,1298
1783422541137001728,2026-07-07T18:09:01.137+07:00,540284120007385295,215562,180245,184349,1249
1783422541155183546,2026-07-07T18:09:01.155+07:00,540284120007385295,215575,180244,184311,1311
1783422541173365364,2026-07-07T18:09:01.173+07:00,540284120007385295,215638,180294,184400,1339
1783422541191547182,2026-07-07T18:09:01.191+07:00,540284120007385295,215646,180294,184426,1383
1783422541209729000,2026-07-07T18:09:01.209+07:00,540284120007385295,215683,180252,184405,1345
1783422541227910818,2026-07-07T18:09:01.227+07:00,540284120007385295,215665,180288,184497,1297
1783422541246092636,2026-07-07T18:09:01.246+07:00,540284120007385295,215751,180340,184465,1294
1783422541264274454,2026-07-07T18:09:01.264+07:00,540284120007385295,215861,180425,184563,1335
1783422541282456272,2026-07-07T18:09:01.282+07:00,540284120007385295,215897,180448,184669,1368
1783422541300638090,2026-07-07T18:09:01.300+07:00,540284120007385295,215891,180441,184648,1268
1783422541318819908,2026-07-07T18:09:01.318+07:00,540284120007385295,215933,180524,184720,1260
1783422541337001726,2026-07-07T18:09:01.337+07:00,540284120007385295,216049,180497,184749,1302
1783422541355183544,2026-07-07T18:09:01.355+07:00,540284120007385295,216088,180582,184859,1326
1783422541373365362,2026-07-07T18:09:01.373+07:00,540284120007385295,216201,180636,184915,1328
1783422541391547180,2026-07-07T18:09:01.391+07:00,540284120007385295,216236,180748,185038,1377
1783422541409728998,2026-07-07T18:09:01.409+07:00,540284120007385295,216372,180846,185081,1396
1783422541427910816,2026-07-07T18:09:01.427+07:00,540284120007385295,216410,180794,185111,1311
1783422541446092634,2026-07-07T18:09:01.446+07:00,540284120007385295,216474,180923,185266,1333
1783422541464274452,2026-07-07T18:09:01.464+07:00,540284120007385295,216553,180982,185300,1318
1783422541482456270,2026-07-07T18:09:01.482+07:00,540284120007385295,216606,181022,185336,1297
1783422541500638088,2026-07-07T18:09:01.500+07:00,540284120007385295,216713,181128,185364,1304
1783422541518819906,2026-07-07T18:09:01.518+07:00,540284120007385295,216809,181182,185430,1317
1783422541537001724,2026-07-07T18:09:01.537+07:00,540284120007385295,216874,181244,185560,1307
1783422541555183542,2026-07-07T18:09:01.555+07:00,540284120007385295,217035,181383,185659,1337
1783422541573365360,2026-07-07T18:09:01.573+07:00,540284120007385295,217118,181444,185699,1322
1783422541591547178,2026-07-07T18:09:01.591+07:00,540284120007385295,217142,181502,185820,1352
1783422541609728996,2026-07-07T18:09:01.609+07:00,540284120007385295,217130,181421,185779,1330
1783422541627910814,2026-07-07T18:09:01.627+07:00,540284120007385295,217079,181406,185679,1322
1783422541646092632,2026-07-07T18:09:01.646+07:00,540284120007385295,216944,181239,185580,1351
1783422541664274450,2026-07-07T18:09:01.664+07:00,540284120007385295,216693,181064,185353,1309
1783422541682456268,2026-07-07T18:09:01.682+07:00,540284120007385295,216553,181038,185292,1298
1783422541700638086,2026-07-07T18:09:01.700+07:00,540284120007385295,216451,180919,185156,1297
1783422541718819904,2026-07-07T18:09:01.718+07:00,540284120007385295,216370,180856,185082,1321
1783422541737001722,2026-07-07T18:09:01.737+07:00,540284120007385295,216230,180795,185011,1335
1783422541755183540,2026-07-07T18:09:01.755+07:00,540284120007385295,216156,180700,184914,1306
1783422541773365358,2026-07-07T18:09:01.773+07:00,540284120007385295,216099,180654,184893,1345
1783422541791547176,2026-07-07T18:09:01.791+07:00,540284120007385295,215980,180614,184862,1307
1783422541809728994,2026-07-07T18:09:01.809+07:00,540284120007385295,215934,180583,184793,1302
1783422541827910812,2026-07-07T18:09:01.827+07:00,540284120007385295,215970,180527,184816,1283
1783422541846092630,2026-07-07T18:09:01.846+07:00,540284120007385295,215915,180521,184742,1336
1783422541864274448,2026-07-07T18:09:01.864+07:00,540284120007385295,215895,180493,184724,1392
1783422541882456266,2026-07-07T18:09:01.882+07:00,540284120007385295,215846,180464,184731,1361
1783422541900638084,2026-07-07T18:09:01.900+07:00,540284120753500046,215852,180439,184707,1373
1783422541918819902,2026-07-07T18:09:01.918+07:00,540284120753500046,215749,180384,184662,1356
1783422541937001720,2026-07-07T18:09:01.937+07:00,540284120753500046,215612,180341,184631,1315
1783422541955183538,2026-07-07T18:09:01.955+07:00,540284120753500046,215537,180306,184555,1328
1783422541973365356,2026-07-07T18:09:01.973+07:00,540284120753500046,215616,180344,184607,1327
1783422541991547174,2026-07-07T18:09:01.991+07:00,540284120753500046,215605,180292,184590,1365
1783422542009728992,2026-07-07T18:09:02.009+07:00,540284120753500046,215569,180308,184571,1315
1783422542027910810,2026-07-07T18:09:02.027+07:00,540284120753500046,215628,180310,184575,1271
1783422542046092628,2026-07-07T18:09:02.046+07:00,540284120753500046,215629,180392,184643,1347
1783422542064274446,2026-07-07T18:09:02.064+07:00,540284120753500046,215672,180360,184682,1310
1783422542082456264,2026-07-07T18:09:02.082+07:00,540284120753500046,215742,180468,184744,1311
1783422542100638082,2026-07-07T18:09:02.100+07:00,540284120753500046,215744,180500,184762,1282
1783422542118819900,2026-07-07T18:09:02.118+07:00,540284120753500046,215781,180476,184780,1309
1783422542137001718,2026-07-07T18:09:02.137+07:00,540284120753500046,215835,180584,184872,1332
1783422542155183536,2026-07-07T18:09:02.155+07:00,540284120753500046,215926,180645,184869,1355
1783422542173365354,2026-07-07T18:09:02.173+07:00,540284120753500046,216028,180617,185000,1353
1783422542191547172,2026-07-07T18:09:02.191+07:00,540284120753500046,216055,180679,185032,1361
1783422542209728990,2026-07-07T18:09:02.209+07:00,540284120753500046,216121,180716,185080,1385
1783422542227910808,2026-07-07T18:09:02.227+07:00,540284120753500046,216134,180721,185154,1356
1783422542246092626,2026-07-07T18:09:02.246+07:00,540284120753500046,216200,180820,185216,1400
1783422542264274444,2026-07-07T18:09:02.264+07:00,540284120753500046,216294,180858,185261,1357
1783422542282456262,2026-07-07T18:09:02.282+07:00,540284120753500046,216264,180870,185243,1316
1783422542300638080,2026-07-07T18:09:02.300+07:00,540284120753500046,216407,180985,185349,1309
1783422542318819898,2026-07-07T18:09:02.318+07:00,540284120753500046,216454,181010,185399,1336
1783422542337001716,2026-07-07T18:09:02.337+07:00,540284120753500046,216585,181101,185500,1340
1783422542355183534,2026-07-07T18:09:02.355+07:00,540284120753500046,216648,181137,185531,1283
1783422542373365352,2026-07-07T18:09:02.373+07:00,540284120753500046,216702,181166,185668,1315
1783422542391547170,2026-07-07T18:09:02.391+07:00,540284120753500046,216764,181256,185730,1302
1783422542409728988,2026-07-07T18:09:02.409+07:00,540284120753500046,216771,181247,185763,1319
1783422542427910806,2026-07-07T18:09:02.427+07:00,540284120753500046,216773,181251,185694,1313
1783422542446092624,2026-07-07T18:09:02.446+07:00,540284120753500046,216635,181139,185585,1373
1783422542464274442,2026-07-07T18:09:02.464+07:00,540284120753500046,216526,180972,185494,1348
1783422542482456260,2026-07-07T18:09:02.482+07:00,540284120753500046,216262,180771,185241,1291
1783422542500638078,2026-07-07T18:09:02.500+07:00,540284120753500046,216147,180738,185187,1356
1783422542518819896,2026-07-07T18:09:02.518+07:00,540284120753500046,215987,180581,185047,1356
1783422542537001714,2026-07-07T18:09:02.537+07:00,540284120753500046,215930,180528,184991,1316
1783422542555183532,2026-07-07T18:09:02.555+07:00,540284120753500046,215806,180459,184883,1311
1783422542573365350,2026-07-07T18:09:02.573+07:00,540284120753500046,215740,180415,184807,1310
1783422542591547168,2026-07-07T18:09:02.591+07:00,540284120753500046,215626,180346,184720,1268
1783422542609728986,2026-07-07T18:09:02.609+07:00,540284120753500046,215531,180320,184706,1302
1783422542627910804,2026-07-07T18:09:02.627+07:00,540284120753500046,215507,180280,184644,1315
1783422542646092622,2026-07-07T18:09:02.646+07:00,540284121554237432,215485,180228,184637,1282
1783422542664274440,2026-07-07T18:09:02.664+07:00,540284121554237432,215436,180204,184599,1328
1783422542682456258,2026-07-07T18:09:02.682+07:00,540284121554237432,215369,180148,184534,1305
1783422542700638076,2026-07-07T18:09:02.700+07:00,540284121554237432,215335,180092,184454,1309
1783422542718819894,2026-07-07T18:09:02.718+07:00,540284121554237432,215252,180108,184465,1254
1783422542737001712,2026-07-07T18:09:02.737+07:00,540284121554237432,215266,180034,184409,1324
1783422542755183530,2026-07-07T18:09:02.755+07:00,540284121554237432,215227,179985,184356,1287
1783422542773365348,2026-07-07T18:09:02.773+07:00,540284121554237432,215206,179952,184341,1272
1783422542791547166,2026-07-07T18:09:02.791+07:00,540284121554237432,215223,179932,184311,1266
1783422542809728984,2026-07-07T18:09:02.809+07:00,540284121554237432,215195,180027,184394,1336
1783422542827910802,2026-07-07T18:09:02.827+07:00,540284121554237432,215220,180009,184366,1303
1783422542846092620,2026-07-07T18:09:02.846+07:00,540284121554237432,215183,180022,184365,1327
1783422542864274438,2026-07-07T18:09:02.864+07:00,540284121554237432,215194,180065,184419,1322
1783422542882456256,2026-07-07T18:09:02.882+07:00,540284121554237432,215248,180007,184452,1360
1783422542900638074,2026-07-07T18:09:02.900+07:00,540284121554237432,215332,180101,184513,1311
1783422542918819892,2026-07-07T18:09:02.918+07:00,540284121554237432,215337,180039,184557,1248
1783422542937001710,2026-07-07T18:09:02.937+07:00,540284121554237432,215315,180097,184516,1247
1783422542955183528,2026-07-07T18:09:02.955+07:00,540284121554237432,215443,180160,184585,1313
1783422542973365346,2026-07-07T18:09:02.973+07:00,540284121554237432,215437,180146,184600,1234
1783422542991547164,2026-07-07T18:09:02.991+07:00,540284121554237432,215514,180231,184694,1285
1783422543009728982,2026-07-07T18:09:03.009+07:00,540284121554237432,215596,180314,184780,1309
1783422543027910800,2026-07-07T18:09:03.027+07:00,540284121554237432,215679,180368,184815,1267
1783422543046092618,2026-07-07T18:09:03.046+07:00,540284121554237432,215706,180410,184891,1353
1783422543064274436,2026-07-07T18:09:03.064+07:00,540284121554237432,215755,180465,184918,1298
1783422543082456254,2026-07-07T18:09:03.082+07:00,540284121554237432,215832,180500,184985,1316
1783422543100638072,2026-07-07T18:09:03.100+07:00,540284121554237432,215893,180589,185055,1333
1783422543118819890,2026-07-07T18:09:03.118+07:00,540284121554237432,215916,180682,185107,1356
1783422543137001708,2026-07-07T18:09:03.137+07:00,540284121554237432,216039,180768,185184,1323
1783422543155183526,2026-07-07T18:09:03.155+07:00,540284121554237432,216107,180756,185244,1306
1783422543173365344,2026-07-07T18:09:03.173+07:00,540284121554237432,216199,180850,185325,1330
1783422543191547162,2026-07-07T18:09:03.191+07:00,540284121554237432,216306,180897,185416,1306
1783422543209728980,2026-07-07T18:09:03.209+07:00,540284121554237432,216383,180935,185469,1320
1783422543227910798,2026-07-07T18:09:03.227+07:00,540284121554237432,216386,180933,185498,1298
1783422543246092616,2026-07-07T18:09:03.246+07:00,540284121554237432,216314,180930,185430,1335
1783422543264274434,2026-07-07T18:09:03.264+07:00,540284121554237432,216339,180821,185369,1310
1783422543282456252,2026-07-07T18:09:03.282+07:00,540284121554237432,216174,180746,185249,1356
1783422543300638070,2026-07-07T18:09:03.300+07:00,540284121554237432,216011,180623,185100,1316
1783422543318819888,2026-07-07T18:09:03.318+07:00,540284121554237432,215837,180456,184937,1326
1783422543337001706,2026-07-07T18:09:03.337+07:00,540284121554237432,215722,180396,184827,1383
1783422543355183524,2026-07-07T18:09:03.355+07:00,540284121554237432,215562,180252,184670,1306
1783422543373365342,2026-07-07T18:09:03.373+07:00,540284121554237432,215443,180186,184601,1328
1783422543391547160,2026-07-07T18:09:03.391+07:00,540284121554237432,215356,180133,184558,1300
1783422543409728978,2026-07-07T18:09:03.409+07:00,540284121554237432,215341,180107,184569,1352
1783422543427910796,2026-07-07T18:09:03.427+07:00,540284121554237432,215341,180062,184558,1341
1783422543446092614,2026-07-07T18:09:03.446+07:00,540284122318557690,215319,180137,184538,1405
1783422543464274432,2026-07-07T18:09:03.464+07:00,540284122318557690,215260,180062,184484,1362
1783422543482456250,2026-07-07T18:09:03.482+07:00,540284122318557690,215257,180064,184457,1306
1783422543500638068,2026-07-07T18:09:03.500+07:00,540284122318557690,215271,179980,184468,1327
1783422543518819886,2026-07-07T18:09:03.518+07:00,540284122318557690,215118,179987,184438,1273
1783422543537001704,2026-07-07T18:09:03.537+07:00,540284122318557690,215153,179987,184401,1333
1783422543555183522,2026-07-07T18:09:03.555+07:00,540284122318557690,215127,179953,184361,1349
1783422543573365340,2026-07-07T18:09:03.573+07:00,540284122318557690,215083,179933,184309,1349
1783422543591547158,2026-07-07T18:09:03.591+07:00,540284122318557690,215156,179931,184277,1354
1783422543609728976,2026-07-07T18:09:03.609+07:00,540284122318557690,215100,179911,184278,1337
1783422543627910794,2026-07-07T18:09:03.627+07:00,540284122318557690,215087,179878,184261,1289
1783422543646092612,2026-07-07T18:09:03.646+07:00,540284122318557690,215084,179936,184290,1290
1783422543664274430,2026-07-07T18:09:03.664+07:00,540284122318557690,215165,179988,184380,1294
1783422543682456248,2026-07-07T18:09:03.682+07:00,540284122318557690,215165,180014,184375,1270
1783422543700638066,2026-07-07T18:09:03.700+07:00,540284122318557690,215337,180034,184458,1365
1783422543718819884,2026-07-07T18:09:03.718+07:00,540284122318557690,215372,180084,184502,1334
1783422543737001702,2026-07-07T18:09:03.737+07:00,540284122318557690,215394,180107,184524,1296
1783422543755183520,2026-07-07T18:09:03.755+07:00,540284122318557690,215432,180217,184616,1331
1783422543773365338,2026-07-07T18:09:03.773+07:00,540284122318557690,215474,180227,184659,1293
1783422543791547156,2026-07-07T18:09:03.791+07:00,540284122318557690,215574,180369,184680,1379
1783422543809728974,2026-07-07T18:09:03.809+07:00,540284122318557690,215661,180351,184699,1392
1783422543827910792,2026-07-07T18:09:03.827+07:00,540284122318557690,215740,180420,184832,1334
1783422543846092610,2026-07-07T18:09:03.846+07:00,540284122318557690,215803,180449,184829,1314
1783422543864274428,2026-07-07T18:09:03.864+07:00,540284122318557690,215852,180606,184917,1284
1783422543882456246,2026-07-07T18:09:03.882+07:00,540284122318557690,215960,180662,185039,1326
