host_timestamp_ns,host_timestamp_iso,pmd_timestamp,ppg0,ppg1,ppg2,ambient
1783264964389011400,2026-07-05T22:22:44.389+07:00,540126538885968458,259358,254852,262875,222182
1783264964407193218,2026-07-05T22:22:44.407+07:00,540126538885968458,259693,257100,261032,223423
1783264964425375036,2026-07-05T22:22:44.425+07:00,540126538885968458,260904,255452,260344,224602
1783264964443556854,2026-07-05T22:22:44.443+07:00,540126538885968458,258106,254438,262489,224451
1783264964461738672,2026-07-05T22:22:44.461+07:00,540126538885968458,259491,256863,260891,224386
1783264964479920490,2026-07-05T22:22:44.479+07:00,540126538885968458,257646,257683,259829,224771
1783264964498102309,2026-07-05T22:22:44.498+07:00,540126538885968458,258860,257395,261264,224105
1783264964516284127,2026-07-05T22:22:44.516+07:00,540126538885968458,260041,257774,259444,222555
1783264964534465945,2026-07-05T22:22:44.534+07:00,540126538885968458,259190,255156,260830,224658
1783264964552647763,2026-07-05T22:22:44.552+07:00,540126538885968458,260327,257253,260068,224146
1783264964570829581,2026-07-05T22:22:44.570+07:00,540126538885968458,258559,257906,259398,224720
1783264964589011400,2026-07-05T22:22:44.589+07:00,540126538885968458,259800,255498,261945,222413
1783264964607193218,2026-07-05T22:22:44.607+07:00,540126538885968458,260518,256476,262839,221817
1783264964625375036,2026-07-05T22:22:44.625+07:00,540126538885968458,260205,258254,262314,220591
1783264964643556854,2026-07-05T22:22:44.643+07:00,540126538885968458,258169,255875,262005,223764
1783264964661738672,2026-07-05T22:22:44.661+07:00,540126538885968458,258933,257457,260165,224463
1783264964679920490,2026-07-05T22:22:44.679+07:00,540126538885968458,258689,256723,261557,224276
1783264964698102309,2026-07-05T22:22:44.698+07:00,540126538885968458,258489,256992,261728,224376
1783264964716284127,2026-07-05T22:22:44.716+07:00,540126538885968458,256558,257348,263795,224782
1783264964734465945,2026-07-05T22:22:44.734+07:00,540126538885968458,259670,257917,260547,224568
1783264964752647763,2026-07-05T22:22:44.752+07:00,540126538885968458,260217,257408,262683,221848
1783264964770829581,2026-07-05T22:22:44.770+07:00,540126538885968458,260567,257409,262749,222274
1783264964789011400,2026-07-05T22:22:44.789+07:00,540126538885968458,260015,256698,262738,222825
1783264964807193218,2026-07-05T22:22:44.807+07:00,540126538885968458,260137,254880,263360,221749
1783264964825375036,2026-07-05T22:22:44.825+07:00,540126538885968458,260199,253488,262649,224363
1783264964843556854,2026-07-05T22:22:44.843+07:00,540126538885968458,260776,256674,261875,222653
1783264964389011400,2026-07-05T22:22:44.389+07:00,540126539359510158,259948,255060,263018,221963
1783264964407193218,2026-07-05T22:22:44.407+07:00,540126539359510158,260419,255444,263272,221405
1783264964425375036,2026-07-05T22:22:44.425+07:00,540126539359510158,260536,254517,263450,220895
1783264964443556854,2026-07-05T22:22:44.443+07:00,540126539359510158,257870,255692,264042,223946
1783264964461738672,2026-07-05T22:22:44.461+07:00,540126539359510158,259257,257823,263098,221357
1783264964479920490,2026-07-05T22:22:44.479+07:00,540126539359510158,257082,256083,262409,223767
1783264964498102309,2026-07-05T22:22:44.498+07:00,540126539359510158,256645,257612,260517,224489
1783264964516284127,2026-07-05T22:22:44.516+07:00,540126539359510158,258938,255638,262207,222055
1783264964534465945,2026-07-05T22:22:44.534+07:00,540126539359510158,259695,254928,262997,221037
1783264964552647763,2026-07-05T22:22:44.552+07:00,540126539359510158,261053,255826,260196,222831
1783264964570829581,2026-07-05T22:22:44.570+07:00,540126539359510158,260602,257669,262060,220789
1783264964589011400,2026-07-05T22:22:44.589+07:00,540126539359510158,260407,257031,263013,220104
1783264964607193218,2026-07-05T22:22:44.607+07:00,540126539359510158,259236,258345,260958,222396
1783264964625375036,2026-07-05T22:22:44.625+07:00,540126539359510158,257596,258946,259739,223514
1783264964643556854,2026-07-05T22:22:44.643+07:00,540126539359510158,256108,258682,262467,223581
1783264964661738672,2026-07-05T22:22:44.661+07:00,540126539359510158,259435,259597,259783,222935
1783264964679920490,2026-07-05T22:22:44.679+07:00,540126539359510158,259486,258463,262201,221022
1783264964698102309,2026-07-05T22:22:44.698+07:00,540126539359510158,260337,258142,262788,220622
1783264964716284127,2026-07-05T22:22:44.716+07:00,540126539359510158,260275,256802,262907,220721
1783264964734465945,2026-07-05T22:22:44.734+07:00,540126539359510158,260569,257336,262955,220648
1783264964752647763,2026-07-05T22:22:44.752+07:00,540126539359510158,261129,255609,261575,223378
1783264964770829581,2026-07-05T22:22:44.770+07:00,540126539359510158,261264,258221,259432,223610
1783264964789011400,2026-07-05T22:22:44.789+07:00,540126539359510158,259406,259101,258862,224179
1783264964807193218,2026-07-05T22:22:44.807+07:00,540126539359510158,259942,256695,261566,221795
1783264964825375036,2026-07-05T22:22:44.825+07:00,540126539359510158,260153,256659,262371,221428
1783264964843556854,2026-07-05T22:22:44.843+07:00,540126539359510158,260058,255333,261318,223614
1783264964441894500,2026-07-05T22:22:44.441+07:00,540126539833079326,260878,258453,259672,222597
1783264964460076318,2026-07-05T22:22:44.460+07:00,540126539833079326,261100,259440,259856,222453
1783264964478258136,2026-07-05T22:22:44.478+07:00,540126539833079326,258556,259653,259215,223704
1783264964496439954,2026-07-05T22:22:44.496+07:00,540126539833079326,259516,258388,261196,222572
1783264964514621772,2026-07-05T22:22:44.514+07:00,540126539833079326,260044,258220,262097,221920
1783264964532803590,2026-07-05T22:22:44.532+07:00,540126539833079326,261071,258144,259508,222675
1783264964550985409,2026-07-05T22:22:44.550+07:00,540126539833079326,261363,259486,258739,222841
1783264964569167227,2026-07-05T22:22:44.569+07:00,540126539833079326,260149,259864,258458,223720
1783264964587349045,2026-07-05T22:22:44.587+07:00,540126539833079326,260068,256984,261266,221844
1783264964605530863,2026-07-05T22:22:44.605+07:00,540126539833079326,260298,256655,262268,221246
1783264964623712681,2026-07-05T22:22:44.623+07:00,540126539833079326,259876,258706,263242,220027
1783264964641894500,2026-07-05T22:22:44.641+07:00,540126539833079326,260998,259492,260003,221744
1783264964660076318,2026-07-05T22:22:44.660+07:00,540126539833079326,261150,259749,261164,221274
1783264964678258136,2026-07-05T22:22:44.678+07:00,540126539833079326,258104,258855,261142,223201
1783264964696439954,2026-07-05T22:22:44.696+07:00,540126539833079326,257571,259070,260796,223725
1783264964714621772,2026-07-05T22:22:44.714+07:00,540126539833079326,257259,259126,260741,224106
1783264964732803590,2026-07-05T22:22:44.732+07:00,540126539833079326,260118,256959,259753,224235
1783264964750985409,2026-07-05T22:22:44.750+07:00,540126539833079326,260910,258901,258657,223849
1783264964769167227,2026-07-05T22:22:44.769+07:00,540126539833079326,258620,259182,259079,224448
1783264964787349045,2026-07-05T22:22:44.787+07:00,540126539833079326,260042,258720,261452,222724
1783264964805530863,2026-07-05T22:22:44.805+07:00,540126539833079326,259931,259284,262074,223540
1783264964823712681,2026-07-05T22:22:44.823+07:00,540126539833079326,260563,260036,263680,221461
1783264964841894500,2026-07-05T22:22:44.841+07:00,540126539833079326,258952,257416,263763,224454
1783264964860076318,2026-07-05T22:22:44.860+07:00,540126539833079326,257891,256486,264020,224680
1783264964878258136,2026-07-05T22:22:44.878+07:00,540126539833079326,260166,258807,263079,223852
1783264964896439954,2026-07-05T22:22:44.896+07:00,540126539833079326,260892,258747,263311,223144
1783264965217090900,2026-07-05T22:22:45.217+07:00,540126540306624084,261098,259074,263351,223055
1783264965235272718,2026-07-05T22:22:45.235+07:00,540126540306624084,259750,257731,263909,225259
1783264965253454536,2026-07-05T22:22:45.253+07:00,540126540306624084,258861,256725,263091,225823
1783264965271636354,2026-07-05T22:22:45.271+07:00,540126540306624084,258578,256165,263661,224878
1783264965289818172,2026-07-05T22:22:45.289+07:00,540126540306624084,259642,258801,262118,224658
1783264965307999990,2026-07-05T22:22:45.308+07:00,540126540306624084,258263,259875,260933,225047
1783264965326181809,2026-07-05T22:22:45.326+07:00,540126540306624084,260506,260834,260470,224098
1783264965344363627,2026-07-05T22:22:45.344+07:00,540126540306624084,258105,259848,263340,223768
1783264965362545445,2026-07-05T22:22:45.362+07:00,540126540306624084,260039,260010,263912,221655
1783264965380727263,2026-07-05T22:22:45.380+07:00,540126540306624084,259136,260457,261248,223946
1783264965398909081,2026-07-05T22:22:45.398+07:00,540126540306624084,259373,260251,261285,224381
1783264965417090900,2026-07-05T22:22:45.417+07:00,540126540306624084,260181,259842,262142,224055
1783264965435272718,2026-07-05T22:22:45.435+07:00,540126540306624084,261509,259594,259954,223523
1783264965453454536,2026-07-05T22:22:45.453+07:00,540126540306624084,262032,260634,259887,223240
1783264965471636354,2026-07-05T22:22:45.471+07:00,540126540306624084,259942,260187,259969,224672
1783264965489818172,2026-07-05T22:22:45.489+07:00,540126540306624084,260384,260175,260690,224495
1783264965507999990,2026-07-05T22:22:45.508+07:00,540126540306624084,260798,257922,262586,222896
1783264965526181809,2026-07-05T22:22:45.526+07:00,540126540306624084,258740,258034,261680,224698
1783264965544363627,2026-07-05T22:22:45.544+07:00,540126540306624084,258878,259365,263601,222132
1783264965562545445,2026-07-05T22:22:45.562+07:00,540126540306624084,260792,260054,261196,223402
1783264965580727263,2026-07-05T22:22:45.580+07:00,540126540306624084,260405,256999,263110,222958
1783264965598909081,2026-07-05T22:22:45.598+07:00,540126540306624084,260201,257089,263322,223584
1783264965617090900,2026-07-05T22:22:45.617+07:00,540126540306624084,258268,258471,261262,224812
1783264965635272718,2026-07-05T22:22:45.635+07:00,540126540306624084,261086,255764,261270,225647
1783264965653454536,2026-07-05T22:22:45.653+07:00,540126540306624084,258170,255331,263366,225780
1783264965671636354,2026-07-05T22:22:45.671+07:00,540126540306624084,260491,257838,262507,224615
1783264965647300400,2026-07-05T22:22:45.647+07:00,540126540780181044,261235,257565,263578,223144
1783264965665482218,2026-07-05T22:22:45.665+07:00,540126540780181044,259186,258466,261821,224681
1783264965683664036,2026-07-05T22:22:45.683+07:00,540126540780181044,257709,257410,262099,225568
1783264965701845854,2026-07-05T22:22:45.701+07:00,540126540780181044,258358,258788,263976,222705
1783264965720027672,2026-07-05T22:22:45.720+07:00,540126540780181044,257391,256300,263544,225023
1783264965738209490,2026-07-05T22:22:45.738+07:00,540126540780181044,258028,258113,261295,225677
1783264965756391309,2026-07-05T22:22:45.756+07:00,540126540780181044,258739,257675,262432,225175
1783264965774573127,2026-07-05T22:22:45.774+07:00,540126540780181044,257955,258497,261494,225527
1783264965792754945,2026-07-05T22:22:45.792+07:00,540126540780181044,258353,259796,262706,222313
1783264965810936763,2026-07-05T22:22:45.810+07:00,540126540780181044,260829,259942,260644,223454
1783264965829118581,2026-07-05T22:22:45.829+07:00,540126540780181044,258755,256598,262698,224454
1783264965847300400,2026-07-05T22:22:45.847+07:00,540126540780181044,257862,257447,262498,225151
1783264965865482218,2026-07-05T22:22:45.865+07:00,540126540780181044,259932,255975,263579,222798
1783264965883664036,2026-07-05T22:22:45.883+07:00,540126540780181044,260775,257914,263104,222972
1783264965901845854,2026-07-05T22:22:45.901+07:00,540126540780181044,261185,259669,261408,222107
1783264965920027672,2026-07-05T22:22:45.920+07:00,540126540780181044,261586,260093,261313,222316
1783264965938209490,2026-07-05T22:22:45.938+07:00,540126540780181044,260496,260101,260128,224006
1783264965956391309,2026-07-05T22:22:45.956+07:00,540126540780181044,258226,259950,259994,224853
1783264965974573127,2026-07-05T22:22:45.974+07:00,540126540780181044,257351,259907,259858,225018
1783264965992754945,2026-07-05T22:22:45.992+07:00,540126540780181044,256280,260162,263295,224098
1783264966010936763,2026-07-05T22:22:46.010+07:00,540126540780181044,259416,258516,261518,225085
1783264966029118581,2026-07-05T22:22:46.029+07:00,540126540780181044,260659,259091,263044,222583
1783264966047300400,2026-07-05T22:22:46.047+07:00,540126540780181044,261114,258347,263688,221625
1783264966065482218,2026-07-05T22:22:46.065+07:00,540126540780181044,259454,259021,262342,223682
1783264966083664036,2026-07-05T22:22:46.083+07:00,540126540780181044,259398,256896,263203,223825
1783264966101845854,2026-07-05T22:22:46.101+07:00,540126540780181044,261179,256085,261578,225050
1783264965884110500,2026-07-05T22:22:45.884+07:00,540126541253738002,259483,256574,263572,223665
1783264965902292318,2026-07-05T22:22:45.902+07:00,540126541253738002,257826,256758,263084,224929
1783264965920474136,2026-07-05T22:22:45.920+07:00,540126541253738002,259998,256760,263807,223107
1783264965938655954,2026-07-05T22:22:45.938+07:00,540126541253738002,259945,257909,262925,224173
1783264965956837772,2026-07-05T22:22:45.956+07:00,540126541253738002,259415,259628,263230,221766
1783264965975019590,2026-07-05T22:22:45.975+07:00,540126541253738002,261093,259955,261590,222507
1783264965993201409,2026-07-05T22:22:45.993+07:00,540126541253738002,260978,258221,263674,221688
1783264966011383227,2026-07-05T22:22:46.011+07:00,540126541253738002,260926,258737,262434,223712
1783264966029565045,2026-07-05T22:22:46.029+07:00,540126541253738002,260880,257913,263173,224000
1783264966047746863,2026-07-05T22:22:46.047+07:00,540126541253738002,259627,258767,261322,225212
1783264966065928681,2026-07-05T22:22:46.065+07:00,540126541253738002,258613,259257,264106,223158
1783264966084110500,2026-07-05T22:22:46.084+07:00,540126541253738002,259073,257223,262836,225387
1783264966102292318,2026-07-05T22:22:46.102+07:00,540126541253738002,259806,258539,261130,225830
1783264966120474136,2026-07-05T22:22:46.120+07:00,540126541253738002,260461,256393,263165,224332
1783264966138655954,2026-07-05T22:22:46.138+07:00,540126541253738002,261237,255266,264219,222939
1783264966156837772,2026-07-05T22:22:46.156+07:00,540126541253738002,259387,255396,264761,225719
1783264966175019590,2026-07-05T22:22:46.175+07:00,540126541253738002,261102,258208,262767,223958
1783264966193201409,2026-07-05T22:22:46.193+07:00,540126541253738002,261087,257624,264388,222356
1783264966211383227,2026-07-05T22:22:46.211+07:00,540126541253738002,261631,257931,264189,223001
1783264966229565045,2026-07-05T22:22:46.229+07:00,540126541253738002,261642,255971,264509,222383
1783264966247746863,2026-07-05T22:22:46.247+07:00,540126541253738002,261856,256767,264641,222435
1783264966265928681,2026-07-05T22:22:46.265+07:00,540126541253738002,259933,255644,264823,225512
1783264966284110500,2026-07-05T22:22:46.284+07:00,540126541253738002,261555,258170,261834,225182
1783264966302292318,2026-07-05T22:22:46.302+07:00,540126541253738002,260488,255797,263678,224532
1783264966320474136,2026-07-05T22:22:46.320+07:00,540126541253738002,259371,257053,263302,225375
1783264966338655954,2026-07-05T22:22:46.338+07:00,540126541253738002,258277,258296,261769,225843
1783264966752981400,2026-07-05T22:22:46.752+07:00,540126541727279710,259029,259183,264156,223096
1783264966771163218,2026-07-05T22:22:46.771+07:00,540126541727279710,259545,259239,264936,221753
1783264966789345036,2026-07-05T22:22:46.789+07:00,540126541727279710,261232,259377,263625,222653
1783264966807526854,2026-07-05T22:22:46.807+07:00,540126541727279710,259081,257853,263363,224679
1783264966825708672,2026-07-05T22:22:46.825+07:00,540126541727279710,258119,258608,261582,225638
1783264966843890490,2026-07-05T22:22:46.843+07:00,540126541727279710,258055,259015,260768,226031
1783264966862072309,2026-07-05T22:22:46.862+07:00,540126541727279710,260480,255692,262059,226804
1783264966880254127,2026-07-05T22:22:46.880+07:00,540126541727279710,259847,255702,262191,226925
1783264966898435945,2026-07-05T22:22:46.898+07:00,540126541727279710,259675,254788,263837,225214
1783264966916617763,2026-07-05T22:22:46.916+07:00,540126541727279710,258855,257478,261721,225865
1783264966934799581,2026-07-05T22:22:46.934+07:00,540126541727279710,257978,258432,261057,226073
1783264966952981400,2026-07-05T22:22:46.952+07:00,540126541727279710,257209,256075,263379,226722
1783264966971163218,2026-07-05T22:22:46.971+07:00,540126541727279710,260600,257256,261091,226165
1783264966989345036,2026-07-05T22:22:46.989+07:00,540126541727279710,261488,258710,260411,225772
1783264967007526854,2026-07-05T22:22:47.007+07:00,540126541727279710,259218,257679,262054,226062
1783264967025708672,2026-07-05T22:22:47.025+07:00,540126541727279710,258476,258480,261212,226189
1783264967043890490,2026-07-05T22:22:47.043+07:00,540126541727279710,259343,258730,261530,225782
1783264967062072309,2026-07-05T22:22:47.062+07:00,540126541727279710,261386,258714,260142,224787
1783264967080254127,2026-07-05T22:22:47.080+07:00,540126541727279710,260846,257181,261087,226057
1783264967098435945,2026-07-05T22:22:47.098+07:00,540126541727279710,258472,256218,262559,226416
1783264967116617763,2026-07-05T22:22:47.116+07:00,540126541727279710,260192,255106,263987,224294
1783264967134799581,2026-07-05T22:22:47.134+07:00,540126541727279710,260872,255626,264254,223846
1783264967152981400,2026-07-05T22:22:47.152+07:00,540126541727279710,258778,254474,263837,225873
1783264967171163218,2026-07-05T22:22:47.171+07:00,540126541727279710,260985,257841,261970,224192
1783264967189345036,2026-07-05T22:22:47.189+07:00,540126541727279710,261916,258958,261474,224313
1783264967207526854,2026-07-05T22:22:47.207+07:00,540126541727279710,259623,257209,262873,225371
1783264967006867200,2026-07-05T22:22:47.006+07:00,540126542200821410,259306,257911,262853,225705
1783264967025049018,2026-07-05T22:22:47.025+07:00,540126542200821410,259756,257217,263431,225430
1783264967043230836,2026-07-05T22:22:47.043+07:00,540126542200821410,261715,257360,260936,225077
1783264967061412654,2026-07-05T22:22:47.061+07:00,540126542200821410,261827,257504,260805,226038
1783264967079594472,2026-07-05T22:22:47.079+07:00,540126542200821410,260272,255444,263236,225264
1783264967097776290,2026-07-05T22:22:47.097+07:00,540126542200821410,258476,257555,261844,225998
1783264967115958109,2026-07-05T22:22:47.115+07:00,540126542200821410,257904,258484,261059,226220
1783264967134139927,2026-07-05T22:22:47.134+07:00,540126542200821410,259680,257998,263896,223655
1783264967152321745,2026-07-05T22:22:47.152+07:00,540126542200821410,261759,258158,261234,224711
1783264967170503563,2026-07-05T22:22:47.170+07:00,540126542200821410,260617,257938,261202,225972
1783264967188685381,2026-07-05T22:22:47.188+07:00,540126542200821410,261339,257123,263605,223290
1783264967206867200,2026-07-05T22:22:47.206+07:00,540126542200821410,261706,256037,264451,222515
1783264967225049018,2026-07-05T22:22:47.225+07:00,540126542200821410,261864,256176,264713,222564
1783264967243230836,2026-07-05T22:22:47.243+07:00,540126542200821410,262784,255788,261852,224493
1783264967261412654,2026-07-05T22:22:47.261+07:00,540126542200821410,262191,256727,261121,225808
1783264967279594472,2026-07-05T22:22:47.279+07:00,540126542200821410,259628,255178,263174,225827
1783264967297776290,2026-07-05T22:22:47.297+07:00,540126542200821410,258551,257582,261452,226226
1783264967315958109,2026-07-05T22:22:47.315+07:00,540126542200821410,259930,257268,262933,225218
1783264967334139927,2026-07-05T22:22:47.334+07:00,540126542200821410,261228,258761,262268,224684
1783264967352321745,2026-07-05T22:22:47.352+07:00,540126542200821410,259798,255801,263598,226383
1783264967370503563,2026-07-05T22:22:47.370+07:00,540126542200821410,258563,255079,264489,225694
1783264967388685381,2026-07-05T22:22:47.388+07:00,540126542200821410,260329,257650,262527,225450
1783264967406867200,2026-07-05T22:22:47.406+07:00,540126542200821410,260265,258313,262332,225472
1783264967425049018,2026-07-05T22:22:47.425+07:00,540126542200821410,260110,258619,262331,225527
1783264967443230836,2026-07-05T22:22:47.443+07:00,540126542200821410,261985,257442,260621,225362
1783264967461412654,2026-07-05T22:22:47.461+07:00,540126542200821410,261308,256354,261549,226393
1783264967377384800,2026-07-05T22:22:47.377+07:00,540126542674363110,261365,256822,263881,223420
1783264967395566618,2026-07-05T22:22:47.395+07:00,540126542674363110,261738,256323,264641,222403
1783264967413748436,2026-07-05T22:22:47.413+07:00,540126542674363110,259971,257875,262982,224604
1783264967431930254,2026-07-05T22:22:47.431+07:00,540126542674363110,261361,258503,263888,223633
1783264967450112072,2026-07-05T22:22:47.450+07:00,540126542674363110,261940,255909,263008,225736
1783264967468293890,2026-07-05T22:22:47.468+07:00,540126542674363110,261066,256999,264659,223407
1783264967486475709,2026-07-05T22:22:47.486+07:00,540126542674363110,260101,255541,264646,224389
1783264967504657527,2026-07-05T22:22:47.504+07:00,540126542674363110,261284,255762,264887,223084
1783264967522839345,2026-07-05T22:22:47.522+07:00,540126542674363110,261614,256225,264859,223033
1783264967541021163,2026-07-05T22:22:47.541+07:00,540126542674363110,258438,257918,265884,224547
1783264967559202981,2026-07-05T22:22:47.559+07:00,540126542674363110,261120,259155,262325,224689
1783264967577384800,2026-07-05T22:22:47.577+07:00,540126542674363110,260636,257121,264216,223735
1783264967595566618,2026-07-05T22:22:47.595+07:00,540126542674363110,260399,255876,264508,224115
1783264967613748436,2026-07-05T22:22:47.613+07:00,540126542674363110,260002,257471,263333,224988
1783264967631930254,2026-07-05T22:22:47.631+07:00,540126542674363110,260188,255640,264257,224697
1783264967650112072,2026-07-05T22:22:47.650+07:00,540126542674363110,260520,258496,264086,222384
1783264967668293890,2026-07-05T22:22:47.668+07:00,540126542674363110,261801,259347,261674,224045
1783264967686475709,2026-07-05T22:22:47.686+07:00,540126542674363110,261268,256734,263789,223325
1783264967704657527,2026-07-05T22:22:47.704+07:00,540126542674363110,261685,256642,264401,222860
1783264967722839345,2026-07-05T22:22:47.722+07:00,540126542674363110,261645,256820,264515,223160
1783264967741021163,2026-07-05T22:22:47.741+07:00,540126542674363110,262643,254867,263164,225412
1783264967759202981,2026-07-05T22:22:47.759+07:00,540126542674363110,262216,258080,263279,223098
1783264967777384800,2026-07-05T22:22:47.777+07:00,540126542674363110,260248,256127,264321,223982
1783264967795566618,2026-07-05T22:22:47.795+07:00,540126542674363110,260083,255749,264344,224412
1783264967813748436,2026-07-05T22:22:47.813+07:00,540126542674363110,259856,257702,263163,225065
1783264967831930254,2026-07-05T22:22:47.831+07:00,540126542674363110,258554,258156,262845,225791
1783264968212771700,2026-07-05T22:22:48.212+07:00,540126543147935336,259089,256116,263679,226775
1783264968230953518,2026-07-05T22:22:48.230+07:00,540126543147935336,260722,258187,261272,226339
1783264968249135336,2026-07-05T22:22:48.249+07:00,540126543147935336,261012,259446,260561,225624
1783264968267317154,2026-07-05T22:22:48.267+07:00,540126543147935336,258663,259572,260962,225691
1783264968285498972,2026-07-05T22:22:48.285+07:00,540126543147935336,258185,259617,261086,225390
1783264968303680790,2026-07-05T22:22:48.303+07:00,540126543147935336,260674,256641,261239,225726
1783264968321862609,2026-07-05T22:22:48.321+07:00,540126543147935336,261050,259199,261907,222592
1783264968340044427,2026-07-05T22:22:48.340+07:00,540126543147935336,261340,259120,263296,221149
1783264968358226245,2026-07-05T22:22:48.358+07:00,540126543147935336,261105,259543,261619,223080
1783264968376408063,2026-07-05T22:22:48.376+07:00,540126543147935336,261460,257360,262858,221950
1783264968394589881,2026-07-05T22:22:48.394+07:00,540126543147935336,260921,258418,261513,223308
1783264968412771700,2026-07-05T22:22:48.412+07:00,540126543147935336,259405,259049,263415,221507
1783264968430953518,2026-07-05T22:22:48.430+07:00,540126543147935336,260038,258360,264394,221076
1783264968449135336,2026-07-05T22:22:48.449+07:00,540126543147935336,261419,258388,264376,221857
1783264968467317154,2026-07-05T22:22:48.467+07:00,540126543147935336,259192,258586,262844,224517
1783264968485498972,2026-07-05T22:22:48.485+07:00,540126543147935336,258658,258677,262120,225594
1783264968503680790,2026-07-05T22:22:48.503+07:00,540126543147935336,260371,259781,263131,222910
1783264968521862609,2026-07-05T22:22:48.521+07:00,540126543147935336,258496,258343,265027,224040
1783264968540044427,2026-07-05T22:22:48.540+07:00,540126543147935336,258776,256224,265410,224556
1783264968558226245,2026-07-05T22:22:48.558+07:00,540126543147935336,261049,256949,265350,223333
1783264968576408063,2026-07-05T22:22:48.576+07:00,540126543147935336,261619,255882,265292,223250
1783264968594589881,2026-07-05T22:22:48.594+07:00,540126543147935336,261973,255415,265458,222626
1783264968612771700,2026-07-05T22:22:48.612+07:00,540126543147935336,262739,257636,262100,223697
1783264968630953518,2026-07-05T22:22:48.630+07:00,540126543147935336,262636,258814,263465,222804
1783264968649135336,2026-07-05T22:22:48.649+07:00,540126543147935336,262302,259384,261906,224946
1783264968667317154,2026-07-05T22:22:48.667+07:00,540126543147935336,262178,256512,264016,223408
1783264968441004300,2026-07-05T22:22:48.441+07:00,540126543621458724,262252,255668,264857,222975
1783264968459186118,2026-07-05T22:22:48.459+07:00,540126543621458724,262401,256052,262570,225425
1783264968477367936,2026-07-05T22:22:48.477+07:00,540126543621458724,263008,258487,261206,225052
1783264968495549754,2026-07-05T22:22:48.495+07:00,540126543621458724,262483,259170,260664,226118
1783264968513731572,2026-07-05T22:22:48.513+07:00,540126543621458724,262108,256594,263723,224203
1783264968531913390,2026-07-05T22:22:48.531+07:00,540126543621458724,261428,257047,264199,224945
1783264968550095209,2026-07-05T22:22:48.550+07:00,540126543621458724,261207,256507,264578,225153
1783264968568277027,2026-07-05T22:22:48.568+07:00,540126543621458724,258502,258027,266019,225022
1783264968586458845,2026-07-05T22:22:48.586+07:00,540126543621458724,261030,259135,264716,223561
1783264968604640663,2026-07-05T22:22:48.604+07:00,540126543621458724,259061,258212,263814,225937
1783264968622822481,2026-07-05T22:22:48.622+07:00,540126543621458724,259147,258921,262056,226500
1783264968641004300,2026-07-05T22:22:48.641+07:00,540126543621458724,259429,258810,262518,226438
1783264968659186118,2026-07-05T22:22:48.659+07:00,540126543621458724,259328,256736,262582,227087
1783264968677367936,2026-07-05T22:22:48.677+07:00,540126543621458724,261231,258938,262577,224418
1783264968695549754,2026-07-05T22:22:48.695+07:00,540126543621458724,262273,259578,261561,225244
1783264968713731572,2026-07-05T22:22:48.713+07:00,540126543621458724,261658,256572,264009,224354
1783264968731913390,2026-07-05T22:22:48.731+07:00,540126543621458724,261854,255780,264790,223840
1783264968750095209,2026-07-05T22:22:48.750+07:00,540126543621458724,262136,255193,265240,222983
1783264968768277027,2026-07-05T22:22:48.768+07:00,540126543621458724,260914,255175,265450,226266
1783264968786458845,2026-07-05T22:22:48.786+07:00,540126543621458724,261636,257749,265533,223461
1783264968804640663,2026-07-05T22:22:48.804+07:00,540126543621458724,260019,258460,263140,225818
1783264968822822481,2026-07-05T22:22:48.822+07:00,540126543621458724,260515,258980,262379,226141
1783264968841004300,2026-07-05T22:22:48.841+07:00,540126543621458724,260740,258474,263429,225984
1783264968859186118,2026-07-05T22:22:48.859+07:00,540126543621458724,261044,258874,261646,226560
1783264968877367936,2026-07-05T22:22:48.877+07:00,540126543621458724,259846,259109,264614,224193
1783264968895549754,2026-07-05T22:22:48.895+07:00,540126543621458724,261810,259627,263128,224467
1783264968847253400,2026-07-05T22:22:48.847+07:00,540126544094994324,261437,256592,264616,224112
1783264968865435218,2026-07-05T22:22:48.865+07:00,540126544094994324,262071,255873,265135,223163
1783264968883617036,2026-07-05T22:22:48.883+07:00,540126544094994324,261416,257647,264057,224876
1783264968901798854,2026-07-05T22:22:48.901+07:00,540126544094994324,261922,255541,264380,226962
1783264968919980672,2026-07-05T22:22:48.919+07:00,540126544094994324,260062,256673,265665,225278
1783264968938162490,2026-07-05T22:22:48.938+07:00,540126544094994324,260433,258349,262718,226377
1783264968956344309,2026-07-05T22:22:48.956+07:00,540126544094994324,260869,258965,262230,226334
1783264968974526127,2026-07-05T22:22:48.974+07:00,540126544094994324,261653,256900,264074,224495
1783264968992707945,2026-07-05T22:22:48.992+07:00,540126544094994324,260193,258315,262269,226163
1783264969010889763,2026-07-05T22:22:49.010+07:00,540126544094994324,258575,258321,264947,225306
1783264969029071581,2026-07-05T22:22:49.029+07:00,540126544094994324,261299,259250,263647,224673
1783264969047253400,2026-07-05T22:22:49.047+07:00,540126544094994324,260893,256342,264709,224624
1783264969065435218,2026-07-05T22:22:49.065+07:00,540126544094994324,261885,255959,265226,223424
1783264969083617036,2026-07-05T22:22:49.083+07:00,540126544094994324,261794,257169,264728,224397
1783264969101798854,2026-07-05T22:22:49.101+07:00,540126544094994324,261172,259362,263790,222496
1783264969119980672,2026-07-05T22:22:49.119+07:00,540126544094994324,260949,256856,263318,225674
1783264969138162490,2026-07-05T22:22:49.138+07:00,540126544094994324,262132,258611,262537,225624
1783264969156344309,2026-07-05T22:22:49.156+07:00,540126544094994324,261101,259124,261736,226216
1783264969174526127,2026-07-05T22:22:49.174+07:00,540126544094994324,261824,256819,263944,224290
1783264969192707945,2026-07-05T22:22:49.192+07:00,540126544094994324,261518,258621,262234,225536
1783264969210889763,2026-07-05T22:22:49.210+07:00,540126544094994324,261465,255763,263481,227179
1783264969229071581,2026-07-05T22:22:49.229+07:00,540126544094994324,262218,258047,264303,224339
1783264969247253400,2026-07-05T22:22:49.247+07:00,540126544094994324,262414,257602,265159,222939
1783264969265435218,2026-07-05T22:22:49.265+07:00,540126544094994324,261083,258622,263259,225107
1783264969283617036,2026-07-05T22:22:49.283+07:00,540126544094994324,259223,259063,261895,226176
1783264969301798854,2026-07-05T22:22:49.301+07:00,540126544094994324,258285,259810,264607,223947
1783264969188623500,2026-07-05T22:22:49.188+07:00,540126544568587904,258152,256307,264758,226357
1783264969206805318,2026-07-05T22:22:49.206+07:00,540126544568587904,257973,256645,263874,227071
1783264969224987136,2026-07-05T22:22:49.224+07:00,540126544568587904,260490,255787,264999,224263
1783264969243168954,2026-07-05T22:22:49.243+07:00,540126544568587904,259713,257808,263464,225732
1783264969261350772,2026-07-05T22:22:49.261+07:00,540126544568587904,260747,255722,264679,224577
1783264969279532590,2026-07-05T22:22:49.279+07:00,540126544568587904,258558,257424,266014,224671
1783264969297714409,2026-07-05T22:22:49.297+07:00,540126544568587904,257665,255379,265492,226334
1783264969315896227,2026-07-05T22:22:49.315+07:00,540126544568587904,259748,255062,265704,224666
1783264969334078045,2026-07-05T22:22:49.334+07:00,540126544568587904,259585,257627,263055,225852
1783264969352259863,2026-07-05T22:22:49.352+07:00,540126544568587904,260023,258017,263519,226052
1783264969370441681,2026-07-05T22:22:49.370+07:00,540126544568587904,262220,255417,262856,226792
1783264969388623500,2026-07-05T22:22:49.388+07:00,540126544568587904,259344,254882,264474,227410
1783264969406805318,2026-07-05T22:22:49.406+07:00,540126544568587904,261631,257814,263584,225730
1783264969424987136,2026-07-05T22:22:49.424+07:00,540126544568587904,262021,258523,263560,225385
1783264969443168954,2026-07-05T22:22:49.443+07:00,540126544568587904,261108,258316,263777,225743
1783264969461350772,2026-07-05T22:22:49.461+07:00,540126544568587904,261226,256100,264760,225035
1783264969479532590,2026-07-05T22:22:49.479+07:00,540126544568587904,262226,254745,264028,226795
1783264969497714409,2026-07-05T22:22:49.497+07:00,540126544568587904,262784,257845,261758,226434
1783264969515896227,2026-07-05T22:22:49.515+07:00,540126544568587904,262697,258945,262054,225952
1783264969534078045,2026-07-05T22:22:49.534+07:00,540126544568587904,259934,258924,262373,226605
1783264969552259863,2026-07-05T22:22:49.552+07:00,540126544568587904,259620,258983,262609,226685
1783264969570441681,2026-07-05T22:22:49.570+07:00,540126544568587904,261998,257015,261616,226819
1783264969588623500,2026-07-05T22:22:49.588+07:00,540126544568587904,261096,255285,263020,227631
1783264969606805318,2026-07-05T22:22:49.606+07:00,540126544568587904,261796,257047,264825,224219
1783264969624987136,2026-07-05T22:22:49.624+07:00,540126544568587904,259474,257776,263959,226012
1783264969643168954,2026-07-05T22:22:49.643+07:00,540126544568587904,259744,258227,263718,226303
1783264969972274600,2026-07-05T22:22:49.972+07:00,540126545042132662,261226,256162,264897,223960
1783264969990456418,2026-07-05T22:22:49.990+07:00,540126545042132662,262584,256113,262116,225279
1783264970008638236,2026-07-05T22:22:50.008+07:00,540126545042132662,262652,257958,260656,225437
1783264970026820054,2026-07-05T22:22:50.026+07:00,540126545042132662,259496,257852,260927,225962
1783264970045001872,2026-07-05T22:22:50.045+07:00,540126545042132662,260607,256511,262789,223409
1783264970063183690,2026-07-05T22:22:50.063+07:00,540126545042132662,259316,256896,261820,224117
1783264970081365509,2026-07-05T22:22:50.081+07:00,540126545042132662,257065,254389,262762,225018
1783264970099547327,2026-07-05T22:22:50.099+07:00,540126545042132662,256523,252931,262821,225345
1783264970117729145,2026-07-05T22:22:50.117+07:00,540126545042132662,258231,254377,263728,222617
1783264970135910963,2026-07-05T22:22:50.135+07:00,540126545042132662,257716,256705,261585,224699
1783264970154092781,2026-07-05T22:22:50.154+07:00,540126545042132662,257869,257944,261061,225696
1783264970172274600,2026-07-05T22:22:50.172+07:00,540126545042132662,258483,258784,261081,226293
1783264970190456418,2026-07-05T22:22:50.190+07:00,540126545042132662,261145,259384,260635,224803
1783264970208638236,2026-07-05T22:22:50.208+07:00,540126545042132662,262197,259793,262197,223814
1783264970226820054,2026-07-05T22:22:50.226+07:00,540126545042132662,262481,259773,261936,224900
1783264970245001872,2026-07-05T22:22:50.245+07:00,540126545042132662,261465,257259,263808,225084
1783264970263183690,2026-07-05T22:22:50.263+07:00,540126545042132662,262037,255923,264810,223661
1783264970281365509,2026-07-05T22:22:50.281+07:00,540126545042132662,261468,257567,265829,222915
1783264970299547327,2026-07-05T22:22:50.299+07:00,540126545042132662,260404,255337,265173,226086
1783264970317729145,2026-07-05T22:22:50.317+07:00,540126545042132662,258577,254737,265168,226694
1783264970335910963,2026-07-05T22:22:50.335+07:00,540126545042132662,260988,256334,265404,224076
1783264970354092781,2026-07-05T22:22:50.354+07:00,540126545042132662,261849,255574,265476,223087
1783264970372274600,2026-07-05T22:22:50.372+07:00,540126545042132662,261915,255101,265410,223286
1783264970390456418,2026-07-05T22:22:50.390+07:00,540126545042132662,262946,256320,262171,224623
1783264970408638236,2026-07-05T22:22:50.408+07:00,540126545042132662,263208,258545,261184,224908
1783264970426820054,2026-07-05T22:22:50.426+07:00,540126545042132662,263023,259004,262882,224273
1783264970361842900,2026-07-05T22:22:50.361+07:00,540126545515674362,262737,257505,264516,223015
1783264970380024718,2026-07-05T22:22:50.380+07:00,540126545515674362,260553,258407,263036,225067
1783264970398206536,2026-07-05T22:22:50.398+07:00,540126545515674362,261732,259350,261546,225635
1783264970416388354,2026-07-05T22:22:50.416+07:00,540126545515674362,262841,257999,260900,226254
1783264970434570172,2026-07-05T22:22:50.434+07:00,540126545515674362,262957,259064,261915,225022
1783264970452751990,2026-07-05T22:22:50.452+07:00,540126545515674362,262076,259306,261382,225738
1783264970470933809,2026-07-05T22:22:50.470+07:00,540126545515674362,262150,257922,263535,224515
1783264970489115627,2026-07-05T22:22:50.489+07:00,540126545515674362,262221,256006,264737,223222
1783264970507297445,2026-07-05T22:22:50.507+07:00,540126545515674362,259352,258336,265823,223019
1783264970525479263,2026-07-05T22:22:50.525+07:00,540126545515674362,257935,256210,265729,225214
1783264970543661081,2026-07-05T22:22:50.543+07:00,540126545515674362,258099,255080,265293,225933
1783264970561842900,2026-07-05T22:22:50.561+07:00,540126545515674362,260642,256735,264981,224781
1783264970580024718,2026-07-05T22:22:50.580+07:00,540126545515674362,259850,257821,263464,225635
1783264970598206536,2026-07-05T22:22:50.598+07:00,540126545515674362,258880,255771,264059,226271
1783264970616388354,2026-07-05T22:22:50.616+07:00,540126545515674362,258516,257784,265513,224332
1783264970634570172,2026-07-05T22:22:50.634+07:00,540126545515674362,260707,258538,265407,222702
1783264970652751990,2026-07-05T22:22:50.652+07:00,540126545515674362,261264,259069,262802,224671
1783264970670933809,2026-07-05T22:22:50.670+07:00,540126545515674362,261690,258116,263903,224413
1783264970689115627,2026-07-05T22:22:50.689+07:00,540126545515674362,261988,256050,264731,223241
1783264970707297445,2026-07-05T22:22:50.707+07:00,540126545515674362,262637,254519,264144,225984
1783264970725479263,2026-07-05T22:22:50.725+07:00,540126545515674362,259288,254173,264739,226874
1783264970743661081,2026-07-05T22:22:50.743+07:00,540126545515674362,260702,255901,265386,223803
1783264970761842900,2026-07-05T22:22:50.761+07:00,540126545515674362,260100,255912,264841,224987
1783264970780024718,2026-07-05T22:22:50.780+07:00,540126545515674362,260910,256557,264639,224687
1783264970798206536,2026-07-05T22:22:50.798+07:00,540126545515674362,258771,257185,263422,226090
1783264970816388354,2026-07-05T22:22:50.816+07:00,540126545515674362,258754,255343,264420,227221
1783264970606913200,2026-07-05T22:22:50.606+07:00,540126545989191646,260213,256915,265306,223865
1783264970625095018,2026-07-05T22:22:50.625+07:00,540126545989191646,258490,257400,263896,225786
1783264970643276836,2026-07-05T22:22:50.643+07:00,540126545989191646,259693,256988,264151,225499
1783264970661458654,2026-07-05T22:22:50.661+07:00,540126545989191646,260674,256458,264448,224858
1783264970679640472,2026-07-05T22:22:50.679+07:00,540126545989191646,261774,257486,261497,224210
1783264970697822290,2026-07-05T22:22:50.697+07:00,540126545989191646,259204,257126,264344,224701
1783264970716004109,2026-07-05T22:22:50.716+07:00,540126545989191646,260061,258252,262094,226006
1783264970734185927,2026-07-05T22:22:50.734+07:00,540126545989191646,260001,258914,261285,226266
1783264970752367745,2026-07-05T22:22:50.752+07:00,540126545989191646,261203,257050,263518,224450
1783264970770549563,2026-07-05T22:22:50.770+07:00,540126545989191646,260416,258448,261808,225680
1783264970788731381,2026-07-05T22:22:50.788+07:00,540126545989191646,259557,259097,264406,223383
1783264970806913200,2026-07-05T22:22:50.806+07:00,540126545989191646,261416,259242,261781,225160
1783264970825095018,2026-07-05T22:22:50.825+07:00,540126545989191646,262059,258513,263842,223536
1783264970843276836,2026-07-05T22:22:50.843+07:00,540126545989191646,261060,258746,262719,225013
1783264970861458654,2026-07-05T22:22:50.861+07:00,540126545989191646,259373,258938,261701,225958
1783264970879640472,2026-07-05T22:22:50.879+07:00,540126545989191646,261606,255588,262596,226868
1783264970897822290,2026-07-05T22:22:50.897+07:00,540126545989191646,260067,257123,264793,224434
1783264970916004109,2026-07-05T22:22:50.916+07:00,540126545989191646,258891,257162,263356,226087
1783264970934185927,2026-07-05T22:22:50.934+07:00,540126545989191646,258748,258404,261655,226451
1783264970952367745,2026-07-05T22:22:50.952+07:00,540126545989191646,260788,256140,263808,223933
1783264970970549563,2026-07-05T22:22:50.970+07:00,540126545989191646,261125,257882,262980,224807
1783264970988731381,2026-07-05T22:22:50.988+07:00,540126545989191646,260095,259078,264574,222679
1783264971006913200,2026-07-05T22:22:51.006+07:00,540126545989191646,258163,256000,264792,225374
1783264971025095018,2026-07-05T22:22:51.025+07:00,540126545989191646,257861,257329,263202,226420
1783264971043276836,2026-07-05T22:22:51.043+07:00,540126545989191646,259487,256513,264088,225610
1783264971061458654,2026-07-05T22:22:51.061+07:00,540126545989191646,259215,257767,263081,226078
1783264971397967600,2026-07-05T22:22:51.397+07:00,540126546462724200,260310,259460,263728,223021
1783264971416149418,2026-07-05T22:22:51.416+07:00,540126546462724200,261302,256860,262723,225618
1783264971434331236,2026-07-05T22:22:51.434+07:00,540126546462724200,262128,258492,261727,225399
1783264971452513054,2026-07-05T22:22:51.452+07:00,540126546462724200,259880,258840,261160,226288
1783264971470694872,2026-07-05T22:22:51.470+07:00,540126546462724200,260747,258097,262919,225471
1783264971488876690,2026-07-05T22:22:51.488+07:00,540126546462724200,260021,258737,261687,226002
1783264971507058509,2026-07-05T22:22:51.507+07:00,540126546462724200,261308,255553,262817,227061
1783264971525240327,2026-07-05T22:22:51.525+07:00,540126546462724200,260764,256945,264746,223985
1783264971543422145,2026-07-05T22:22:51.543+07:00,540126546462724200,259859,255351,264992,224971
1783264971561603963,2026-07-05T22:22:51.561+07:00,540126546462724200,261113,256804,264611,224552
1783264971579785781,2026-07-05T22:22:51.579+07:00,540126546462724200,261460,256819,264653,224317
1783264971597967600,2026-07-05T22:22:51.597+07:00,540126546462724200,262459,257454,261752,225079
1783264971616149418,2026-07-05T22:22:51.616+07:00,540126546462724200,260887,258362,264443,223148
1783264971634331236,2026-07-05T22:22:51.634+07:00,540126546462724200,260386,256760,265258,223386
1783264971652513054,2026-07-05T22:22:51.652+07:00,540126546462724200,261480,257886,264329,224095
1783264971670694872,2026-07-05T22:22:51.670+07:00,540126546462724200,261896,256420,264813,223255
1783264971688876690,2026-07-05T22:22:51.688+07:00,540126546462724200,262073,255693,265143,222512
1783264971707058509,2026-07-05T22:22:51.707+07:00,540126546462724200,259548,258078,265783,222345
1783264971725240327,2026-07-05T22:22:51.725+07:00,540126546462724200,258207,256490,265810,224305
1783264971743422145,2026-07-05T22:22:51.743+07:00,540126546462724200,259157,255147,265554,224468
1783264971761603963,2026-07-05T22:22:51.761+07:00,540126546462724200,259418,257532,262864,225617
1783264971779785781,2026-07-05T22:22:51.779+07:00,540126546462724200,258590,258381,261884,226189
1783264971797967600,2026-07-05T22:22:51.797+07:00,540126546462724200,261151,259114,260707,225755
1783264971816149418,2026-07-05T22:22:51.816+07:00,540126546462724200,258494,256832,263663,226594
1783264971834331236,2026-07-05T22:22:51.834+07:00,540126546462724200,258562,256814,262882,226982
1783264971852513054,2026-07-05T22:22:51.852+07:00,540126546462724200,260200,255380,264383,224504
1783264971854875500,2026-07-05T22:22:51.854+07:00,540126546936238434,261313,254886,264903,223240
1783264971873057318,2026-07-05T22:22:51.873+07:00,540126546936238434,261833,254925,265164,222497
1783264971891239136,2026-07-05T22:22:51.891+07:00,540126546936238434,259289,255810,265689,225574
1783264971909420954,2026-07-05T22:22:51.909+07:00,540126546936238434,260588,256585,263244,226592
1783264971927602772,2026-07-05T22:22:51.927+07:00,540126546936238434,261067,258345,261505,226442
1783264971945784590,2026-07-05T22:22:51.945+07:00,540126546936238434,260142,257484,263022,226131
1783264971963966409,2026-07-05T22:22:51.963+07:00,540126546936238434,260520,257431,263549,225564
1783264971982148227,2026-07-05T22:22:51.982+07:00,540126546936238434,261275,258065,261565,226190
1783264972000330045,2026-07-05T22:22:52.000+07:00,540126546936238434,259365,258453,264538,224383
1783264972018511863,2026-07-05T22:22:52.018+07:00,540126546936238434,260661,258104,265348,222744
1783264972036693681,2026-07-05T22:22:52.036+07:00,540126546936238434,261154,258869,262920,224704
1783264972054875500,2026-07-05T22:22:52.054+07:00,540126546936238434,261655,256351,264329,223536
1783264972073057318,2026-07-05T22:22:52.073+07:00,540126546936238434,259236,257986,262222,225435
1783264972091239136,2026-07-05T22:22:52.091+07:00,540126546936238434,261922,256094,261385,226002
1783264972109420954,2026-07-05T22:22:52.109+07:00,540126546936238434,261490,257873,263902,223132
1783264972127602772,2026-07-05T22:22:52.127+07:00,540126546936238434,262124,258220,264668,222652
1783264972145784590,2026-07-05T22:22:52.145+07:00,540126546936238434,260948,256627,264643,224191
1783264972163966409,2026-07-05T22:22:52.163+07:00,540126546936238434,261506,256436,264893,223953
1783264972182148227,2026-07-05T22:22:52.182+07:00,540126546936238434,259196,254822,264829,225612
1783264972200330045,2026-07-05T22:22:52.200+07:00,540126546936238434,261271,258057,262736,224137
1783264972218511863,2026-07-05T22:22:52.218+07:00,540126546936238434,261811,258849,261158,225512
1783264972236693681,2026-07-05T22:22:52.236+07:00,540126546936238434,261913,257068,263815,223379
1783264972254875500,2026-07-05T22:22:52.254+07:00,540126546936238434,262009,255632,264696,222704
1783264972273057318,2026-07-05T22:22:52.273+07:00,540126546936238434,262099,255686,265032,222564
1783264972291239136,2026-07-05T22:22:52.291+07:00,540126546936238434,262111,258197,262357,222513
1783264972309420954,2026-07-05T22:22:52.309+07:00,540126546936238434,262689,258715,260870,224675
1783264972088714200,2026-07-05T22:22:52.088+07:00,540126547409758770,260347,255915,263470,225283
1783264972106896018,2026-07-05T22:22:52.106+07:00,540126547409758770,258737,257842,261989,226221
1783264972125077836,2026-07-05T22:22:52.125+07:00,540126547409758770,260069,257516,263326,225597
1783264972143259654,2026-07-05T22:22:52.143+07:00,540126547409758770,261543,258278,264278,223998
1783264972161441472,2026-07-05T22:22:52.161+07:00,540126547409758770,262678,257538,261799,225336
1783264972179623290,2026-07-05T22:22:52.179+07:00,540126547409758770,259252,255372,263539,226386
1783264972197805109,2026-07-05T22:22:52.197+07:00,540126547409758770,261127,256543,264695,223741
1783264972215986927,2026-07-05T22:22:52.215+07:00,540126547409758770,260837,256399,264593,224530
1783264972234168745,2026-07-05T22:22:52.234+07:00,540126547409758770,259901,257554,263610,225535
1783264972252350563,2026-07-05T22:22:52.252+07:00,540126547409758770,261630,257931,261218,224599
1783264972270532381,2026-07-05T22:22:52.270+07:00,540126547409758770,261665,256737,261636,226226
1783264972288714200,2026-07-05T22:22:52.288+07:00,540126547409758770,261238,256304,264154,224124
1783264972306896018,2026-07-05T22:22:52.306+07:00,540126547409758770,258997,257474,263202,225649
1783264972325077836,2026-07-05T22:22:52.325+07:00,540126547409758770,260401,257006,264083,225007
1783264972343259654,2026-07-05T22:22:52.343+07:00,540126547409758770,260489,255220,264789,224668
1783264972361441472,2026-07-05T22:22:52.361+07:00,540126547409758770,258140,256731,265792,225191
1783264972379623290,2026-07-05T22:22:52.379+07:00,540126547409758770,261051,258558,263328,224828
1783264972397805109,2026-07-05T22:22:52.397+07:00,540126547409758770,261510,256919,264767,223153
1783264972415986927,2026-07-05T22:22:52.415+07:00,540126547409758770,261971,256133,265067,222645
1783264972434168745,2026-07-05T22:22:52.434+07:00,540126547409758770,260398,257432,263821,224800
1783264972452350563,2026-07-05T22:22:52.452+07:00,540126547409758770,258242,258104,265641,225795
1783264972470532381,2026-07-05T22:22:52.470+07:00,540126547409758770,260923,259289,263422,224342
1783264972488714200,2026-07-05T22:22:52.488+07:00,540126547409758770,260244,256576,264726,224237
1783264972506896018,2026-07-05T22:22:52.506+07:00,540126547409758770,260487,255399,264956,224392
1783264972525077836,2026-07-05T22:22:52.525+07:00,540126547409758770,260847,256745,264271,224893
1783264972543259654,2026-07-05T22:22:52.543+07:00,540126547409758770,261665,257996,263953,224737
1783264972937177900,2026-07-05T22:22:52.937+07:00,540126547883260806,259800,258878,265359,223165
1783264972955359718,2026-07-05T22:22:52.955+07:00,540126547883260806,261369,259118,262202,225114
1783264972973541536,2026-07-05T22:22:52.973+07:00,540126547883260806,261848,257741,264213,223061
1783264972991723354,2026-07-05T22:22:52.991+07:00,540126547883260806,262020,257384,264531,223457
1783264973009905172,2026-07-05T22:22:53.009+07:00,540126547883260806,262174,256013,264991,222809
1783264973028086990,2026-07-05T22:22:53.028+07:00,540126547883260806,258874,258229,266070,223567
1783264973046268809,2026-07-05T22:22:53.046+07:00,540126547883260806,261240,259419,263528,223349
1783264973064450627,2026-07-05T22:22:53.064+07:00,540126547883260806,259511,256176,264550,224850
1783264973082632445,2026-07-05T22:22:53.082+07:00,540126547883260806,258539,256940,263871,225888
1783264973100814263,2026-07-05T22:22:53.100+07:00,540126547883260806,260088,257427,263934,225486
1783264973118996081,2026-07-05T22:22:53.118+07:00,540126547883260806,260954,258355,263161,225474
1783264973137177900,2026-07-05T22:22:53.137+07:00,540126547883260806,261214,255490,263769,226973
1783264973155359718,2026-07-05T22:22:53.155+07:00,540126547883260806,259625,255723,265027,225528
1783264973173541536,2026-07-05T22:22:53.173+07:00,540126547883260806,258960,257601,262754,226444
1783264973191723354,2026-07-05T22:22:53.191+07:00,540126547883260806,258571,258037,262854,226479
1783264973209905172,2026-07-05T22:22:53.209+07:00,540126547883260806,258138,258633,261814,226543
1783264973228086990,2026-07-05T22:22:53.228+07:00,540126547883260806,260231,259831,262054,223536
1783264973246268809,2026-07-05T22:22:53.246+07:00,540126547883260806,261065,256815,262320,225878
1783264973264450627,2026-07-05T22:22:53.264+07:00,540126547883260806,261832,257901,264050,223530
1783264973282632445,2026-07-05T22:22:53.282+07:00,540126547883260806,262039,256834,264847,222515
1783264973300814263,2026-07-05T22:22:53.300+07:00,540126547883260806,260545,257848,263773,224737
1783264973318996081,2026-07-05T22:22:53.318+07:00,540126547883260806,261606,256831,264804,223153
1783264973337177900,2026-07-05T22:22:53.337+07:00,540126547883260806,261818,254787,264170,225967
1783264973355359718,2026-07-05T22:22:53.355+07:00,540126547883260806,262547,257850,262578,224987
1783264973373541536,2026-07-05T22:22:53.373+07:00,540126547883260806,262614,258637,262939,224773
1783264973391723354,2026-07-05T22:22:53.391+07:00,540126547883260806,259597,258902,261872,225948
1783264973169694700,2026-07-05T22:22:53.169+07:00,540126548356802506,258843,258936,261453,226331
1783264973187876518,2026-07-05T22:22:53.187+07:00,540126548356802506,258396,256333,263694,227245
1783264973206058336,2026-07-05T22:22:53.206+07:00,540126548356802506,260991,258604,262532,224795
1783264973224240154,2026-07-05T22:22:53.224+07:00,540126548356802506,261043,257615,264550,223185
1783264973242421972,2026-07-05T22:22:53.242+07:00,540126548356802506,261921,257752,264760,223181
1783264973260603790,2026-07-05T22:22:53.260+07:00,540126548356802506,261657,256588,264776,223555
1783264973278785609,2026-07-05T22:22:53.278+07:00,540126548356802506,261875,255329,265138,222830
1783264973296967427,2026-07-05T22:22:53.296+07:00,540126548356802506,262419,257846,262041,223386
1783264973315149245,2026-07-05T22:22:53.315+07:00,540126548356802506,261219,257933,264452,222536
1783264973333331063,2026-07-05T22:22:53.333+07:00,540126548356802506,260635,255815,265104,223557
1783264973351512881,2026-07-05T22:22:53.351+07:00,540126548356802506,261276,257423,264052,224610
1783264973369694700,2026-07-05T22:22:53.369+07:00,540126548356802506,259838,258246,262673,225658
1783264973387876518,2026-07-05T22:22:53.387+07:00,540126548356802506,260976,256411,262065,226530
1783264973406058336,2026-07-05T22:22:53.406+07:00,540126548356802506,261197,258473,263510,223354
1783264973424240154,2026-07-05T22:22:53.424+07:00,540126548356802506,260744,257254,264935,222864
1783264973442421972,2026-07-05T22:22:53.442+07:00,540126548356802506,261735,257121,265117,222388
1783264973460603790,2026-07-05T22:22:53.460+07:00,540126548356802506,260207,257883,263854,224644
1783264973478785609,2026-07-05T22:22:53.478+07:00,540126548356802506,259083,258670,261907,225917
1783264973496967427,2026-07-05T22:22:53.496+07:00,540126548356802506,261101,259258,260879,224258
1783264973515149245,2026-07-05T22:22:53.515+07:00,540126548356802506,261715,259458,263183,222758
1783264973533331063,2026-07-05T22:22:53.533+07:00,540126548356802506,261909,258061,264665,222117
1783264973551512881,2026-07-05T22:22:53.551+07:00,540126548356802506,260412,258761,262390,224705
1783264973569694700,2026-07-05T22:22:53.569+07:00,540126548356802506,258964,258942,261551,225835
1783264973587876518,2026-07-05T22:22:53.587+07:00,540126548356802506,261059,259546,263117,223686
1783264973606058336,2026-07-05T22:22:53.606+07:00,540126548356802506,260691,255986,263591,226159
1783264973624240154,2026-07-05T22:22:53.624+07:00,540126548356802506,258798,255530,263548,226937
1783264973576969300,2026-07-05T22:22:53.576+07:00,540126548830344206,260615,255456,264709,223999
1783264973595151118,2026-07-05T22:22:53.595+07:00,540126548830344206,260754,256169,264577,224672
1783264973613332936,2026-07-05T22:22:53.613+07:00,540126548830344206,259046,257741,263094,225868
1783264973631514754,2026-07-05T22:22:53.631+07:00,540126548830344206,260506,259395,262518,223299
1783264973649696572,2026-07-05T22:22:53.649+07:00,540126548830344206,261594,259499,263654,222474
1783264973667878390,2026-07-05T22:22:53.667+07:00,540126548830344206,262160,259486,262593,224202
1783264973686060209,2026-07-05T22:22:53.686+07:00,540126548830344206,261301,256986,263918,224583
1783264973704242027,2026-07-05T22:22:53.704+07:00,540126548830344206,261665,255996,264584,223733
1783264973722423845,2026-07-05T22:22:53.722+07:00,540126548830344206,259807,256101,263190,225799
1783264973740605663,2026-07-05T22:22:53.740+07:00,540126548830344206,260740,258484,263818,223063
1783264973758787481,2026-07-05T22:22:53.758+07:00,540126548830344206,261796,259185,261628,224867
1783264973776969300,2026-07-05T22:22:53.776+07:00,540126548830344206,260791,256274,263689,224878
1783264973795151118,2026-07-05T22:22:53.795+07:00,540126548830344206,260651,256765,264003,225192
1783264973813332936,2026-07-05T22:22:53.813+07:00,540126548830344206,260181,257376,263855,225764
1783264973831514754,2026-07-05T22:22:53.831+07:00,540126548830344206,257985,258007,265623,225924
1783264973849696572,2026-07-05T22:22:53.849+07:00,540126548830344206,259698,258550,265828,223183
1783264973867878390,2026-07-05T22:22:53.867+07:00,540126548830344206,260927,259140,262532,225134
1783264973886060209,2026-07-05T22:22:53.886+07:00,540126548830344206,261809,258122,264026,223929
1783264973904242027,2026-07-05T22:22:53.904+07:00,540126548830344206,260191,258458,262826,225307
1783264973922423845,2026-07-05T22:22:53.922+07:00,540126548830344206,259985,256085,264459,224989
1783264973940605663,2026-07-05T22:22:53.940+07:00,540126548830344206,260672,258468,264380,222704
1783264973958787481,2026-07-05T22:22:53.958+07:00,540126548830344206,261907,259197,261894,224571
1783264973976969300,2026-07-05T22:22:53.976+07:00,540126548830344206,261917,257261,264136,222980
1783264973995151118,2026-07-05T22:22:53.995+07:00,540126548830344206,262107,256503,264775,222853
1783264974013332936,2026-07-05T22:22:54.013+07:00,540126548830344206,262063,256664,264804,223172
1783264974031514754,2026-07-05T22:22:54.031+07:00,540126548830344206,261687,258836,262917,222144
1783264973956882300,2026-07-05T22:22:53.956+07:00,540126549303858438,261511,257112,262484,225323
1783264973975064118,2026-07-05T22:22:53.975+07:00,540126549303858438,261470,256739,264457,223404
1783264973993245936,2026-07-05T22:22:53.993+07:00,540126549303858438,259121,258009,262689,225425
1783264974011427754,2026-07-05T22:22:54.011+07:00,540126549303858438,259021,258496,262408,226028
1783264974029609572,2026-07-05T22:22:54.029+07:00,540126549303858438,258192,256808,263141,226540
1783264974047791390,2026-07-05T22:22:54.047+07:00,540126549303858438,258185,255611,264477,227310
1783264974065973209,2026-07-05T22:22:54.065+07:00,540126549303858438,258910,256014,265385,225212
1783264974084155027,2026-07-05T22:22:54.084+07:00,540126549303858438,260035,257989,262466,225917
1783264974102336845,2026-07-05T22:22:54.102+07:00,540126549303858438,260999,257957,263385,225256
1783264974120518663,2026-07-05T22:22:54.120+07:00,540126549303858438,261633,255957,264502,223595
1783264974138700481,2026-07-05T22:22:54.138+07:00,540126549303858438,262811,254369,263482,225859
1783264974156882300,2026-07-05T22:22:54.156+07:00,540126549303858438,259355,255111,264907,226016
1783264974175064118,2026-07-05T22:22:54.175+07:00,540126549303858438,261407,257603,263747,225028
1783264974193245936,2026-07-05T22:22:54.193+07:00,540126549303858438,261731,255916,264822,223319
1783264974211427754,2026-07-05T22:22:54.211+07:00,540126549303858438,261164,257103,264195,224608
1783264974229609572,2026-07-05T22:22:54.229+07:00,540126549303858438,261356,258548,262643,225348
1783264974247791390,2026-07-05T22:22:54.247+07:00,540126549303858438,262460,259008,260871,224939
1783264974265973209,2026-07-05T22:22:54.265+07:00,540126549303858438,259175,255945,263215,226317
1783264974284155027,2026-07-05T22:22:54.284+07:00,540126549303858438,260246,258007,261603,226408
1783264974302336845,2026-07-05T22:22:54.302+07:00,540126549303858438,258750,258548,261619,226652
1783264974320518663,2026-07-05T22:22:54.320+07:00,540126549303858438,258229,258947,261235,226714
1783264974338700481,2026-07-05T22:22:54.338+07:00,540126549303858438,257518,258421,264462,226923
1783264974356882300,2026-07-05T22:22:54.356+07:00,540126549303858438,260897,259322,261971,225750
1783264974375064118,2026-07-05T22:22:54.375+07:00,540126549303858438,261314,257911,264284,223453
1783264974393245936,2026-07-05T22:22:54.393+07:00,540126549303858438,261356,255842,264973,223305
1783264974411427754,2026-07-05T22:22:54.411+07:00,540126549303858438,261555,256577,264828,223943
1783264974792818300,2026-07-05T22:22:54.792+07:00,540126549777397096,261987,257808,264437,224039
1783264974811000118,2026-07-05T22:22:54.811+07:00,540126549777397096,259872,258755,265630,222995
1783264974829181936,2026-07-05T22:22:54.829+07:00,540126549777397096,261514,259232,264575,222795
1783264974847363754,2026-07-05T22:22:54.847+07:00,540126549777397096,259054,257474,264105,225167
1783264974865545572,2026-07-05T22:22:54.865+07:00,540126549777397096,260265,256329,264549,224792
1783264974883727390,2026-07-05T22:22:54.883+07:00,540126549777397096,260320,257196,264084,225313
1783264974901909209,2026-07-05T22:22:54.901+07:00,540126549777397096,260658,255825,264736,227094
1783264974920091027,2026-07-05T22:22:54.920+07:00,540126549777397096,261995,258344,262458,225151
1783264974938272845,2026-07-05T22:22:54.938+07:00,540126549777397096,261996,258185,264390,222980
1783264974956454663,2026-07-05T22:22:54.956+07:00,540126549777397096,261859,258690,263336,224493
1783264974974636481,2026-07-05T22:22:54.974+07:00,540126549777397096,261735,257662,264130,224377
1783264974992818300,2026-07-05T22:22:54.992+07:00,540126549777397096,259362,258106,263194,225927
1783264975011000118,2026-07-05T22:22:55.011+07:00,540126549777397096,261642,258485,261081,225266
1783264975029181936,2026-07-05T22:22:55.029+07:00,540126549777397096,260064,257109,264034,224681
1783264975047363754,2026-07-05T22:22:55.047+07:00,540126549777397096,258640,256288,264028,225896
1783264975065545572,2026-07-05T22:22:55.065+07:00,540126549777397096,260581,255307,264801,224002
1783264975083727390,2026-07-05T22:22:55.083+07:00,540126549777397096,261302,255247,264888,223648
1783264975101909209,2026-07-05T22:22:55.101+07:00,540126549777397096,261426,254395,264556,226212
1783264975120091027,2026-07-05T22:22:55.120+07:00,540126549777397096,262373,257780,262362,224867
1783264975138272845,2026-07-05T22:22:55.138+07:00,540126549777397096,262605,258674,263185,223958
1783264975156454663,2026-07-05T22:22:55.156+07:00,540126549777397096,260395,259078,261598,225625
1783264975174636481,2026-07-05T22:22:55.174+07:00,540126549777397096,260780,258366,262876,225478
1783264975192818300,2026-07-05T22:22:55.192+07:00,540126549777397096,261255,258590,263173,225359
1783264975211000118,2026-07-05T22:22:55.211+07:00,540126549777397096,260314,256080,264310,227013
1783264975229181936,2026-07-05T22:22:55.229+07:00,540126549777397096,261572,257638,262037,226886
1783264975247363754,2026-07-05T22:22:55.247+07:00,540126549777397096,259386,258124,262031,227107
1783264975017056100,2026-07-05T22:22:55.017+07:00,540126550250938796,261143,257578,263770,224829
1783264975035237918,2026-07-05T22:22:55.035+07:00,540126550250938796,260137,258299,262774,225666
1783264975053419736,2026-07-05T22:22:55.053+07:00,540126550250938796,259401,259065,265115,223918
1783264975071601554,2026-07-05T22:22:55.071+07:00,540126550250938796,261785,259222,261965,225016
1783264975089783372,2026-07-05T22:22:55.089+07:00,540126550250938796,261797,258326,264290,222927
1783264975107965190,2026-07-05T22:22:55.107+07:00,540126550250938796,262221,258114,264632,223241
1783264975126147009,2026-07-05T22:22:55.126+07:00,540126550250938796,261351,257589,264355,224418
1783264975144328827,2026-07-05T22:22:55.144+07:00,540126550250938796,259692,257882,263667,225655
1783264975162510645,2026-07-05T22:22:55.162+07:00,540126550250938796,258213,258725,265416,224356
1783264975180692463,2026-07-05T22:22:55.180+07:00,540126550250938796,257548,256442,265606,225467
1783264975198874281,2026-07-05T22:22:55.198+07:00,540126550250938796,258798,255114,265411,225201
1783264975217056100,2026-07-05T22:22:55.217+07:00,540126550250938796,260385,257339,263923,225405
1783264975235237918,2026-07-05T22:22:55.235+07:00,540126550250938796,260794,257571,264011,225239
1783264975253419736,2026-07-05T22:22:55.253+07:00,540126550250938796,261932,259257,263162,223648
1783264975271601554,2026-07-05T22:22:55.271+07:00,540126550250938796,258761,257518,265002,225352
1783264975289783372,2026-07-05T22:22:55.289+07:00,540126550250938796,258161,255419,265144,225761
1783264975307965190,2026-07-05T22:22:55.307+07:00,540126550250938796,260635,256154,265386,223490
1783264975326147009,2026-07-05T22:22:55.326+07:00,540126550250938796,260669,256736,264694,224614
1783264975344328827,2026-07-05T22:22:55.344+07:00,540126550250938796,259618,257429,263882,225636
1783264975362510645,2026-07-05T22:22:55.362+07:00,540126550250938796,262020,255829,262229,226335
1783264975380692463,2026-07-05T22:22:55.380+07:00,540126550250938796,261586,257570,264386,223349
1783264975398874281,2026-07-05T22:22:55.398+07:00,540126550250938796,262054,257534,265077,222414
1783264975417056100,2026-07-05T22:22:55.417+07:00,540126550250938796,259409,258463,262852,225130
1783264975435237918,2026-07-05T22:22:55.435+07:00,540126550250938796,259313,258580,262665,225799
1783264975453419736,2026-07-05T22:22:55.453+07:00,540126550250938796,258560,255573,263407,226858
1783264975471601554,2026-07-05T22:22:55.471+07:00,540126550250938796,261269,258195,261586,225260
1783264975396723800,2026-07-05T22:22:55.396+07:00,540126550724480496,261905,258580,263659,223266
1783264975414905618,2026-07-05T22:22:55.414+07:00,540126550724480496,261765,258959,262509,224824
1783264975433087436,2026-07-05T22:22:55.433+07:00,540126550724480496,262053,257025,264169,223547
1783264975451269254,2026-07-05T22:22:55.451+07:00,540126550724480496,262055,255517,264879,222848
1783264975469451072,2026-07-05T22:22:55.469+07:00,540126550724480496,262875,256435,261809,224313
1783264975487632890,2026-07-05T22:22:55.487+07:00,540126550724480496,262413,258247,263591,222646
1783264975505814709,2026-07-05T22:22:55.505+07:00,540126550724480496,262604,258568,264400,222797
1783264975523996527,2026-07-05T22:22:55.523+07:00,540126550724480496,261043,257032,264459,224409
1783264975542178345,2026-07-05T22:22:55.542+07:00,540126550724480496,261758,255821,265021,223224
1783264975560360163,2026-07-05T22:22:55.560+07:00,540126550724480496,258995,254576,264901,225589
1783264975578541981,2026-07-05T22:22:55.578+07:00,540126550724480496,259845,257609,265282,222942
1783264975596723800,2026-07-05T22:22:55.596+07:00,540126550724480496,261005,257930,265618,222104
1783264975614905618,2026-07-05T22:22:55.614+07:00,540126550724480496,260966,258781,262787,224571
1783264975633087436,2026-07-05T22:22:55.633+07:00,540126550724480496,261398,258101,263781,224629
1783264975651269254,2026-07-05T22:22:55.651+07:00,540126550724480496,261560,258057,264043,224740
1783264975669451072,2026-07-05T22:22:55.669+07:00,540126550724480496,261024,256080,264704,226830
1783264975687632890,2026-07-05T22:22:55.687+07:00,540126550724480496,258511,255228,265209,226763
1783264975705814709,2026-07-05T22:22:55.705+07:00,540126550724480496,260616,256488,265528,223680
1783264975723996527,2026-07-05T22:22:55.723+07:00,540126550724480496,260249,256225,264862,224836
1783264975742178345,2026-07-05T22:22:55.742+07:00,540126550724480496,261424,255422,265140,223451
1783264975760360163,2026-07-05T22:22:55.760+07:00,540126550724480496,259549,256396,263311,225689
1783264975778541981,2026-07-05T22:22:55.778+07:00,540126550724480496,257993,257224,265180,225330
1783264975796723800,2026-07-05T22:22:55.796+07:00,540126550724480496,260416,258149,265398,223119
1783264975814905618,2026-07-05T22:22:55.814+07:00,540126550724480496,258562,257697,264090,225388
1783264975833087436,2026-07-05T22:22:55.833+07:00,540126550724480496,259105,257791,263685,225832
1783264975851269254,2026-07-05T22:22:55.851+07:00,540126550724480496,260194,256905,264264,225269
1783264976242421200,2026-07-05T22:22:56.242+07:00,540126551198022204,258057,258394,265801,224610
1783264976260603018,2026-07-05T22:22:56.260+07:00,540126551198022204,258994,258104,266080,223421
1783264976278784836,2026-07-05T22:22:56.278+07:00,540126551198022204,261212,258909,263959,224169
1783264976296966654,2026-07-05T22:22:56.296+07:00,540126551198022204,261760,256734,264851,222945
1783264976315148472,2026-07-05T22:22:56.315+07:00,540126551198022204,261370,257298,264400,224300
1783264976333330290,2026-07-05T22:22:56.333+07:00,540126551198022204,259035,255943,264091,225900
1783264976351512109,2026-07-05T22:22:56.351+07:00,540126551198022204,259920,258321,264827,223080
1783264976369693927,2026-07-05T22:22:56.369+07:00,540126551198022204,260609,258263,262563,225448
1783264976387875745,2026-07-05T22:22:56.387+07:00,540126551198022204,261747,258727,263070,224992
1783264976406057563,2026-07-05T22:22:56.406+07:00,540126551198022204,260345,258879,262082,225791
1783264976424239381,2026-07-05T22:22:56.424+07:00,540126551198022204,258979,259116,261399,226277
1783264976442421200,2026-07-05T22:22:56.442+07:00,540126551198022204,261585,257747,260286,225581
1783264976460603018,2026-07-05T22:22:56.460+07:00,540126551198022204,260218,255517,262356,226828
1783264976478784836,2026-07-05T22:22:56.478+07:00,540126551198022204,261531,257196,264123,223989
1783264976496966654,2026-07-05T22:22:56.496+07:00,540126551198022204,261954,256750,264897,222848
1783264976515148472,2026-07-05T22:22:56.515+07:00,540126551198022204,259538,258133,262543,225135
1783264976533330290,2026-07-05T22:22:56.533+07:00,540126551198022204,260796,256569,264474,223439
1783264976551512109,2026-07-05T22:22:56.551+07:00,540126551198022204,262203,258294,261718,224064
1783264976569693927,2026-07-05T22:22:56.569+07:00,540126551198022204,259324,256032,263021,226075
1783264976587875745,2026-07-05T22:22:56.587+07:00,540126551198022204,260951,257969,262297,225815
1783264976606057563,2026-07-05T22:22:56.606+07:00,540126551198022204,259022,258626,261476,226395
1783264976624239381,2026-07-05T22:22:56.624+07:00,540126551198022204,258352,258870,261361,226565
1783264976642421200,2026-07-05T22:22:56.642+07:00,540126551198022204,259315,259885,262531,223111
1783264976660603018,2026-07-05T22:22:56.660+07:00,540126551198022204,260207,256866,262791,225805
1783264976678784836,2026-07-05T22:22:56.678+07:00,540126551198022204,261233,257376,264491,223230
1783264976696966654,2026-07-05T22:22:56.696+07:00,540126551198022204,261540,255695,265080,222968
1783264976457203800,2026-07-05T22:22:56.457+07:00,540126551671551696,260279,257439,263448,224913
1783264976475385618,2026-07-05T22:22:56.475+07:00,540126551671551696,258658,258278,262366,226144
1783264976493567436,2026-07-05T22:22:56.493+07:00,540126551671551696,261557,256724,261553,226498
1783264976511749254,2026-07-05T22:22:56.511+07:00,540126551671551696,259112,255342,263924,226353
1783264976529931072,2026-07-05T22:22:56.529+07:00,540126551671551696,259117,257634,261991,226730
1783264976548112890,2026-07-05T22:22:56.548+07:00,540126551671551696,260174,256608,263623,225521
1783264976566294709,2026-07-05T22:22:56.566+07:00,540126551671551696,261280,256585,264424,224383
1783264976584476527,2026-07-05T22:22:56.584+07:00,540126551671551696,261729,255186,264599,226628
1783264976602658345,2026-07-05T22:22:56.602+07:00,540126551671551696,261924,257958,264310,223651
1783264976620840163,2026-07-05T22:22:56.620+07:00,540126551671551696,259130,256760,263804,225823
1783264976639021981,2026-07-05T22:22:56.639+07:00,540126551671551696,259507,258269,261929,226254
1783264976657203800,2026-07-05T22:22:56.657+07:00,540126551671551696,260882,256731,263813,224544
1783264976675385618,2026-07-05T22:22:56.675+07:00,540126551671551696,261750,257209,264646,223490
1783264976693567436,2026-07-05T22:22:56.693+07:00,540126551671551696,258728,257775,265847,224582
1783264976711749254,2026-07-05T22:22:56.711+07:00,540126551671551696,260764,258365,262518,225858
1783264976729931072,2026-07-05T22:22:56.729+07:00,540126551671551696,261884,258763,263137,225081
1783264976748112890,2026-07-05T22:22:56.748+07:00,540126551671551696,260173,258997,261873,225965
1783264976766294709,2026-07-05T22:22:56.766+07:00,540126551671551696,258715,259071,261296,226424
1783264976784476527,2026-07-05T22:22:56.784+07:00,540126551671551696,261526,257390,260314,225720
1783264976802658345,2026-07-05T22:22:56.802+07:00,540126551671551696,258643,256211,263594,226355
1783264976820840163,2026-07-05T22:22:56.820+07:00,540126551671551696,260677,258179,261559,226332
1783264976839021981,2026-07-05T22:22:56.839+07:00,540126551671551696,260533,258886,261197,226389
1783264976857203800,2026-07-05T22:22:56.857+07:00,540126551671551696,261480,256430,263579,224060
1783264976875385618,2026-07-05T22:22:56.875+07:00,540126551671551696,261948,256319,264760,222793
1783264976893567436,2026-07-05T22:22:56.893+07:00,540126551671551696,260932,254845,264668,225944
1783264976911749254,2026-07-05T22:22:56.911+07:00,540126551671551696,261923,257698,264187,224004
1783264976852454700,2026-07-05T22:22:56.852+07:00,540126552145075086,261526,256145,265070,223345
1783264976870636518,2026-07-05T22:22:56.870+07:00,540126552145075086,261293,255645,264960,223973
1783264976888818336,2026-07-05T22:22:56.888+07:00,540126552145075086,259791,257486,263336,225414
1783264976907000154,2026-07-05T22:22:56.907+07:00,540126552145075086,260982,259278,262496,223133
1783264976925181972,2026-07-05T22:22:56.925+07:00,540126552145075086,259300,255955,263879,225973
1783264976943363790,2026-07-05T22:22:56.943+07:00,540126552145075086,261431,258187,262547,225465
1783264976961545609,2026-07-05T22:22:56.961+07:00,540126552145075086,261991,258105,263829,224315
1783264976979727427,2026-07-05T22:22:56.979+07:00,540126552145075086,259739,258645,262644,225692
1783264976997909245,2026-07-05T22:22:56.997+07:00,540126552145075086,259011,259033,261392,226272
1783264977016091063,2026-07-05T22:22:57.016+07:00,540126552145075086,258277,257002,263991,227198
1783264977034272881,2026-07-05T22:22:57.034+07:00,540126552145075086,261127,258728,262776,225349
1783264977052454700,2026-07-05T22:22:57.052+07:00,540126552145075086,261801,257853,264487,223212
1783264977070636518,2026-07-05T22:22:57.070+07:00,540126552145075086,261443,258367,263623,224642
1783264977088818336,2026-07-05T22:22:57.088+07:00,540126552145075086,259438,258763,262060,225810
1783264977107000154,2026-07-05T22:22:57.107+07:00,540126552145075086,259762,259650,264422,223240
1783264977125181972,2026-07-05T22:22:57.125+07:00,540126552145075086,259831,256061,264077,225947
1783264977143363790,2026-07-05T22:22:57.143+07:00,540126552145075086,259966,257496,262381,226660
1783264977161545609,2026-07-05T22:22:57.161+07:00,540126552145075086,258719,257338,263057,226688
1783264977179727427,2026-07-05T22:22:57.179+07:00,540126552145075086,260046,257765,263487,225886
1783264977197909245,2026-07-05T22:22:57.197+07:00,540126552145075086,261420,257434,264514,224284
1783264977216091063,2026-07-05T22:22:57.216+07:00,540126552145075086,262364,258337,261636,224262
1783264977234272881,2026-07-05T22:22:57.234+07:00,540126552145075086,261647,258470,264223,222582
1783264977252454700,2026-07-05T22:22:57.252+07:00,540126552145075086,261596,257085,265084,222256
1783264977270636518,2026-07-05T22:22:57.270+07:00,540126552145075086,260968,258276,263072,224585
1783264977288818336,2026-07-05T22:22:57.288+07:00,540126552145075086,260637,258334,263164,225325
1783264977307000154,2026-07-05T22:22:57.307+07:00,540126552145075086,262039,257456,261378,225941
1783264977536912900,2026-07-05T22:22:57.536+07:00,540126552618616794,260619,258345,264257,223497
1783264977555094718,2026-07-05T22:22:57.555+07:00,540126552618616794,259284,255854,264987,224860
1783264977573276536,2026-07-05T22:22:57.573+07:00,540126552618616794,260433,254959,265298,223892
1783264977591458354,2026-07-05T22:22:57.591+07:00,540126552618616794,259023,257387,262703,225535
1783264977609640172,2026-07-05T22:22:57.609+07:00,540126552618616794,260996,257120,264187,223956
1783264977627821990,2026-07-05T22:22:57.627+07:00,540126552618616794,259260,258847,265421,222842
1783264977646003809,2026-07-05T22:22:57.646+07:00,540126552618616794,259548,256596,263927,225576
1783264977664185627,2026-07-05T22:22:57.664+07:00,540126552618616794,261046,258397,262072,225907
1783264977682367445,2026-07-05T22:22:57.682+07:00,540126552618616794,259996,257620,263134,225953
1783264977700549263,2026-07-05T22:22:57.700+07:00,540126552618616794,259357,258316,262628,226217
1783264977718731081,2026-07-05T22:22:57.718+07:00,540126552618616794,261405,257571,261266,226501
1783264977736912900,2026-07-05T22:22:57.736+07:00,540126552618616794,258487,257222,264273,226272
1783264977755094718,2026-07-05T22:22:57.755+07:00,540126552618616794,258503,255733,265060,225659
1783264977773276536,2026-07-05T22:22:57.773+07:00,540126552618616794,260521,257853,263131,225660
1783264977791458354,2026-07-05T22:22:57.791+07:00,540126552618616794,260204,258418,262575,225911
1783264977809640172,2026-07-05T22:22:57.809+07:00,540126552618616794,258636,258684,261969,226405
1783264977827821990,2026-07-05T22:22:57.827+07:00,540126552618616794,258089,257347,264457,227176
1783264977846003809,2026-07-05T22:22:57.846+07:00,540126552618616794,259903,258208,265267,223709
1783264977864185627,2026-07-05T22:22:57.864+07:00,540126552618616794,258251,256868,264317,225649
1783264977882367445,2026-07-05T22:22:57.882+07:00,540126552618616794,257910,257863,263059,226285
1783264977900549263,2026-07-05T22:22:57.900+07:00,540126552618616794,259465,258025,263301,225874
1783264977918731081,2026-07-05T22:22:57.918+07:00,540126552618616794,258262,256631,264832,225985
1783264977936912900,2026-07-05T22:22:57.936+07:00,540126552618616794,259070,258209,265622,223430
1783264977955094718,2026-07-05T22:22:57.955+07:00,540126552618616794,257865,255739,265063,225618
1783264977973276536,2026-07-05T22:22:57.973+07:00,540126552618616794,258454,255676,264684,225912
1783264977991458354,2026-07-05T22:22:57.991+07:00,540126552618616794,260556,256091,264818,224359
1783264977936940800,2026-07-05T22:22:57.936+07:00,540126553092158494,259301,257953,262412,225709
1783264977955122618,2026-07-05T22:22:57.955+07:00,540126553092158494,261621,255216,262928,226831
1783264977973304436,2026-07-05T22:22:57.973+07:00,540126553092158494,261312,257459,264574,223520
1783264977991486254,2026-07-05T22:22:57.991+07:00,540126553092158494,262104,258271,264526,223241
1783264978009668072,2026-07-05T22:22:58.009+07:00,540126553092158494,261651,256057,264891,223457
1783264978027849890,2026-07-05T22:22:58.027+07:00,540126553092158494,261733,256256,264904,223670
1783264978046031709,2026-07-05T22:22:58.046+07:00,540126553092158494,260777,256637,265623,223512
1783264978064213527,2026-07-05T22:22:58.064+07:00,540126553092158494,262295,257731,262109,224842
1783264978082395345,2026-07-05T22:22:58.082+07:00,540126553092158494,261834,258517,261084,225950
1783264978100577163,2026-07-05T22:22:58.100+07:00,540126553092158494,261841,256768,263805,223608
1783264978118758981,2026-07-05T22:22:58.118+07:00,540126553092158494,261940,255508,264666,223093
1783264978136940800,2026-07-05T22:22:58.136+07:00,540126553092158494,261831,255021,265017,223120
1783264978155122618,2026-07-05T22:22:58.155+07:00,540126553092158494,262725,256640,261761,224244
1783264978173304436,2026-07-05T22:22:58.173+07:00,540126553092158494,262648,258513,262634,223304
1783264978191486254,2026-07-05T22:22:58.191+07:00,540126553092158494,262541,259063,261999,224523
1783264978209668072,2026-07-05T22:22:58.209+07:00,540126553092158494,261637,256473,263838,224343
1783264978227849890,2026-07-05T22:22:58.227+07:00,540126553092158494,261856,255590,264618,223340
1783264978246031709,2026-07-05T22:22:58.246+07:00,540126553092158494,259969,256368,263122,225656
1783264978264213527,2026-07-05T22:22:58.264+07:00,540126553092158494,258947,257831,265160,223972
1783264978282395345,2026-07-05T22:22:58.282+07:00,540126553092158494,260870,258552,265169,222629
1783264978300577163,2026-07-05T22:22:58.300+07:00,540126553092158494,258992,258684,263033,225255
1783264978318758981,2026-07-05T22:22:58.318+07:00,540126553092158494,258200,258823,262093,226198
1783264978336940800,2026-07-05T22:22:58.336+07:00,540126553092158494,257924,258923,261596,226472
1783264978355122618,2026-07-05T22:22:58.355+07:00,540126553092158494,259951,256063,263544,227431
1783264978373304436,2026-07-05T22:22:58.373+07:00,540126553092158494,259160,254801,263771,227617
1783264978391486254,2026-07-05T22:22:58.391+07:00,540126553092158494,259859,254904,264947,225221
1783264978347054300,2026-07-05T22:22:58.347+07:00,540126553565700194,259012,256419,264097,225941
1783264978365236118,2026-07-05T22:22:58.365+07:00,540126553565700194,260767,256165,264667,224442
1783264978383417936,2026-07-05T22:22:58.383+07:00,540126553565700194,258795,256094,263656,226116
1783264978401599754,2026-07-05T22:22:58.401+07:00,540126553565700194,259743,258314,264873,223199
1783264978419781572,2026-07-05T22:22:58.419+07:00,540126553565700194,261627,259094,263120,223965
1783264978437963390,2026-07-05T22:22:58.437+07:00,540126553565700194,259162,258671,262517,225791
1783264978456145209,2026-07-05T22:22:58.456+07:00,540126553565700194,258296,258912,261561,226390
1783264978474327027,2026-07-05T22:22:58.474+07:00,540126553565700194,257929,259016,261373,226544
1783264978492508845,2026-07-05T22:22:58.492+07:00,540126553565700194,260814,255730,262921,227372
1783264978510690663,2026-07-05T22:22:58.510+07:00,540126553565700194,259384,256544,264878,225397
1783264978528872481,2026-07-05T22:22:58.528+07:00,540126553565700194,261371,257965,264578,224065
1783264978547054300,2026-07-05T22:22:58.547+07:00,540126553565700194,260648,256442,264565,224768
1783264978565236118,2026-07-05T22:22:58.565+07:00,540126553565700194,261588,255636,264973,223468
1783264978583417936,2026-07-05T22:22:58.583+07:00,540126553565700194,259618,257367,262752,225530
1783264978601599754,2026-07-05T22:22:58.601+07:00,540126553565700194,257833,257383,264970,225579
1783264978619781572,2026-07-05T22:22:58.619+07:00,540126553565700194,260948,258822,263186,224843
1783264978637963390,2026-07-05T22:22:58.637+07:00,540126553565700194,260683,256132,264474,224427
1783264978656145209,2026-07-05T22:22:58.656+07:00,540126553565700194,261335,255206,264983,223352
1783264978674327027,2026-07-05T22:22:58.674+07:00,540126553565700194,261693,254889,265181,223088
1783264978692508845,2026-07-05T22:22:58.692+07:00,540126553565700194,260789,255171,265375,226159
1783264978710690663,2026-07-05T22:22:58.710+07:00,540126553565700194,260180,256987,265889,223866
1783264978728872481,2026-07-05T22:22:58.728+07:00,540126553565700194,261500,258562,262823,225199
1783264978747054300,2026-07-05T22:22:58.747+07:00,540126553565700194,261544,256059,264381,223809
1783264978765236118,2026-07-05T22:22:58.765+07:00,540126553565700194,261918,255687,264834,223281
1783264978783417936,2026-07-05T22:22:58.783+07:00,540126553565700194,262231,257521,264780,223292
1783264978801599754,2026-07-05T22:22:58.801+07:00,540126553565700194,262139,259186,263338,222578
1783264978787130600,2026-07-05T22:22:58.787+07:00,540126554039214426,261863,258745,261710,225131
1783264978805312418,2026-07-05T22:22:58.805+07:00,540126554039214426,262077,257823,264003,223197
1783264978823494236,2026-07-05T22:22:58.823+07:00,540126554039214426,262116,257362,264509,223523
1783264978841676054,2026-07-05T22:22:58.841+07:00,540126554039214426,262149,256212,265003,222899
1783264978859857872,2026-07-05T22:22:58.859+07:00,540126554039214426,260455,256337,265561,226021
1783264978878039690,2026-07-05T22:22:58.878+07:00,540126554039214426,261694,258503,264125,223946
1783264978896221509,2026-07-05T22:22:58.896+07:00,540126554039214426,259362,255806,264569,225385
1783264978914403327,2026-07-05T22:22:58.914+07:00,540126554039214426,258211,257559,263184,226313
1783264978932585145,2026-07-05T22:22:58.932+07:00,540126554039214426,260414,256418,264283,224534
1783264978950766963,2026-07-05T22:22:58.950+07:00,540126554039214426,261489,256621,265166,222952
1783264978968948781,2026-07-05T22:22:58.968+07:00,540126554039214426,259889,258299,265810,222299
1783264978987130600,2026-07-05T22:22:58.987+07:00,540126554039214426,261739,259171,264012,223124
1783264979005312418,2026-07-05T22:22:59.005+07:00,540126554039214426,259261,257414,263930,225344
1783264979023494236,2026-07-05T22:22:59.023+07:00,540126554039214426,259332,257708,263746,225812
1783264979041676054,2026-07-05T22:22:59.041+07:00,540126554039214426,258387,258509,262036,226338
1783264979059857872,2026-07-05T22:22:59.059+07:00,540126554039214426,257405,258488,264859,226453
1783264979078039690,2026-07-05T22:22:59.078+07:00,540126554039214426,260669,259456,262781,224821
1783264979096221509,2026-07-05T22:22:59.096+07:00,540126554039214426,258821,256303,264033,225875
1783264979114403327,2026-07-05T22:22:59.114+07:00,540126554039214426,259687,258015,262135,226143
1783264979132585145,2026-07-05T22:22:59.132+07:00,540126554039214426,259005,258546,261779,226318
1783264979150766963,2026-07-05T22:22:59.150+07:00,540126554039214426,260842,258587,263061,225118
1783264979168948781,2026-07-05T22:22:59.168+07:00,540126554039214426,258418,257414,264903,226274
1783264979187130600,2026-07-05T22:22:59.187+07:00,540126554039214426,260717,258508,264909,223598
1783264979205312418,2026-07-05T22:22:59.205+07:00,540126554039214426,258781,256890,264284,225370
1783264979223494236,2026-07-05T22:22:59.223+07:00,540126554039214426,260096,256129,264585,224866
1783264979241676054,2026-07-05T22:22:59.241+07:00,540126554039214426,259821,257341,263778,225528
1783264979442534800,2026-07-05T22:22:59.442+07:00,540126554512777498,259408,256873,265106,227070
1783264979460716618,2026-07-05T22:22:59.460+07:00,540126554512777498,261093,258703,264264,224015
1783264979478898436,2026-07-05T22:22:59.478+07:00,540126554512777498,258904,255940,264557,225555
1783264979497080254,2026-07-05T22:22:59.497+07:00,540126554512777498,259766,255201,264742,225094
1783264979515262072,2026-07-05T22:22:59.515+07:00,540126554512777498,259550,257201,263250,225753
1783264979533443890,2026-07-05T22:22:59.533+07:00,540126554512777498,260707,258276,262876,225540
1783264979551625709,2026-07-05T22:22:59.551+07:00,540126554512777498,258181,257832,265007,225915
1783264979569807527,2026-07-05T22:22:59.569+07:00,540126554512777498,261058,258996,262322,225528
1783264979587989345,2026-07-05T22:22:59.587+07:00,540126554512777498,261913,258589,263759,223968
1783264979606171163,2026-07-05T22:22:59.606+07:00,540126554512777498,260284,258867,262110,225441
1783264979624352981,2026-07-05T22:22:59.624+07:00,540126554512777498,258797,258903,261289,226101
1783264979642534800,2026-07-05T22:22:59.642+07:00,540126554512777498,261486,257238,260324,225619
1783264979660716618,2026-07-05T22:22:59.660+07:00,540126554512777498,259987,257749,263897,223980
1783264979678898436,2026-07-05T22:22:59.678+07:00,540126554512777498,258259,256268,263872,225869
1783264979697080254,2026-07-05T22:22:59.697+07:00,540126554512777498,258584,256473,263941,226113
1783264979715262072,2026-07-05T22:22:59.715+07:00,540126554512777498,258849,257787,262666,226203
1783264979733443890,2026-07-05T22:22:59.733+07:00,540126554512777498,258713,258702,261406,226531
1783264979751625709,2026-07-05T22:22:59.751+07:00,540126554512777498,258689,259248,264239,223652
1783264979769807527,2026-07-05T22:22:59.769+07:00,540126554512777498,257636,255951,264538,225801
1783264979787989345,2026-07-05T22:22:59.787+07:00,540126554512777498,257688,255638,264346,226229
1783264979806171163,2026-07-05T22:22:59.806+07:00,540126554512777498,260375,256176,264789,224158
1783264979824352981,2026-07-05T22:22:59.824+07:00,540126554512777498,261426,255869,265060,223310
1783264979842534800,2026-07-05T22:22:59.842+07:00,540126554512777498,261941,254301,263725,225795
1783264979860716618,2026-07-05T22:22:59.860+07:00,540126554512777498,261642,257513,264437,223069
1783264979878898436,2026-07-05T22:22:59.878+07:00,540126554512777498,261119,256816,265343,222814
1783264979897080254,2026-07-05T22:22:59.897+07:00,540126554512777498,260589,258314,262506,224964
1783264979870656800,2026-07-05T22:22:59.870+07:00,540126554986294784,261575,256335,264150,223362
1783264979888838618,2026-07-05T22:22:59.888+07:00,540126554986294784,261625,255199,264940,222965
1783264979907020436,2026-07-05T22:22:59.907+07:00,540126554986294784,260518,258198,265098,221850
1783264979925202254,2026-07-05T22:22:59.925+07:00,540126554986294784,259886,256396,263789,225221
1783264979943384072,2026-07-05T22:22:59.943+07:00,540126554986294784,260999,258278,261991,225707
1783264979961565890,2026-07-05T22:22:59.961+07:00,540126554986294784,259480,258141,262716,226158
1783264979979747709,2026-07-05T22:22:59.979+07:00,540126554986294784,258991,258438,262385,226242
1783264979997929527,2026-07-05T22:22:59.997+07:00,540126554986294784,260697,259759,262914,223367
1783264980016111345,2026-07-05T22:23:00.016+07:00,540126554986294784,260358,259487,264713,222228
1783264980034293163,2026-07-05T22:23:00.034+07:00,540126554986294784,261612,259559,262076,224436
1783264980052474981,2026-07-05T22:23:00.052+07:00,540126554986294784,262055,258970,263172,224413
1783264980070656800,2026-07-05T22:23:00.070+07:00,540126554986294784,260827,258360,263422,225233
1783264980088838618,2026-07-05T22:23:00.088+07:00,540126554986294784,259667,258916,261749,226029
1783264980107020436,2026-07-05T22:23:00.107+07:00,540126554986294784,261112,259737,261462,223804
1783264980125202254,2026-07-05T22:23:00.125+07:00,540126554986294784,261583,258552,261150,225730
1783264980143384072,2026-07-05T22:23:00.143+07:00,540126554986294784,260856,256134,263784,224602
1783264980161565890,2026-07-05T22:23:00.161+07:00,540126554986294784,260283,256302,264016,225291
1783264980179747709,2026-07-05T22:23:00.179+07:00,540126554986294784,258765,257891,262140,226084
1783264980197929527,2026-07-05T22:23:00.197+07:00,540126554986294784,261108,256219,261510,226531
1783264980216111345,2026-07-05T22:23:00.216+07:00,540126554986294784,258398,255999,264190,226529
1783264980234293163,2026-07-05T22:23:00.234+07:00,540126554986294784,257612,254987,264351,226723
1783264980252474981,2026-07-05T22:23:00.252+07:00,540126554986294784,260323,255563,265017,223848
1783264980270656800,2026-07-05T22:23:00.270+07:00,540126554986294784,260954,255849,264811,223968
1783264980288838618,2026-07-05T22:23:00.288+07:00,540126554986294784,261029,255299,264914,224180
1783264980307020436,2026-07-05T22:23:00.307+07:00,540126554986294784,260664,258283,264428,222197
1783264980325202254,2026-07-05T22:23:00.325+07:00,540126554986294784,261911,259150,263368,222761
1783264980099504200,2026-07-05T22:23:00.099+07:00,540126555459836484,261171,259294,261500,225005
1783264980117686018,2026-07-05T22:23:00.117+07:00,540126555459836484,261704,256522,263839,223337
1783264980135867836,2026-07-05T22:23:00.135+07:00,540126555459836484,261781,256282,264491,223425
1783264980154049654,2026-07-05T22:23:00.154+07:00,540126555459836484,262368,258677,262414,223653
1783264980172231472,2026-07-05T22:23:00.172+07:00,540126555459836484,259196,256286,264240,225903
1783264980190413290,2026-07-05T22:23:00.190+07:00,540126555459836484,258091,255670,263817,226739
1783264980208595109,2026-07-05T22:23:00.208+07:00,540126555459836484,259332,254911,264571,225463
1783264980226776927,2026-07-05T22:23:00.226+07:00,540126555459836484,260030,256556,264232,225557
1783264980244958745,2026-07-05T22:23:00.244+07:00,540126555459836484,260958,255287,264852,224053
1783264980263140563,2026-07-05T22:23:00.263+07:00,540126555459836484,260688,258303,264342,222201
1783264980281322381,2026-07-05T22:23:00.281+07:00,540126555459836484,261283,258731,264938,221650
1783264980299504200,2026-07-05T22:23:00.299+07:00,540126555459836484,261992,258869,264206,223038
1783264980317686018,2026-07-05T22:23:00.317+07:00,540126555459836484,259479,258655,263095,225218
1783264980335867836,2026-07-05T22:23:00.335+07:00,540126555459836484,259240,258584,262661,225859
1783264980354049654,2026-07-05T22:23:00.354+07:00,540126555459836484,259179,255901,262930,226740
1783264980372231472,2026-07-05T22:23:00.372+07:00,540126555459836484,261632,257870,261035,225843
1783264980390413290,2026-07-05T22:23:00.390+07:00,540126555459836484,261538,258539,260599,226359
1783264980408595109,2026-07-05T22:23:00.408+07:00,540126555459836484,260980,255926,263330,224930
1783264980426776927,2026-07-05T22:23:00.426+07:00,540126555459836484,259793,257504,262946,225786
1783264980444958745,2026-07-05T22:23:00.444+07:00,540126555459836484,258418,258378,261893,226344
1783264980463140563,2026-07-05T22:23:00.463+07:00,540126555459836484,260520,259522,261556,223835
1783264980481322381,2026-07-05T22:23:00.481+07:00,540126555459836484,261650,259642,262853,222845
1783264980499504200,2026-07-05T22:23:00.499+07:00,540126555459836484,260947,259461,261318,225157
1783264980517686018,2026-07-05T22:23:00.517+07:00,540126555459836484,261662,258451,263269,224470
1783264980535867836,2026-07-05T22:23:00.535+07:00,540126555459836484,260135,258625,262585,225567
1783264980554049654,2026-07-05T22:23:00.554+07:00,540126555459836484,261440,259308,263621,223480
1783264980967012200,2026-07-05T22:23:00.967+07:00,540126555933347674,259720,255956,264282,226048
1783264980985194018,2026-07-05T22:23:00.985+07:00,540126555933347674,258000,254777,264373,226668
1783264981003375836,2026-07-05T22:23:01.003+07:00,540126555933347674,260198,254934,265155,224135
1783264981021557654,2026-07-05T22:23:01.021+07:00,540126555933347674,260762,255528,264798,224220
1783264981039739472,2026-07-05T22:23:01.039+07:00,540126555933347674,259020,257495,263021,225613
1783264981057921290,2026-07-05T22:23:01.057+07:00,540126555933347674,259662,259224,263602,222840
1783264981076103109,2026-07-05T22:23:01.076+07:00,540126555933347674,261171,259496,264101,222191
1783264981094284927,2026-07-05T22:23:01.094+07:00,540126555933347674,261327,259471,261820,224692
1783264981112466745,2026-07-05T22:23:01.112+07:00,540126555933347674,261911,258254,263610,223968
1783264981130648563,2026-07-05T22:23:01.130+07:00,540126555933347674,259562,258724,262127,225593
1783264981148830381,2026-07-05T22:23:01.148+07:00,540126555933347674,261284,259226,263381,223677
1783264981167012200,2026-07-05T22:23:01.167+07:00,540126555933347674,261305,255993,263228,226071
1783264981185194018,2026-07-05T22:23:01.185+07:00,540126555933347674,258792,255239,263579,226757
1783264981203375836,2026-07-05T22:23:01.203+07:00,540126555933347674,260982,257230,263841,225208
1783264981221557654,2026-07-05T22:23:01.221+07:00,540126555933347674,261323,257536,264108,224971
1783264981239739472,2026-07-05T22:23:01.239+07:00,540126555933347674,261829,256999,264714,223885
1783264981257921290,2026-07-05T22:23:01.257+07:00,540126555933347674,262913,255093,263093,225783
1783264981276103109,2026-07-05T22:23:01.276+07:00,540126555933347674,262946,257319,261298,226059
1783264981294284927,2026-07-05T22:23:01.294+07:00,540126555933347674,261800,258491,260702,226377
1783264981312466745,2026-07-05T22:23:01.312+07:00,540126555933347674,261904,256200,263526,223997
1783264981330648563,2026-07-05T22:23:01.330+07:00,540126555933347674,261687,256677,264127,224179
1783264981348830381,2026-07-05T22:23:01.348+07:00,540126555933347674,260755,256081,265193,224094
1783264981367012200,2026-07-05T22:23:01.367+07:00,540126555933347674,262166,255778,262883,225826
1783264981385194018,2026-07-05T22:23:01.385+07:00,540126555933347674,259731,254975,264475,225671
1783264981403375836,2026-07-05T22:23:01.403+07:00,540126555933347674,259540,257575,262126,226338
1783264981421557654,2026-07-05T22:23:01.421+07:00,540126555933347674,259173,258050,262560,226359
1783264981181852900,2026-07-05T22:23:01.181+07:00,540126556406877166,260272,256875,263806,225448
1783264981200034718,2026-07-05T22:23:01.200+07:00,540126556406877166,260629,259034,263110,222872
1783264981218216536,2026-07-05T22:23:01.218+07:00,540126556406877166,261930,258662,261418,225065
1783264981236398354,2026-07-05T22:23:01.236+07:00,540126556406877166,259968,255820,263532,225503
1783264981254580172,2026-07-05T22:23:01.254+07:00,540126556406877166,258967,257842,261764,226228
1783264981272761990,2026-07-05T22:23:01.272+07:00,540126556406877166,260794,256015,263884,224010
1783264981290943809,2026-07-05T22:23:01.290+07:00,540126556406877166,258769,255986,263416,225913
1783264981309125627,2026-07-05T22:23:01.309+07:00,540126556406877166,259175,257990,264991,223317
1783264981327307445,2026-07-05T22:23:01.327+07:00,540126556406877166,261374,259059,262931,224017
1783264981345489263,2026-07-05T22:23:01.345+07:00,540126556406877166,260461,256236,264239,224641
1783264981363671081,2026-07-05T22:23:01.363+07:00,540126556406877166,261292,255294,264768,223486
1783264981381852900,2026-07-05T22:23:01.381+07:00,540126556406877166,261904,255128,265141,222726
1783264981400034718,2026-07-05T22:23:01.400+07:00,540126556406877166,260791,258388,264468,221651
1783264981418216536,2026-07-05T22:23:01.418+07:00,540126556406877166,262189,259018,261694,224038
1783264981436398354,2026-07-05T22:23:01.436+07:00,540126556406877166,260161,256020,263804,224906
1783264981454580172,2026-07-05T22:23:01.454+07:00,540126556406877166,258714,257221,263284,225918
1783264981472761990,2026-07-05T22:23:01.472+07:00,540126556406877166,260540,256616,264260,224587
1783264981490943809,2026-07-05T22:23:01.490+07:00,540126556406877166,259964,254960,264846,225045
1783264981509125627,2026-07-05T22:23:01.509+07:00,540126556406877166,261384,258092,263191,223391
1783264981527307445,2026-07-05T22:23:01.527+07:00,540126556406877166,261824,258776,261337,225170
1783264981545489263,2026-07-05T22:23:01.545+07:00,540126556406877166,261815,256725,263917,223436
1783264981563671081,2026-07-05T22:23:01.563+07:00,540126556406877166,262024,255567,264794,222592
1783264981581852900,2026-07-05T22:23:01.581+07:00,540126556406877166,262135,255644,265108,222576
1783264981600034718,2026-07-05T22:23:01.600+07:00,540126556406877166,258829,257375,266187,224737
1783264981618216536,2026-07-05T22:23:01.618+07:00,540126556406877166,260591,258731,265139,222820
1783264981636398354,2026-07-05T22:23:01.636+07:00,540126556406877166,258976,257863,263558,225492
1783264981603260400,2026-07-05T22:23:01.603+07:00,540126556880400556,260868,258298,263656,225115
1783264981621442218,2026-07-05T22:23:01.621+07:00,540126556880400556,259025,258750,261969,226040
1783264981639624036,2026-07-05T22:23:01.639+07:00,540126556880400556,258974,256156,263497,226061
1783264981657805854,2026-07-05T22:23:01.657+07:00,540126556880400556,257617,257059,265253,225736
1783264981675987672,2026-07-05T22:23:01.675+07:00,540126556880400556,260604,258473,264360,223959
1783264981694169490,2026-07-05T22:23:01.694+07:00,540126556880400556,259089,256686,264275,225438
1783264981712351309,2026-07-05T22:23:01.712+07:00,540126556880400556,259959,256579,264320,225306
1783264981730533127,2026-07-05T22:23:01.730+07:00,540126556880400556,260268,257018,264163,225444
1783264981748714945,2026-07-05T22:23:01.748+07:00,540126556880400556,262119,256576,261554,225384
1783264981766896763,2026-07-05T22:23:01.766+07:00,540126556880400556,259387,254817,263410,226746
1783264981785078581,2026-07-05T22:23:01.785+07:00,540126556880400556,261296,257148,264244,224340
1783264981803260400,2026-07-05T22:23:01.803+07:00,540126556880400556,261930,257299,264674,223630
1783264981821442218,2026-07-05T22:23:01.821+07:00,540126556880400556,260154,258153,263069,225214
1783264981839624036,2026-07-05T22:23:01.839+07:00,540126556880400556,259355,258822,261467,226096
1783264981857805854,2026-07-05T22:23:01.857+07:00,540126556880400556,260657,255650,262900,227097
1783264981875987672,2026-07-05T22:23:01.875+07:00,540126556880400556,261512,257532,264287,223831
1783264981894169490,2026-07-05T22:23:01.894+07:00,540126556880400556,260092,255809,264677,224946
1783264981912351309,2026-07-05T22:23:01.912+07:00,540126556880400556,260620,255744,264695,224714
1783264981930533127,2026-07-05T22:23:01.930+07:00,540126556880400556,259276,257620,263031,225849
1783264981948714945,2026-07-05T22:23:01.948+07:00,540126556880400556,260027,256477,264592,227326
1783264981966896763,2026-07-05T22:23:01.966+07:00,540126556880400556,260323,257993,265456,223903
1783264981985078581,2026-07-05T22:23:01.985+07:00,540126556880400556,260148,258425,262855,225824
1783264982003260400,2026-07-05T22:23:02.003+07:00,540126556880400556,261186,258580,262992,225405
1783264982021442218,2026-07-05T22:23:02.021+07:00,540126556880400556,259298,258809,261977,226169
1783264982039624036,2026-07-05T22:23:02.039+07:00,540126556880400556,258149,258572,262102,226651
1783264982057805854,2026-07-05T22:23:02.057+07:00,540126556880400556,259976,255478,263165,227405
1783264982262019500,2026-07-05T22:23:02.262+07:00,540126557353911746,261783,258048,261645,226199
1783264982280201318,2026-07-05T22:23:02.280+07:00,540126557353911746,262244,258230,263480,224412
1783264982298383136,2026-07-05T22:23:02.298+07:00,540126557353911746,260929,258634,262479,225374
1783264982316564954,2026-07-05T22:23:02.316+07:00,540126557353911746,260598,258553,262760,225594
1783264982334746772,2026-07-05T22:23:02.334+07:00,540126557353911746,262292,256506,261190,225642
1783264982352928590,2026-07-05T22:23:02.352+07:00,540126557353911746,259389,256749,264246,225194
1783264982371110409,2026-07-05T22:23:02.371+07:00,540126557353911746,260985,258473,261915,225850
1783264982389292227,2026-07-05T22:23:02.389+07:00,540126557353911746,261734,258550,262973,225255
1783264982407474045,2026-07-05T22:23:02.407+07:00,540126557353911746,260517,258396,263058,225739
1783264982425655863,2026-07-05T22:23:02.425+07:00,540126557353911746,258743,258417,262630,226436
1783264982443837681,2026-07-05T22:23:02.443+07:00,540126557353911746,260733,259580,262115,223870
1783264982462019500,2026-07-05T22:23:02.462+07:00,540126557353911746,258526,256375,264050,225603
1783264982480201318,2026-07-05T22:23:02.480+07:00,540126557353911746,258570,255456,264413,226000
1783264982498383136,2026-07-05T22:23:02.498+07:00,540126557353911746,260729,256406,264717,224498
1783264982516564954,2026-07-05T22:23:02.516+07:00,540126557353911746,261228,256932,264564,224466
1783264982534746772,2026-07-05T22:23:02.534+07:00,540126557353911746,258980,258685,265837,223811
1783264982552928590,2026-07-05T22:23:02.552+07:00,540126557353911746,261508,258665,262306,225083
1783264982571110409,2026-07-05T22:23:02.571+07:00,540126557353911746,260704,256713,264414,224192
1783264982589292227,2026-07-05T22:23:02.589+07:00,540126557353911746,260651,255484,264755,224521
1783264982607474045,2026-07-05T22:23:02.607+07:00,540126557353911746,259563,257552,262979,225710
1783264982625655863,2026-07-05T22:23:02.625+07:00,540126557353911746,259136,258636,261562,226376
1783264982643837681,2026-07-05T22:23:02.643+07:00,540126557353911746,258204,259035,264660,224467
1783264982662019500,2026-07-05T22:23:02.662+07:00,540126557353911746,260869,259182,261872,225562
1783264982680201318,2026-07-05T22:23:02.680+07:00,540126557353911746,261832,258424,263926,223522
1783264982698383136,2026-07-05T22:23:02.698+07:00,540126557353911746,262094,257615,264577,223346
1783264982716564954,2026-07-05T22:23:02.716+07:00,540126557353911746,261390,257251,264529,224346
1783264982682927100,2026-07-05T22:23:02.682+07:00,540126557827334424,258527,258030,265903,225398
1783264982701108918,2026-07-05T22:23:02.701+07:00,540126557827334424,258425,258022,266211,224322
1783264982719290736,2026-07-05T22:23:02.719+07:00,540126557827334424,261024,258862,264325,224156
1783264982737472554,2026-07-05T22:23:02.737+07:00,540126557827334424,261476,256606,265141,223001
1783264982755654372,2026-07-05T22:23:02.755+07:00,540126557827334424,261173,257532,264256,224528
1783264982773836190,2026-07-05T22:23:02.773+07:00,540126557827334424,261865,257153,264933,223209
1783264982792018009,2026-07-05T22:23:02.792+07:00,540126557827334424,262869,257677,261852,224527
1783264982810199827,2026-07-05T22:23:02.810+07:00,540126557827334424,259378,255408,263509,226232
1783264982828381645,2026-07-05T22:23:02.828+07:00,540126557827334424,261211,257695,262798,225576
1783264982846563463,2026-07-05T22:23:02.846+07:00,540126557827334424,261210,258298,262830,225652
1783264982864745281,2026-07-05T22:23:02.864+07:00,540126557827334424,261728,256339,264290,224096
1783264982882927100,2026-07-05T22:23:02.882+07:00,540126557827334424,261570,259005,263761,222405
1783264982901108918,2026-07-05T22:23:02.901+07:00,540126557827334424,262645,258270,261710,224887
1783264982919290736,2026-07-05T22:23:02.919+07:00,540126557827334424,261310,256903,264226,223834
1783264982937472554,2026-07-05T22:23:02.937+07:00,540126557827334424,259784,256592,264176,225340
1783264982955654372,2026-07-05T22:23:02.955+07:00,540126557827334424,261197,256377,264746,224227
1783264982973836190,2026-07-05T22:23:02.973+07:00,540126557827334424,261111,255323,265007,224298
1783264982992018009,2026-07-05T22:23:02.992+07:00,540126557827334424,259056,257761,265954,223471
1783264983010199827,2026-07-05T22:23:03.010+07:00,540126557827334424,260419,257617,263220,225662
1783264983028381645,2026-07-05T22:23:03.028+07:00,540126557827334424,261734,258580,263059,225050
1783264983046563463,2026-07-05T22:23:03.046+07:00,540126557827334424,259387,258927,261770,226164
1783264983064745281,2026-07-05T22:23:03.064+07:00,540126557827334424,258499,259035,261436,226471
1783264983082927100,2026-07-05T22:23:03.082+07:00,540126557827334424,257928,258980,264648,225237
1783264983101108918,2026-07-05T22:23:03.101+07:00,540126557827334424,261138,259373,261854,225240
1783264983119290736,2026-07-05T22:23:03.119+07:00,540126557827334424,259208,256239,263889,225897
1783264983137472554,2026-07-05T22:23:03.137+07:00,540126557827334424,259705,255169,264624,225459
1783264983128617900,2026-07-05T22:23:03.128+07:00,540126558300757102,259911,256815,264117,225807
1783264983146799718,2026-07-05T22:23:03.146+07:00,540126558300757102,261351,256502,264987,223582
1783264983164981536,2026-07-05T22:23:03.164+07:00,540126558300757102,258556,258125,266087,223939
1783264983183163354,2026-07-05T22:23:03.183+07:00,540126558300757102,260825,257927,262996,225729
1783264983201345172,2026-07-05T22:23:03.201+07:00,540126558300757102,261980,258765,263155,224894
1783264983219526990,2026-07-05T22:23:03.219+07:00,540126558300757102,259678,259039,261700,226038
1783264983237708809,2026-07-05T22:23:03.237+07:00,540126558300757102,259923,258352,262866,225942
1783264983255890627,2026-07-05T22:23:03.255+07:00,540126558300757102,261852,256512,261624,226419
1783264983274072445,2026-07-05T22:23:03.274+07:00,540126558300757102,258804,256156,264227,226694
1783264983292254263,2026-07-05T22:23:03.292+07:00,540126558300757102,260336,257944,262073,226853
1783264983310436081,2026-07-05T22:23:03.310+07:00,540126558300757102,260437,258770,261308,226605
1783264983328617900,2026-07-05T22:23:03.328+07:00,540126558300757102,261292,256549,263613,224604
1783264983346799718,2026-07-05T22:23:03.346+07:00,540126558300757102,259732,257232,263469,225732
1783264983364981536,2026-07-05T22:23:03.364+07:00,540126558300757102,258696,256622,265000,227071
1783264983383163354,2026-07-05T22:23:03.383+07:00,540126558300757102,261382,258587,262166,226050
1783264983401345172,2026-07-05T22:23:03.401+07:00,540126558300757102,262146,258985,262997,225008
1783264983419526990,2026-07-05T22:23:03.419+07:00,540126558300757102,259422,258975,262082,226147
1783264983437708809,2026-07-05T22:23:03.437+07:00,540126558300757102,258546,259011,261549,226499
1783264983455890627,2026-07-05T22:23:03.455+07:00,540126558300757102,257884,256485,263866,227300
1783264983474072445,2026-07-05T22:23:03.474+07:00,540126558300757102,261241,258072,261504,226251
1783264983492254263,2026-07-05T22:23:03.492+07:00,540126558300757102,262248,258989,262047,225101
1783264983510436081,2026-07-05T22:23:03.510+07:00,540126558300757102,260407,259189,261124,226143
1783264983528617900,2026-07-05T22:23:03.528+07:00,540126558300757102,261538,257564,263514,224508
1783264983546799718,2026-07-05T22:23:03.546+07:00,540126558300757102,261884,255974,264760,223117
1783264983564981536,2026-07-05T22:23:03.564+07:00,540126558300757102,259815,258370,265597,222355
1783264983583163354,2026-07-05T22:23:03.583+07:00,540126558300757102,258138,255846,265527,225305
1783264983383468100,2026-07-05T22:23:03.383+07:00,540126558774179780,257827,255336,264892,226098
1783264983401649918,2026-07-05T22:23:03.401+07:00,540126558774179780,260569,255822,265193,223835
1783264983419831736,2026-07-05T22:23:03.419+07:00,540126558774179780,261521,255183,265362,222994
1783264983438013554,2026-07-05T22:23:03.438+07:00,540126558774179780,260639,257684,266064,222548
1783264983456195372,2026-07-05T22:23:03.456+07:00,540126558774179780,261266,255549,264320,225629
1783264983474377190,2026-07-05T22:23:03.474+07:00,540126558774179780,260750,257195,262478,226536
1783264983492559009,2026-07-05T22:23:03.492+07:00,540126558774179780,260405,255636,264065,225754
1783264983510740827,2026-07-05T22:23:03.510+07:00,540126558774179780,260015,257087,263772,226011
1783264983528922645,2026-07-05T22:23:03.528+07:00,540126558774179780,259303,258464,262084,226379
1783264983547104463,2026-07-05T22:23:03.547+07:00,540126558774179780,260554,259750,262228,223477
1783264983565286281,2026-07-05T22:23:03.565+07:00,540126558774179780,258814,257475,264543,224544
1783264983583468100,2026-07-05T22:23:03.583+07:00,540126558774179780,258130,255988,264510,225893
1783264983601649918,2026-07-05T22:23:03.601+07:00,540126558774179780,260370,255044,265071,223998
1783264983619831736,2026-07-05T22:23:03.619+07:00,540126558774179780,259804,257106,263815,225299
1783264983638013554,2026-07-05T22:23:03.638+07:00,540126558774179780,261658,257797,261517,225819
1783264983656195372,2026-07-05T22:23:03.656+07:00,540126558774179780,258754,256632,264192,226604
1783264983674377190,2026-07-05T22:23:03.674+07:00,540126558774179780,259535,257439,262647,226954
1783264983692559009,2026-07-05T22:23:03.692+07:00,540126558774179780,258350,257375,263108,226899
1783264983710740827,2026-07-05T22:23:03.710+07:00,540126558774179780,258786,258335,262107,226616
1783264983728922645,2026-07-05T22:23:03.728+07:00,540126558774179780,259948,258774,262205,226226
1783264983747104463,2026-07-05T22:23:03.747+07:00,540126558774179780,260359,259838,263141,223135
1783264983765286281,2026-07-05T22:23:03.765+07:00,540126558774179780,260330,258975,264989,222479
1783264983783468100,2026-07-05T22:23:03.783+07:00,540126558774179780,261306,257850,265531,221990
1783264983801649918,2026-07-05T22:23:03.801+07:00,540126558774179780,259708,258727,262655,224859
1783264983819831736,2026-07-05T22:23:03.819+07:00,540126558774179780,258670,258977,261651,225949
1783264983838013554,2026-07-05T22:23:03.838+07:00,540126558774179780,260968,259602,263174,223747
1783264984226859000,2026-07-05T22:23:04.226+07:00,540126559247608576,258798,256865,264654,226076
1783264984245040818,2026-07-05T22:23:04.245+07:00,540126559247608576,257743,255362,264476,226818
1783264984263222636,2026-07-05T22:23:04.263+07:00,540126559247608576,259636,254756,265074,225080
1783264984281404454,2026-07-05T22:23:04.281+07:00,540126559247608576,259654,256727,264181,225731
1783264984299586272,2026-07-05T22:23:04.299+07:00,540126559247608576,258680,257925,263024,226339
1783264984317768090,2026-07-05T22:23:04.317+07:00,540126559247608576,259160,259458,264277,223172
1783264984335949909,2026-07-05T22:23:04.335+07:00,540126559247608576,257747,256348,264876,225507
1783264984354131727,2026-07-05T22:23:04.354+07:00,540126559247608576,259160,255361,265329,224675
1783264984372313545,2026-07-05T22:23:04.372+07:00,540126559247608576,260652,257379,264098,225129
1783264984390495363,2026-07-05T22:23:04.390+07:00,540126559247608576,261585,256188,264779,223670
1783264984408677181,2026-07-05T22:23:04.408+07:00,540126559247608576,261962,258219,265146,222397
1783264984426859000,2026-07-05T22:23:04.426+07:00,540126559247608576,261904,259542,264193,221923
1783264984445040818,2026-07-05T22:23:04.445+07:00,540126559247608576,259209,256238,264848,224484
1783264984463222636,2026-07-05T22:23:04.463+07:00,540126559247608576,258821,255920,264594,225639
1783264984481404454,2026-07-05T22:23:04.481+07:00,540126559247608576,258352,257837,262318,226250
1783264984499586272,2026-07-05T22:23:04.499+07:00,540126559247608576,260443,257831,263664,225144
1783264984517768090,2026-07-05T22:23:04.517+07:00,540126559247608576,260712,255937,264584,227037
1783264984535949909,2026-07-05T22:23:04.535+07:00,540126559247608576,260648,255563,263467,227378
1783264984554131727,2026-07-05T22:23:04.554+07:00,540126559247608576,259033,256776,262929,227385
1783264984572313545,2026-07-05T22:23:04.572+07:00,540126559247608576,260990,256366,264476,224215
1783264984590495363,2026-07-05T22:23:04.590+07:00,540126559247608576,261395,256776,264625,224227
1783264984608677181,2026-07-05T22:23:04.608+07:00,540126559247608576,261257,257467,265543,223007
1783264984626859000,2026-07-05T22:23:04.626+07:00,540126559247608576,262527,256961,262666,225234
1783264984645040818,2026-07-05T22:23:04.645+07:00,540126559247608576,260299,256717,262687,226536
1783264984663222636,2026-07-05T22:23:04.663+07:00,540126559247608576,261440,256293,264522,223847
1783264984681404454,2026-07-05T22:23:04.681+07:00,540126559247608576,261821,255385,265031,223302
1783264984463787600,2026-07-05T22:23:04.463+07:00,540126559721055668,260931,256362,264567,224651
1783264984481969418,2026-07-05T22:23:04.481+07:00,540126559721055668,259153,258697,265475,222959
1783264984500151236,2026-07-05T22:23:04.500+07:00,540126559721055668,261363,259554,263668,223081
1783264984518333054,2026-07-05T22:23:04.518+07:00,540126559721055668,258896,257239,263727,225589
1783264984536514872,2026-07-05T22:23:04.536+07:00,540126559721055668,259961,258475,262335,225967
1783264984554696690,2026-07-05T22:23:04.554+07:00,540126559721055668,258792,258855,261529,226388
1783264984572878509,2026-07-05T22:23:04.572+07:00,540126559721055668,258206,255821,263573,226611
1783264984591060327,2026-07-05T22:23:04.591+07:00,540126559721055668,258991,258019,265189,223723
1783264984609242145,2026-07-05T22:23:04.609+07:00,540126559721055668,260433,258118,265720,222464
1783264984627423963,2026-07-05T22:23:04.627+07:00,540126559721055668,259702,258848,262772,225179
1783264984645605781,2026-07-05T22:23:04.645+07:00,540126559721055668,258748,259022,261560,226143
1783264984663787600,2026-07-05T22:23:04.663+07:00,540126559721055668,258853,259171,261371,226447
1783264984681969418,2026-07-05T22:23:04.681+07:00,540126559721055668,260490,256334,263517,227517
1783264984700151236,2026-07-05T22:23:04.700+07:00,540126559721055668,258791,254805,264333,227621
1783264984718333054,2026-07-05T22:23:04.718+07:00,540126559721055668,260535,256003,265295,224278
1783264984736514872,2026-07-05T22:23:04.736+07:00,540126559721055668,258740,257678,263391,225891
1783264984754696690,2026-07-05T22:23:04.754+07:00,540126559721055668,258402,258449,262274,226365
1783264984772878509,2026-07-05T22:23:04.772+07:00,540126559721055668,258315,255732,263854,226519
1783264984791060327,2026-07-05T22:23:04.791+07:00,540126559721055668,258370,257883,265473,224137
1783264984809242145,2026-07-05T22:23:04.809+07:00,540126559721055668,261050,258986,264490,223438
1783264984827423963,2026-07-05T22:23:04.827+07:00,540126559721055668,259581,256637,264622,225118
1783264984845605781,2026-07-05T22:23:04.845+07:00,540126559721055668,259575,257291,264083,225738
1783264984863787600,2026-07-05T22:23:04.863+07:00,540126559721055668,258569,258492,262150,226380
1783264984881969418,2026-07-05T22:23:04.881+07:00,540126559721055668,260260,259641,261789,223554
1783264984900151236,2026-07-05T22:23:04.900+07:00,540126559721055668,261231,259718,263652,222304
1783264984918333054,2026-07-05T22:23:04.918+07:00,540126559721055668,262159,259679,262592,224138
1783264984878531500,2026-07-05T22:23:04.878+07:00,540126560194478346,262382,258098,264235,223172
1783264984896713318,2026-07-05T22:23:04.896+07:00,540126560194478346,260002,258617,262794,225211
1783264984914895136,2026-07-05T22:23:04.914+07:00,540126560194478346,261395,258217,264495,223173
1783264984933076954,2026-07-05T22:23:04.933+07:00,540126560194478346,261963,259518,263156,222634
1783264984951258772,2026-07-05T22:23:04.951+07:00,540126560194478346,262569,259687,263043,223327
1783264984969440590,2026-07-05T22:23:04.969+07:00,540126560194478346,259868,259248,262186,225600
1783264984987622409,2026-07-05T22:23:04.987+07:00,540126560194478346,259606,259169,261786,226089
1783264985005804227,2026-07-05T22:23:05.005+07:00,540126560194478346,260945,258339,263481,225176
1783264985023986045,2026-07-05T22:23:05.023+07:00,540126560194478346,258760,259550,265185,223498
1783264985042167863,2026-07-05T22:23:05.042+07:00,540126560194478346,261451,259757,262182,224384
1783264985060349681,2026-07-05T22:23:05.060+07:00,540126560194478346,259344,256438,263961,225570
1783264985078531500,2026-07-05T22:23:05.078+07:00,540126560194478346,258231,257730,263022,226419
1783264985096713318,2026-07-05T22:23:05.096+07:00,540126560194478346,260541,256125,264384,224339
1783264985114895136,2026-07-05T22:23:05.114+07:00,540126560194478346,261656,257125,265168,222965
1783264985133076954,2026-07-05T22:23:05.133+07:00,540126560194478346,261009,258965,265138,221883
1783264985151258772,2026-07-05T22:23:05.151+07:00,540126560194478346,262263,259496,262631,223781
1783264985169440590,2026-07-05T22:23:05.169+07:00,540126560194478346,261346,256474,264403,223950
1783264985187622409,2026-07-05T22:23:05.187+07:00,540126560194478346,261245,255864,264749,224258
1783264985205804227,2026-07-05T22:23:05.205+07:00,540126560194478346,260149,257297,263820,225457
1783264985223986045,2026-07-05T22:23:05.223+07:00,540126560194478346,260703,259184,262752,223049
1783264985242167863,2026-07-05T22:23:05.242+07:00,540126560194478346,262135,259678,261524,223891
1783264985260349681,2026-07-05T22:23:05.260+07:00,540126560194478346,260201,258758,261814,225961
1783264985278531500,2026-07-05T22:23:05.278+07:00,540126560194478346,261459,258388,263440,224761
1783264985296713318,2026-07-05T22:23:05.296+07:00,540126560194478346,259318,258869,261968,225976
1783264985314895136,2026-07-05T22:23:05.314+07:00,540126560194478346,260154,256001,264033,224944
1783264985333076954,2026-07-05T22:23:05.333+07:00,540126560194478346,261272,258709,263076,223141
1783264985546837700,2026-07-05T22:23:05.546+07:00,540126560667901038,258715,255829,264274,225516
1783264985565019518,2026-07-05T22:23:05.565+07:00,540126560667901038,260387,258110,262170,225976
1783264985583201336,2026-07-05T22:23:05.583+07:00,540126560667901038,259341,258816,261367,226473
1783264985601383154,2026-07-05T22:23:05.601+07:00,540126560667901038,260220,258625,262486,225953
1783264985619564972,2026-07-05T22:23:05.619+07:00,540126560667901038,262229,255582,263047,226993
1783264985637746790,2026-07-05T22:23:05.637+07:00,540126560667901038,259931,256898,265092,225052
1783264985655928609,2026-07-05T22:23:05.655+07:00,540126560667901038,261239,258539,262216,225811
1783264985674110427,2026-07-05T22:23:05.674+07:00,540126560667901038,261698,258771,262633,225529
1783264985692292245,2026-07-05T22:23:05.692+07:00,540126560667901038,260103,258723,262605,226053
1783264985710474063,2026-07-05T22:23:05.710+07:00,540126560667901038,259831,256394,263911,225938
1783264985728655881,2026-07-05T22:23:05.728+07:00,540126560667901038,258216,256352,265223,226796
1783264985746837700,2026-07-05T22:23:05.746+07:00,540126560667901038,261086,258506,262558,225829
1783264985765019518,2026-07-05T22:23:05.765+07:00,540126560667901038,261653,257401,264472,223490
1783264985783201336,2026-07-05T22:23:05.783+07:00,540126560667901038,262036,256443,265014,222765
1783264985801383154,2026-07-05T22:23:05.801+07:00,540126560667901038,261997,255445,265111,222863
1783264985819564972,2026-07-05T22:23:05.819+07:00,540126560667901038,259057,258357,266018,223109
1783264985837746790,2026-07-05T22:23:05.837+07:00,540126560667901038,261609,259254,262579,224140
1783264985855928609,2026-07-05T22:23:05.855+07:00,540126560667901038,258906,256372,263688,225920
1783264985874110427,2026-07-05T22:23:05.874+07:00,540126560667901038,259752,258121,261949,226182
1783264985892292245,2026-07-05T22:23:05.892+07:00,540126560667901038,260409,257748,263302,225714
1783264985910474063,2026-07-05T22:23:05.910+07:00,540126560667901038,260673,255700,264474,224857
1783264985928655881,2026-07-05T22:23:05.928+07:00,540126560667901038,262402,255218,262623,226127
1783264985946837700,2026-07-05T22:23:05.946+07:00,540126560667901038,259206,254649,264332,226382
1783264985965019518,2026-07-05T22:23:05.965+07:00,540126560667901038,260609,257526,262119,226325
1783264985983201336,2026-07-05T22:23:05.983+07:00,540126560667901038,260813,258264,262384,226016
1783264986001383154,2026-07-05T22:23:06.001+07:00,540126560667901038,261649,256815,264050,224096
1783264985983804700,2026-07-05T22:23:05.983+07:00,540126561141335924,258561,258277,265845,225033
1783264986001986518,2026-07-05T22:23:06.001+07:00,540126561141335924,261272,259360,262802,224506
1783264986020168336,2026-07-05T22:23:06.020+07:00,540126561141335924,260222,256795,264613,224534
1783264986038350154,2026-07-05T22:23:06.038+07:00,540126561141335924,259634,256120,264540,225407
1783264986056531972,2026-07-05T22:23:06.056+07:00,540126561141335924,261062,256279,264838,224288
1783264986074713790,2026-07-05T22:23:06.074+07:00,540126561141335924,261280,255053,265121,223748
1783264986092895609,2026-07-05T22:23:06.092+07:00,540126561141335924,260828,258248,264709,222115
1783264986111077427,2026-07-05T22:23:06.111+07:00,540126561141335924,261790,258603,262139,224884
1783264986129259245,2026-07-05T22:23:06.129+07:00,540126561141335924,262182,258195,264119,223215
1783264986147441063,2026-07-05T22:23:06.147+07:00,540126561141335924,262182,256135,264961,222569
1783264986165622881,2026-07-05T22:23:06.165+07:00,540126561141335924,260451,257470,263766,224766
1783264986183804700,2026-07-05T22:23:06.183+07:00,540126561141335924,261186,259235,262576,222851
1783264986201986518,2026-07-05T22:23:06.201+07:00,540126561141335924,262364,257886,261629,225327
1783264986220168336,2026-07-05T22:23:06.220+07:00,540126561141335924,262070,257905,264120,223076
