host_timestamp_ns,host_timestamp_iso,pmd_timestamp,ppg0,ppg1,ppg2,ambient
1783770402355943363,2026-07-11T18:46:42.355+07:00,837085604462288196,499540,442652,316524,1287
1783770402374125181,2026-07-11T18:46:42.374+07:00,837085604462288196,499594,442639,316537,1332
1783770402392306999,2026-07-11T18:46:42.392+07:00,837085604462288196,499574,442706,316603,1306
1783770402410488817,2026-07-11T18:46:42.410+07:00,837085604462288196,499586,442746,316639,1342
1783770402428670635,2026-07-11T18:46:42.428+07:00,837085604462288196,499662,442766,316621,1318
1783770402446852453,2026-07-11T18:46:42.446+07:00,837085604462288196,499729,442790,316711,1281
1783770402465034271,2026-07-11T18:46:42.465+07:00,837085604462288196,499779,442799,316766,1316
1783770402483216089,2026-07-11T18:46:42.483+07:00,837085604462288196,499818,442881,316824,1266
1783770402501397907,2026-07-11T18:46:42.501+07:00,837085604462288196,499914,442921,316865,1320
1783770402519579725,2026-07-11T18:46:42.519+07:00,837085604462288196,499897,442947,316867,1299
1783770402537761543,2026-07-11T18:46:42.537+07:00,837085604462288196,499904,442959,316890,1310
1783770402555943361,2026-07-11T18:46:42.555+07:00,837085604462288196,499932,442998,316938,1302
1783770402574125179,2026-07-11T18:46:42.574+07:00,837085604462288196,499984,442997,316985,1357
1783770402592306997,2026-07-11T18:46:42.592+07:00,837085604462288196,500034,443051,316957,1337
1783770402610488815,2026-07-11T18:46:42.610+07:00,837085604462288196,499971,443132,316996,1331
1783770402628670633,2026-07-11T18:46:42.628+07:00,837085604462288196,500112,443230,317045,1373
1783770402646852451,2026-07-11T18:46:42.646+07:00,837085604462288196,500238,443257,317158,1421
1783770402665034269,2026-07-11T18:46:42.665+07:00,837085604462288196,500324,443401,317291,1357
1783770402683216087,2026-07-11T18:46:42.683+07:00,837085604462288196,500350,443427,317298,1338
1783770402701397905,2026-07-11T18:46:42.701+07:00,837085604462288196,500398,443528,317390,1405
1783770402719579723,2026-07-11T18:46:42.719+07:00,837085604462288196,500511,443509,317449,1371
1783770402737761541,2026-07-11T18:46:42.737+07:00,837085604462288196,500651,443602,317548,1321
1783770402755943359,2026-07-11T18:46:42.755+07:00,837085604462288196,500743,443764,317656,1296
1783770402774125177,2026-07-11T18:46:42.774+07:00,837085604462288196,500836,443825,317737,1297
1783770402792306995,2026-07-11T18:46:42.792+07:00,837085604462288196,500973,443906,317812,1253
1783770402810488813,2026-07-11T18:46:42.810+07:00,837085604462288196,501103,443988,317977,1321
1783770402828670631,2026-07-11T18:46:42.828+07:00,837085604462288196,501212,444178,318053,1311
1783770402846852449,2026-07-11T18:46:42.846+07:00,837085604462288196,501279,444199,318132,1359
1783770402865034267,2026-07-11T18:46:42.865+07:00,837085604462288196,501325,444209,318091,1318
1783770402883216085,2026-07-11T18:46:42.883+07:00,837085604462288196,501236,444203,317981,1308
1783770402901397903,2026-07-11T18:46:42.901+07:00,837085604462288196,501064,444023,317740,1320
1783770402919579721,2026-07-11T18:46:42.919+07:00,837085604462288196,500773,443826,317453,1310
1783770402937761539,2026-07-11T18:46:42.937+07:00,837085604462288196,500549,443565,317218,1298
1783770402955943357,2026-07-11T18:46:42.955+07:00,837085604462288196,500221,443330,316981,1269
1783770402974125175,2026-07-11T18:46:42.974+07:00,837085604462288196,499940,443188,316757,1321
1783770402992306993,2026-07-11T18:46:42.992+07:00,837085604462288196,499737,443002,316571,1322
1783770403010488811,2026-07-11T18:46:43.010+07:00,837085604462288196,499670,442908,316477,1271
1783770403028670629,2026-07-11T18:46:43.028+07:00,837085604462288196,499574,442887,316417,1259
1783770403046852447,2026-07-11T18:46:43.046+07:00,837085604462288196,499515,442794,316411,1282
1783770403065034265,2026-07-11T18:46:43.065+07:00,837085604462288196,499541,442823,316430,1323
1783770403083216083,2026-07-11T18:46:43.083+07:00,837085604462288196,499543,442883,316460,1283
1783770403101397901,2026-07-11T18:46:43.101+07:00,837085604462288196,499600,442928,316456,1347
1783770403119579719,2026-07-11T18:46:43.119+07:00,837085604462288196,499695,442913,316511,1291
1783770403137761537,2026-07-11T18:46:43.137+07:00,837085604462288196,499642,442906,316485,1287
1783770403155943355,2026-07-11T18:46:43.155+07:00,837085605245070312,499741,442955,316546,1340
1783770403174125173,2026-07-11T18:46:43.174+07:00,837085605245070312,499743,442971,316586,1378
1783770403192306991,2026-07-11T18:46:43.192+07:00,837085605245070312,499815,442995,316600,1311
1783770403210488809,2026-07-11T18:46:43.210+07:00,837085605245070312,499812,442987,316671,1331
1783770403228670627,2026-07-11T18:46:43.228+07:00,837085605245070312,499839,443023,316617,1283
1783770403246852445,2026-07-11T18:46:43.246+07:00,837085605245070312,499854,443059,316665,1336
1783770403265034263,2026-07-11T18:46:43.265+07:00,837085605245070312,499762,443049,316633,1306
1783770403283216081,2026-07-11T18:46:43.283+07:00,837085605245070312,499803,443082,316681,1323
1783770403301397899,2026-07-11T18:46:43.301+07:00,837085605245070312,499775,443116,316697,1331
1783770403319579717,2026-07-11T18:46:43.319+07:00,837085605245070312,499859,443172,316639,1297
1783770403337761535,2026-07-11T18:46:43.337+07:00,837085605245070312,499933,443184,316710,1305
1783770403355943353,2026-07-11T18:46:43.355+07:00,837085605245070312,500023,443235,316846,1320
1783770403374125171,2026-07-11T18:46:43.374+07:00,837085605245070312,500056,443302,316928,1285
1783770403392306989,2026-07-11T18:46:43.392+07:00,837085605245070312,500119,443384,317027,1304
1783770403410488807,2026-07-11T18:46:43.410+07:00,837085605245070312,500264,443497,317072,1347
1783770403428670625,2026-07-11T18:46:43.428+07:00,837085605245070312,500334,443562,317179,1318
1783770403446852443,2026-07-11T18:46:43.446+07:00,837085605245070312,500497,443678,317303,1337
1783770403465034261,2026-07-11T18:46:43.465+07:00,837085605245070312,500593,443833,317367,1325
1783770403483216079,2026-07-11T18:46:43.483+07:00,837085605245070312,500632,443898,317472,1326
1783770403501397897,2026-07-11T18:46:43.501+07:00,837085605245070312,500705,443980,317539,1283
1783770403519579715,2026-07-11T18:46:43.519+07:00,837085605245070312,500858,444104,317661,1256
1783770403537761533,2026-07-11T18:46:43.537+07:00,837085605245070312,501008,444134,317738,1299
1783770403555943351,2026-07-11T18:46:43.555+07:00,837085605245070312,501037,444190,317772,1357
1783770403574125169,2026-07-11T18:46:43.574+07:00,837085605245070312,500900,444076,317578,1376
1783770403592306987,2026-07-11T18:46:43.592+07:00,837085605245070312,500592,443887,317318,1294
1783770403610488805,2026-07-11T18:46:43.610+07:00,837085605245070312,500397,443739,317012,1383
1783770403628670623,2026-07-11T18:46:43.628+07:00,837085605245070312,500076,443407,316732,1357
1783770403646852441,2026-07-11T18:46:43.646+07:00,837085605245070312,499665,443104,316362,1289
1783770403665034259,2026-07-11T18:46:43.665+07:00,837085605245070312,499406,442867,316135,1298
1783770403683216077,2026-07-11T18:46:43.683+07:00,837085605245070312,499227,442740,315995,1330
1783770403701397895,2026-07-11T18:46:43.701+07:00,837085605245070312,499086,442468,315782,1310
1783770403719579713,2026-07-11T18:46:43.719+07:00,837085605245070312,498982,442420,315760,1270
1783770403737761531,2026-07-11T18:46:43.737+07:00,837085605245070312,498985,442468,315696,1339
1783770403755943349,2026-07-11T18:46:43.755+07:00,837085605245070312,498952,442438,315720,1323
1783770403774125167,2026-07-11T18:46:43.774+07:00,837085605245070312,499016,442502,315766,1345
1783770403792306985,2026-07-11T18:46:43.792+07:00,837085605245070312,498958,442523,315843,1277
1783770403810488803,2026-07-11T18:46:43.810+07:00,837085605245070312,499088,442523,315888,1234
1783770403828670621,2026-07-11T18:46:43.828+07:00,837085605245070312,499133,442613,315873,1259
1783770403846852439,2026-07-11T18:46:43.846+07:00,837085605245070312,499099,442616,315883,1323
1783770403865034257,2026-07-11T18:46:43.865+07:00,837085605245070312,499142,442591,315910,1282
1783770403883216075,2026-07-11T18:46:43.883+07:00,837085605245070312,499151,442628,315993,1302
1783770403901397893,2026-07-11T18:46:43.901+07:00,837085605245070312,499155,442574,315920,1331
1783770403919579711,2026-07-11T18:46:43.919+07:00,837085605245070312,499140,442598,315898,1287
1783770403937761529,2026-07-11T18:46:43.937+07:00,837085606027861596,499113,442557,315827,1338
1783770403955943347,2026-07-11T18:46:43.955+07:00,837085606027861596,499152,442555,315822,1289
1783770403974125165,2026-07-11T18:46:43.974+07:00,837085606027861596,499144,442533,315810,1318
1783770403992306983,2026-07-11T18:46:43.992+07:00,837085606027861596,499139,442589,315926,1335
1783770404010488801,2026-07-11T18:46:44.010+07:00,837085606027861596,499096,442627,315953,1279
1783770404028670619,2026-07-11T18:46:44.028+07:00,837085606027861596,499168,442633,315990,1248
1783770404046852437,2026-07-11T18:46:44.046+07:00,837085606027861596,499272,442654,316037,1280
1783770404065034255,2026-07-11T18:46:44.065+07:00,837085606027861596,499337,442716,316082,1318
1783770404083216073,2026-07-11T18:46:44.083+07:00,837085606027861596,499326,442766,316177,1305
1783770404101397891,2026-07-11T18:46:44.101+07:00,837085606027861596,499514,442868,316250,1350
1783770404119579709,2026-07-11T18:46:44.119+07:00,837085606027861596,499585,443027,316352,1374
1783770404137761527,2026-07-11T18:46:44.137+07:00,837085606027861596,499690,443068,316429,1357
1783770404155943345,2026-07-11T18:46:44.155+07:00,837085606027861596,499853,443147,316534,1325
1783770404174125163,2026-07-11T18:46:44.174+07:00,837085606027861596,499916,443179,316570,1335
1783770404192306981,2026-07-11T18:46:44.192+07:00,837085606027861596,499960,443298,316698,1339
1783770404210488799,2026-07-11T18:46:44.210+07:00,837085606027861596,500105,443378,316762,1371
1783770404228670617,2026-07-11T18:46:44.228+07:00,837085606027861596,500141,443342,316782,1307
1783770404246852435,2026-07-11T18:46:44.246+07:00,837085606027861596,500098,443362,316704,1358
1783770404265034253,2026-07-11T18:46:44.265+07:00,837085606027861596,499914,443209,316455,1323
1783770404283216071,2026-07-11T18:46:44.283+07:00,837085606027861596,499545,442919,316140,1291
1783770404301397889,2026-07-11T18:46:44.301+07:00,837085606027861596,499182,442645,315764,1285
1783770404319579707,2026-07-11T18:46:44.319+07:00,837085606027861596,498918,442345,315449,1338
1783770404337761525,2026-07-11T18:46:44.337+07:00,837085606027861596,498550,442066,315209,1229
1783770404355943343,2026-07-11T18:46:44.355+07:00,837085606027861596,498384,441947,315062,1311
1783770404374125161,2026-07-11T18:46:44.374+07:00,837085606027861596,498188,441749,314809,1233
1783770404392306979,2026-07-11T18:46:44.392+07:00,837085606027861596,498110,441669,314774,1340
1783770404410488797,2026-07-11T18:46:44.410+07:00,837085606027861596,497989,441574,314688,1280
1783770404428670615,2026-07-11T18:46:44.428+07:00,837085606027861596,498058,441471,314717,1356
1783770404446852433,2026-07-11T18:46:44.446+07:00,837085606027861596,498026,441451,314680,1359
1783770404465034251,2026-07-11T18:46:44.465+07:00,837085606027861596,498034,441465,314711,1274
1783770404483216069,2026-07-11T18:46:44.483+07:00,837085606027861596,498011,441470,314745,1265
1783770404501397887,2026-07-11T18:46:44.501+07:00,837085606027861596,498120,441539,314714,1323
1783770404519579705,2026-07-11T18:46:44.519+07:00,837085606027861596,498128,441566,314818,1349
1783770404537761523,2026-07-11T18:46:44.537+07:00,837085606027861596,498128,441549,314851,1292
1783770404555943341,2026-07-11T18:46:44.555+07:00,837085606027861596,498163,441536,314817,1345
1783770404574125159,2026-07-11T18:46:44.574+07:00,837085606027861596,498046,441490,314738,1220
1783770404592306977,2026-07-11T18:46:44.592+07:00,837085606027861596,498105,441603,314818,1280
1783770404610488795,2026-07-11T18:46:44.610+07:00,837085606027861596,498116,441535,314770,1304
1783770404628670613,2026-07-11T18:46:44.628+07:00,837085606027861596,498089,441543,314797,1276
1783770404646852431,2026-07-11T18:46:44.646+07:00,837085606027861596,498051,441531,314797,1326
1783770404665034249,2026-07-11T18:46:44.665+07:00,837085606027861596,498176,441527,314799,1321
1783770404683216067,2026-07-11T18:46:44.683+07:00,837085606027861596,498272,441635,314879,1335
1783770404701397885,2026-07-11T18:46:44.701+07:00,837085606027861596,498286,441669,314852,1293
1783770404719579703,2026-07-11T18:46:44.719+07:00,837085606792459568,498349,441737,314918,1270
1783770404737761521,2026-07-11T18:46:44.737+07:00,837085606792459568,498412,441805,314971,1330
1783770404755943339,2026-07-11T18:46:44.755+07:00,837085606792459568,498506,441909,315100,1319
1783770404774125157,2026-07-11T18:46:44.774+07:00,837085606792459568,498612,441998,315150,1370
1783770404792306975,2026-07-11T18:46:44.792+07:00,837085606792459568,498646,442055,315265,1294
1783770404810488793,2026-07-11T18:46:44.810+07:00,837085606792459568,498746,442116,315290,1279
1783770404828670611,2026-07-11T18:46:44.828+07:00,837085606792459568,498920,442195,315400,1273
1783770404846852429,2026-07-11T18:46:44.846+07:00,837085606792459568,499004,442273,315538,1250
1783770404865034247,2026-07-11T18:46:44.865+07:00,837085606792459568,499153,442326,315612,1234
1783770404883216065,2026-07-11T18:46:44.883+07:00,837085606792459568,499262,442524,315765,1331
1783770404901397883,2026-07-11T18:46:44.901+07:00,837085606792459568,499369,442598,315888,1331
1783770404919579701,2026-07-11T18:46:44.919+07:00,837085606792459568,499446,442593,315924,1376
1783770404937761519,2026-07-11T18:46:44.937+07:00,837085606792459568,499378,442579,315794,1259
1783770404955943337,2026-07-11T18:46:44.955+07:00,837085606792459568,499183,442462,315546,1309
1783770404974125155,2026-07-11T18:46:44.974+07:00,837085606792459568,498874,442102,315179,1316
1783770404992306973,2026-07-11T18:46:44.992+07:00,837085606792459568,498504,441833,314804,1305
1783770405010488791,2026-07-11T18:46:45.010+07:00,837085606792459568,498132,441461,314516,1322
1783770405028670609,2026-07-11T18:46:45.028+07:00,837085606792459568,497824,441174,314180,1351
1783770405046852427,2026-07-11T18:46:45.046+07:00,837085606792459568,497543,440980,313935,1337
1783770405065034245,2026-07-11T18:46:45.065+07:00,837085606792459568,497389,440824,313803,1293
1783770405083216063,2026-07-11T18:46:45.083+07:00,837085606792459568,497260,440685,313700,1319
1783770405101397881,2026-07-11T18:46:45.101+07:00,837085606792459568,497120,440609,313630,1334
1783770405119579699,2026-07-11T18:46:45.119+07:00,837085606792459568,497056,440592,313637,1286
1783770405137761517,2026-07-11T18:46:45.137+07:00,837085606792459568,497136,440575,313642,1324
1783770405155943335,2026-07-11T18:46:45.155+07:00,837085606792459568,497239,440677,313679,1321
1783770405174125153,2026-07-11T18:46:45.174+07:00,837085606792459568,497226,440710,313671,1339
1783770405192306971,2026-07-11T18:46:45.192+07:00,837085606792459568,497292,440728,313655,1342
1783770405210488789,2026-07-11T18:46:45.210+07:00,837085606792459568,497379,440692,313750,1309
1783770405228670607,2026-07-11T18:46:45.228+07:00,837085606792459568,497401,440702,313763,1316
1783770405246852425,2026-07-11T18:46:45.246+07:00,837085606792459568,497415,440657,313763,1265
1783770405265034243,2026-07-11T18:46:45.265+07:00,837085606792459568,497402,440684,313804,1280
1783770405283216061,2026-07-11T18:46:45.283+07:00,837085606792459568,497361,440590,313793,1308
1783770405301397879,2026-07-11T18:46:45.301+07:00,837085606792459568,497426,440624,313708,1285
1783770405319579697,2026-07-11T18:46:45.319+07:00,837085606792459568,497385,440493,313670,1338
1783770405337761515,2026-07-11T18:46:45.337+07:00,837085606792459568,497435,440438,313634,1254
1783770405355943333,2026-07-11T18:46:45.355+07:00,837085606792459568,497502,440468,313697,1366
1783770405374125151,2026-07-11T18:46:45.374+07:00,837085606792459568,497469,440563,313690,1300
1783770405392306969,2026-07-11T18:46:45.392+07:00,837085606792459568,497499,440507,313720,1282
1783770405410488787,2026-07-11T18:46:45.410+07:00,837085606792459568,497564,440587,313773,1285
1783770405428670605,2026-07-11T18:46:45.428+07:00,837085606792459568,497614,440673,313909,1328
1783770405446852423,2026-07-11T18:46:45.446+07:00,837085606792459568,497758,440827,314018,1359
1783770405465034241,2026-07-11T18:46:45.465+07:00,837085606792459568,497838,441024,314130,1344
1783770405483216059,2026-07-11T18:46:45.483+07:00,837085607557027022,498001,441232,314329,1341
1783770405501397877,2026-07-11T18:46:45.501+07:00,837085607557027022,498149,441335,314418,1315
1783770405519579695,2026-07-11T18:46:45.519+07:00,837085607557027022,498300,441460,314583,1337
1783770405537761513,2026-07-11T18:46:45.537+07:00,837085607557027022,498423,441501,314735,1326
1783770405555943331,2026-07-11T18:46:45.555+07:00,837085607557027022,498520,441578,314738,1335
1783770405574125149,2026-07-11T18:46:45.574+07:00,837085607557027022,498662,441759,314868,1300
1783770405592306967,2026-07-11T18:46:45.592+07:00,837085607557027022,498826,441780,314966,1348
1783770405610488785,2026-07-11T18:46:45.610+07:00,837085607557027022,498918,441777,315087,1316
1783770405628670603,2026-07-11T18:46:45.628+07:00,837085607557027022,499012,441890,315132,1323
1783770405646852421,2026-07-11T18:46:45.646+07:00,837085607557027022,499113,441958,315246,1260
1783770405665034239,2026-07-11T18:46:45.665+07:00,837085607557027022,499139,441959,315174,1238
1783770405683216057,2026-07-11T18:46:45.683+07:00,837085607557027022,499118,441881,315104,1342
1783770405701397875,2026-07-11T18:46:45.701+07:00,837085607557027022,498905,441670,314821,1268
1783770405719579693,2026-07-11T18:46:45.719+07:00,837085607557027022,498581,441428,314486,1273
1783770405737761511,2026-07-11T18:46:45.737+07:00,837085607557027022,498272,441181,314191,1283
1783770405755943329,2026-07-11T18:46:45.755+07:00,837085607557027022,497983,440938,313917,1291
1783770405774125147,2026-07-11T18:46:45.774+07:00,837085607557027022,497602,440605,313583,1275
1783770405792306965,2026-07-11T18:46:45.792+07:00,837085607557027022,497451,440442,313425,1282
1783770405810488783,2026-07-11T18:46:45.810+07:00,837085607557027022,497254,440352,313228,1277
1783770405828670601,2026-07-11T18:46:45.828+07:00,837085607557027022,497085,440295,313126,1317
1783770405846852419,2026-07-11T18:46:45.846+07:00,837085607557027022,496990,440197,313082,1317
1783770405865034237,2026-07-11T18:46:45.865+07:00,837085607557027022,496922,440077,313019,1303
1783770405883216055,2026-07-11T18:46:45.883+07:00,837085607557027022,496982,440081,313139,1372
1783770405901397873,2026-07-11T18:46:45.901+07:00,837085607557027022,496945,440035,313038,1306
1783770405919579691,2026-07-11T18:46:45.919+07:00,837085607557027022,496942,439984,312952,1290
1783770405937761509,2026-07-11T18:46:45.937+07:00,837085607557027022,497021,440017,313074,1319
1783770405955943327,2026-07-11T18:46:45.955+07:00,837085607557027022,496899,440047,313065,1332
1783770405974125145,2026-07-11T18:46:45.974+07:00,837085607557027022,497031,440015,313159,1281
1783770405992306963,2026-07-11T18:46:45.992+07:00,837085607557027022,497057,440010,313111,1305
1783770406010488781,2026-07-11T18:46:46.010+07:00,837085607557027022,497051,440013,313067,1330
1783770406028670599,2026-07-11T18:46:46.028+07:00,837085607557027022,497112,440000,313101,1341
1783770406046852417,2026-07-11T18:46:46.046+07:00,837085607557027022,497048,440000,313088,1283
1783770406065034235,2026-07-11T18:46:46.065+07:00,837085607557027022,497072,440062,313102,1303
1783770406083216053,2026-07-11T18:46:46.083+07:00,837085607557027022,497095,440094,313104,1274
1783770406101397871,2026-07-11T18:46:46.101+07:00,837085607557027022,497112,440136,313151,1249
1783770406119579689,2026-07-11T18:46:46.119+07:00,837085607557027022,497146,440168,313246,1263
1783770406137761507,2026-07-11T18:46:46.137+07:00,837085607557027022,497168,440183,313329,1281
1783770406155943325,2026-07-11T18:46:46.155+07:00,837085607557027022,497318,440231,313344,1313
1783770406174125143,2026-07-11T18:46:46.174+07:00,837085607557027022,497463,440282,313427,1282
1783770406192306961,2026-07-11T18:46:46.192+07:00,837085607557027022,497464,440358,313501,1265
1783770406210488779,2026-07-11T18:46:46.210+07:00,837085607557027022,497538,440362,313622,1259
1783770406228670597,2026-07-11T18:46:46.228+07:00,837085607557027022,497638,440538,313701,1274
1783770406246852415,2026-07-11T18:46:46.246+07:00,837085608339772521,497801,440597,313759,1300
1783770406265034233,2026-07-11T18:46:46.265+07:00,837085608339772521,497827,440654,313783,1257
1783770406283216051,2026-07-11T18:46:46.283+07:00,837085608339772521,498003,440786,313929,1334
1783770406301397869,2026-07-11T18:46:46.301+07:00,837085608339772521,498116,440880,314080,1309
1783770406319579687,2026-07-11T18:46:46.319+07:00,837085608339772521,498230,441002,314214,1297
1783770406337761505,2026-07-11T18:46:46.337+07:00,837085608339772521,498358,441135,314316,1259
1783770406355943323,2026-07-11T18:46:46.355+07:00,837085608339772521,498504,441271,314487,1341
1783770406374125141,2026-07-11T18:46:46.374+07:00,837085608339772521,498595,441386,314543,1306
1783770406392306959,2026-07-11T18:46:46.392+07:00,837085608339772521,498669,441484,314556,1285
1783770406410488777,2026-07-11T18:46:46.410+07:00,837085608339772521,498688,441475,314534,1291
1783770406428670595,2026-07-11T18:46:46.428+07:00,837085608339772521,498515,441399,314378,1334
1783770406446852413,2026-07-11T18:46:46.446+07:00,837085608339772521,498267,441136,314036,1288
1783770406465034231,2026-07-11T18:46:46.465+07:00,837085608339772521,497989,440878,313707,1294
1783770406483216049,2026-07-11T18:46:46.483+07:00,837085608339772521,497625,440500,313294,1337
1783770406501397867,2026-07-11T18:46:46.501+07:00,837085608339772521,497323,440184,313057,1309
1783770406519579685,2026-07-11T18:46:46.519+07:00,837085608339772521,497020,439928,312711,1285
1783770406537761503,2026-07-11T18:46:46.537+07:00,837085608339772521,496844,439787,312603,1285
1783770406555943321,2026-07-11T18:46:46.555+07:00,837085608339772521,496601,439606,312454,1247
1783770406574125139,2026-07-11T18:46:46.574+07:00,837085608339772521,496523,439553,312338,1253
1783770406592306957,2026-07-11T18:46:46.592+07:00,837085608339772521,496626,439486,312327,1307
1783770406610488775,2026-07-11T18:46:46.610+07:00,837085608339772521,496562,439462,312348,1252
1783770406628670593,2026-07-11T18:46:46.628+07:00,837085608339772521,496533,439489,312370,1302
1783770406646852411,2026-07-11T18:46:46.646+07:00,837085608339772521,496600,439489,312414,1263
1783770406665034229,2026-07-11T18:46:46.665+07:00,837085608339772521,496601,439579,312556,1308
1783770406683216047,2026-07-11T18:46:46.683+07:00,837085608339772521,496703,439678,312645,1323
1783770406701397865,2026-07-11T18:46:46.701+07:00,837085608339772521,496685,439700,312605,1345
1783770406719579683,2026-07-11T18:46:46.719+07:00,837085608339772521,496762,439722,312649,1279
1783770406737761501,2026-07-11T18:46:46.737+07:00,837085608339772521,496747,439702,312666,1336
1783770406755943319,2026-07-11T18:46:46.755+07:00,837085608339772521,496725,439688,312660,1236
1783770406774125137,2026-07-11T18:46:46.774+07:00,837085608339772521,496781,439753,312706,1301
1783770406792306955,2026-07-11T18:46:46.792+07:00,837085608339772521,496752,439706,312711,1314
1783770406810488773,2026-07-11T18:46:46.810+07:00,837085608339772521,496778,439736,312634,1291
1783770406828670591,2026-07-11T18:46:46.828+07:00,837085608339772521,496830,439782,312664,1302
1783770406846852409,2026-07-11T18:46:46.846+07:00,837085608339772521,496854,439704,312760,1327
1783770406865034227,2026-07-11T18:46:46.865+07:00,837085608339772521,496919,439769,312744,1311
1783770406883216045,2026-07-11T18:46:46.883+07:00,837085608339772521,497004,439881,312809,1365
1783770406901397863,2026-07-11T18:46:46.901+07:00,837085608339772521,497087,439901,312913,1297
1783770406919579681,2026-07-11T18:46:46.919+07:00,837085608339772521,497100,439996,312933,1279
1783770406937761499,2026-07-11T18:46:46.937+07:00,837085608339772521,497159,440111,313053,1260
1783770406955943317,2026-07-11T18:46:46.955+07:00,837085608339772521,497274,440165,313194,1307
1783770406974125135,2026-07-11T18:46:46.974+07:00,837085608339772521,497491,440342,313318,1318
1783770406992306953,2026-07-11T18:46:46.992+07:00,837085608339772521,497556,440371,313426,1326
1783770407010488771,2026-07-11T18:46:47.010+07:00,837085608339772521,497597,440414,313434,1289
1783770407028670589,2026-07-11T18:46:47.028+07:00,837085609104364374,497717,440596,313609,1308
1783770407046852407,2026-07-11T18:46:47.046+07:00,837085609104364374,497790,440676,313701,1316
1783770407065034225,2026-07-11T18:46:47.065+07:00,837085609104364374,498012,440809,313861,1336
1783770407083216043,2026-07-11T18:46:47.083+07:00,837085609104364374,498090,440934,314005,1330
1783770407101397861,2026-07-11T18:46:47.101+07:00,837085609104364374,498270,440991,314008,1270
1783770407119579679,2026-07-11T18:46:47.119+07:00,837085609104364374,498289,441078,314049,1309
1783770407137761497,2026-07-11T18:46:47.137+07:00,837085609104364374,498265,441065,313984,1254
1783770407155943315,2026-07-11T18:46:47.155+07:00,837085609104364374,498067,440921,313799,1298
1783770407174125133,2026-07-11T18:46:47.174+07:00,837085609104364374,497852,440770,313514,1320
1783770407192306951,2026-07-11T18:46:47.192+07:00,837085609104364374,497493,440418,313142,1316
1783770407210488769,2026-07-11T18:46:47.210+07:00,837085609104364374,497161,440168,312833,1349
1783770407228670587,2026-07-11T18:46:47.228+07:00,837085609104364374,496865,439872,312524,1315
1783770407246852405,2026-07-11T18:46:47.246+07:00,837085609104364374,496589,439650,312292,1331
1783770407265034223,2026-07-11T18:46:47.265+07:00,837085609104364374,496425,439399,312095,1313
1783770407283216041,2026-07-11T18:46:47.283+07:00,837085609104364374,496336,439329,312045,1315
1783770407301397859,2026-07-11T18:46:47.301+07:00,837085609104364374,496239,439269,311998,1321
1783770407319579677,2026-07-11T18:46:47.319+07:00,837085609104364374,496266,439216,311955,1277
1783770407337761495,2026-07-11T18:46:47.337+07:00,837085609104364374,496231,439203,311962,1248
1783770407355943313,2026-07-11T18:46:47.355+07:00,837085609104364374,496157,439260,311934,1297
1783770407374125131,2026-07-11T18:46:47.374+07:00,837085609104364374,496280,439272,311993,1256
1783770407392306949,2026-07-11T18:46:47.392+07:00,837085609104364374,496296,439317,312148,1256
1783770407410488767,2026-07-11T18:46:47.410+07:00,837085609104364374,496349,439349,312169,1251
1783770407428670585,2026-07-11T18:46:47.428+07:00,837085609104364374,496383,439361,312134,1282
1783770407446852403,2026-07-11T18:46:47.446+07:00,837085609104364374,496371,439318,312209,1282
1783770407465034221,2026-07-11T18:46:47.465+07:00,837085609104364374,496383,439278,312219,1315
1783770407483216039,2026-07-11T18:46:47.483+07:00,837085609104364374,496429,439370,312212,1366
1783770407501397857,2026-07-11T18:46:47.501+07:00,837085609104364374,496326,439303,312128,1323
1783770407519579675,2026-07-11T18:46:47.519+07:00,837085609104364374,496335,439332,312134,1345
1783770407537761493,2026-07-11T18:46:47.537+07:00,837085609104364374,496272,439272,312063,1267
1783770407555943311,2026-07-11T18:46:47.555+07:00,837085609104364374,496281,439312,312117,1331
1783770407574125129,2026-07-11T18:46:47.574+07:00,837085609104364374,496439,439356,312182,1305
1783770407592306947,2026-07-11T18:46:47.592+07:00,837085609104364374,496354,439464,312190,1251
1783770407610488765,2026-07-11T18:46:47.610+07:00,837085609104364374,496480,439420,312307,1279
1783770407628670583,2026-07-11T18:46:47.628+07:00,837085609104364374,496590,439554,312401,1294
1783770407646852401,2026-07-11T18:46:47.646+07:00,837085609104364374,496717,439592,312404,1302
1783770407665034219,2026-07-11T18:46:47.665+07:00,837085609104364374,496699,439645,312470,1307
1783770407683216037,2026-07-11T18:46:47.683+07:00,837085609104364374,496864,439743,312602,1304
1783770407701397855,2026-07-11T18:46:47.701+07:00,837085609104364374,496942,439909,312743,1310
1783770407719579673,2026-07-11T18:46:47.719+07:00,837085609104364374,497140,439968,312912,1331
1783770407737761491,2026-07-11T18:46:47.737+07:00,837085609104364374,497240,440106,313031,1366
1783770407755943309,2026-07-11T18:46:47.755+07:00,837085609104364374,497290,440140,313097,1352
1783770407774125127,2026-07-11T18:46:47.774+07:00,837085609104364374,497417,440210,313216,1332
1783770407792306945,2026-07-11T18:46:47.792+07:00,837085609887140408,497548,440390,313298,1378
1783770407810488763,2026-07-11T18:46:47.810+07:00,837085609887140408,497560,440442,313340,1321
1783770407828670581,2026-07-11T18:46:47.828+07:00,837085609887140408,497550,440445,313258,1324
1783770407846852399,2026-07-11T18:46:47.846+07:00,837085609887140408,497411,440309,313053,1315
1783770407865034217,2026-07-11T18:46:47.865+07:00,837085609887140408,497096,440000,312712,1310
1783770407883216035,2026-07-11T18:46:47.883+07:00,837085609887140408,496766,439743,312271,1328
1783770407901397853,2026-07-11T18:46:47.901+07:00,837085609887140408,496428,439411,311945,1313
1783770407919579671,2026-07-11T18:46:47.919+07:00,837085609887140408,496011,439114,311654,1292
1783770407937761489,2026-07-11T18:46:47.937+07:00,837085609887140408,495808,438858,311398,1334
1783770407955943307,2026-07-11T18:46:47.955+07:00,837085609887140408,495690,438769,311283,1320
1783770407974125125,2026-07-11T18:46:47.974+07:00,837085609887140408,495552,438622,311246,1336
1783770407992306943,2026-07-11T18:46:47.992+07:00,837085609887140408,495456,438547,311143,1362
1783770408010488761,2026-07-11T18:46:48.010+07:00,837085609887140408,495413,438564,311173,1321
1783770408028670579,2026-07-11T18:46:48.028+07:00,837085609887140408,495402,438531,311087,1340
1783770408046852397,2026-07-11T18:46:48.046+07:00,837085609887140408,495456,438572,311196,1314
1783770408065034215,2026-07-11T18:46:48.065+07:00,837085609887140408,495534,438660,311280,1367
1783770408083216033,2026-07-11T18:46:48.083+07:00,837085609887140408,495529,438685,311290,1328
1783770408101397851,2026-07-11T18:46:48.101+07:00,837085609887140408,495598,438711,311421,1318
1783770408119579669,2026-07-11T18:46:48.119+07:00,837085609887140408,495705,438737,311503,1344
1783770408137761487,2026-07-11T18:46:48.137+07:00,837085609887140408,495669,438760,311454,1328
1783770408155943305,2026-07-11T18:46:48.155+07:00,837085609887140408,495659,438751,311466,1351
1783770408174125123,2026-07-11T18:46:48.174+07:00,837085609887140408,495668,438823,311461,1345
1783770408192306941,2026-07-11T18:46:48.192+07:00,837085609887140408,495705,438763,311441,1298
1783770408210488759,2026-07-11T18:46:48.210+07:00,837085609887140408,495737,438751,311455,1372
1783770408228670577,2026-07-11T18:46:48.228+07:00,837085609887140408,495771,438840,311469,1313
1783770408246852395,2026-07-11T18:46:48.246+07:00,837085609887140408,495758,438858,311507,1275
1783770408265034213,2026-07-11T18:46:48.265+07:00,837085609887140408,495828,438871,311613,1298
1783770408283216031,2026-07-11T18:46:48.283+07:00,837085609887140408,495832,438974,311620,1285
1783770408301397849,2026-07-11T18:46:48.301+07:00,837085609887140408,495956,439002,311673,1306
1783770408319579667,2026-07-11T18:46:48.319+07:00,837085609887140408,496061,439113,311798,1282
1783770408337761485,2026-07-11T18:46:48.337+07:00,837085609887140408,496185,439141,311891,1316
1783770408355943303,2026-07-11T18:46:48.355+07:00,837085609887140408,496319,439300,312051,1371
1783770408374125121,2026-07-11T18:46:48.374+07:00,837085609887140408,496391,439342,312119,1319
1783770408392306939,2026-07-11T18:46:48.392+07:00,837085609887140408,496497,439450,312240,1316
1783770408410488757,2026-07-11T18:46:48.410+07:00,837085609887140408,496657,439574,312364,1318
1783770408428670575,2026-07-11T18:46:48.428+07:00,837085609887140408,496732,439692,312524,1385
1783770408446852393,2026-07-11T18:46:48.446+07:00,837085609887140408,496911,439849,312600,1341
1783770408465034211,2026-07-11T18:46:48.465+07:00,837085609887140408,496976,439905,312702,1335
1783770408483216029,2026-07-11T18:46:48.483+07:00,837085609887140408,497095,439971,312837,1375
1783770408501397847,2026-07-11T18:46:48.501+07:00,837085609887140408,497144,440125,312879,1345
1783770408519579665,2026-07-11T18:46:48.519+07:00,837085609887140408,497111,440130,312796,1296
1783770408537761483,2026-07-11T18:46:48.537+07:00,837085609887140408,496994,440012,312663,1293
1783770408555943301,2026-07-11T18:46:48.555+07:00,837085609887140408,496755,439792,312375,1377
1783770408574125119,2026-07-11T18:46:48.574+07:00,837085610651741430,496373,439484,311982,1361
1783770408592306937,2026-07-11T18:46:48.592+07:00,837085610651741430,495981,439166,311505,1349
1783770408610488755,2026-07-11T18:46:48.610+07:00,837085610651741430,495631,438876,311185,1335
1783770408628670573,2026-07-11T18:46:48.628+07:00,837085610651741430,495317,438574,310907,1372
1783770408646852391,2026-07-11T18:46:48.646+07:00,837085610651741430,495034,438313,310636,1367
1783770408665034209,2026-07-11T18:46:48.665+07:00,837085610651741430,494871,438150,310518,1277
1783770408683216027,2026-07-11T18:46:48.683+07:00,837085610651741430,494737,438080,310425,1307
1783770408701397845,2026-07-11T18:46:48.701+07:00,837085610651741430,494708,438034,310410,1309
1783770408719579663,2026-07-11T18:46:48.719+07:00,837085610651741430,494664,437929,310401,1291
1783770408737761481,2026-07-11T18:46:48.737+07:00,837085610651741430,494641,437875,310355,1257
1783770408755943299,2026-07-11T18:46:48.755+07:00,837085610651741430,494718,437916,310472,1300
1783770408774125117,2026-07-11T18:46:48.774+07:00,837085610651741430,494723,437934,310440,1296
1783770408792306935,2026-07-11T18:46:48.792+07:00,837085610651741430,494843,437964,310523,1276
1783770408810488753,2026-07-11T18:46:48.810+07:00,837085610651741430,494770,437973,310560,1253
1783770408828670571,2026-07-11T18:46:48.828+07:00,837085610651741430,494878,438084,310642,1290
1783770408846852389,2026-07-11T18:46:48.846+07:00,837085610651741430,494939,438184,310698,1317
1783770408865034207,2026-07-11T18:46:48.865+07:00,837085610651741430,494969,438150,310681,1337
1783770408883216025,2026-07-11T18:46:48.883+07:00,837085610651741430,494975,438166,310697,1288
1783770408901397843,2026-07-11T18:46:48.901+07:00,837085610651741430,494918,438166,310687,1318
1783770408919579661,2026-07-11T18:46:48.919+07:00,837085610651741430,495004,438142,310661,1383
1783770408937761479,2026-07-11T18:46:48.937+07:00,837085610651741430,494971,438106,310749,1314
1783770408955943297,2026-07-11T18:46:48.955+07:00,837085610651741430,495025,438168,310760,1249
1783770408974125115,2026-07-11T18:46:48.974+07:00,837085610651741430,495160,438319,310906,1314
1783770408992306933,2026-07-11T18:46:48.992+07:00,837085610651741430,495106,438304,310907,1342
1783770409010488751,2026-07-11T18:46:49.010+07:00,837085610651741430,495179,438394,310989,1302
1783770409028670569,2026-07-11T18:46:49.028+07:00,837085610651741430,495388,438497,311104,1336
1783770409046852387,2026-07-11T18:46:49.046+07:00,837085610651741430,495448,438568,311166,1330
1783770409065034205,2026-07-11T18:46:49.065+07:00,837085610651741430,495593,438669,311387,1393
1783770409083216023,2026-07-11T18:46:49.083+07:00,837085610651741430,495656,438702,311468,1376
1783770409101397841,2026-07-11T18:46:49.101+07:00,837085610651741430,495825,438803,311581,1339
1783770409119579659,2026-07-11T18:46:49.119+07:00,837085610651741430,495985,438945,311708,1292
1783770409137761477,2026-07-11T18:46:49.137+07:00,837085610651741430,496083,439025,311806,1338
1783770409155943295,2026-07-11T18:46:49.155+07:00,837085610651741430,496233,439118,311934,1307
1783770409174125113,2026-07-11T18:46:49.174+07:00,837085610651741430,496413,439313,312128,1319
1783770409192306931,2026-07-11T18:46:49.192+07:00,837085610651741430,496563,439435,312197,1337
1783770409210488749,2026-07-11T18:46:49.210+07:00,837085610651741430,496655,439593,312395,1304
1783770409228670567,2026-07-11T18:46:49.228+07:00,837085610651741430,496776,439671,312460,1348
1783770409246852385,2026-07-11T18:46:49.246+07:00,837085610651741430,496768,439638,312390,1305
1783770409265034203,2026-07-11T18:46:49.265+07:00,837085610651741430,496706,439517,312240,1335
1783770409283216021,2026-07-11T18:46:49.283+07:00,837085610651741430,496438,439365,312010,1324
1783770409301397839,2026-07-11T18:46:49.301+07:00,837085610651741430,496076,438993,311590,1299
1783770409319579657,2026-07-11T18:46:49.319+07:00,837085610651741430,495626,438691,311129,1321
1783770409337761475,2026-07-11T18:46:49.337+07:00,837085611416324146,495285,438362,310764,1297
1783770409355943293,2026-07-11T18:46:49.355+07:00,837085611416324146,494949,438073,310391,1292
1783770409374125111,2026-07-11T18:46:49.374+07:00,837085611416324146,494697,437832,310220,1297
1783770409392306929,2026-07-11T18:46:49.392+07:00,837085611416324146,494489,437711,310046,1280
1783770409410488747,2026-07-11T18:46:49.410+07:00,837085611416324146,494374,437590,309930,1294
1783770409428670565,2026-07-11T18:46:49.428+07:00,837085611416324146,494363,437482,309919,1340
1783770409446852383,2026-07-11T18:46:49.446+07:00,837085611416324146,494338,437393,309942,1337
1783770409465034201,2026-07-11T18:46:49.465+07:00,837085611416324146,494312,437462,309999,1291
1783770409483216019,2026-07-11T18:46:49.483+07:00,837085611416324146,494324,437439,309975,1316
1783770409501397837,2026-07-11T18:46:49.501+07:00,837085611416324146,494362,437534,310081,1314
1783770409519579655,2026-07-11T18:46:49.519+07:00,837085611416324146,494432,437545,310090,1320
1783770409537761473,2026-07-11T18:46:49.537+07:00,837085611416324146,494501,437575,310186,1341
1783770409555943291,2026-07-11T18:46:49.555+07:00,837085611416324146,494539,437573,310230,1335
1783770409574125109,2026-07-11T18:46:49.574+07:00,837085611416324146,494571,437667,310264,1362
1783770409592306927,2026-07-11T18:46:49.592+07:00,837085611416324146,494580,437673,310317,1328
1783770409610488745,2026-07-11T18:46:49.610+07:00,837085611416324146,494562,437613,310307,1306
1783770409628670563,2026-07-11T18:46:49.628+07:00,837085611416324146,494571,437677,310298,1318
1783770409646852381,2026-07-11T18:46:49.646+07:00,837085611416324146,494621,437701,310290,1280
1783770409665034199,2026-07-11T18:46:49.665+07:00,837085611416324146,494604,437735,310359,1301
1783770409683216017,2026-07-11T18:46:49.683+07:00,837085611416324146,494660,437789,310421,1384
1783770409701397835,2026-07-11T18:46:49.701+07:00,837085611416324146,494715,437770,310528,1330
1783770409719579653,2026-07-11T18:46:49.719+07:00,837085611416324146,494766,437761,310549,1326
1783770409737761471,2026-07-11T18:46:49.737+07:00,837085611416324146,494898,437910,310653,1352
1783770409755943289,2026-07-11T18:46:49.755+07:00,837085611416324146,494987,437980,310699,1349
1783770409774125107,2026-07-11T18:46:49.774+07:00,837085611416324146,495043,438016,310786,1292
1783770409792306925,2026-07-11T18:46:49.792+07:00,837085611416324146,495166,438116,310987,1296
1783770409810488743,2026-07-11T18:46:49.810+07:00,837085611416324146,495350,438246,311035,1303
1783770409828670561,2026-07-11T18:46:49.828+07:00,837085611416324146,495473,438378,311193,1341
1783770409846852379,2026-07-11T18:46:49.846+07:00,837085611416324146,495631,438518,311377,1327
1783770409865034197,2026-07-11T18:46:49.865+07:00,837085611416324146,495722,438598,311466,1324
1783770409883216015,2026-07-11T18:46:49.883+07:00,837085611416324146,495887,438737,311649,1305
1783770409901397833,2026-07-11T18:46:49.901+07:00,837085611416324146,496020,438873,311744,1382
1783770409919579651,2026-07-11T18:46:49.919+07:00,837085611416324146,496172,438973,311877,1316
1783770409937761469,2026-07-11T18:46:49.937+07:00,837085611416324146,496272,439134,312046,1333
1783770409955943287,2026-07-11T18:46:49.955+07:00,837085611416324146,496423,439303,312128,1316
1783770409974125105,2026-07-11T18:46:49.974+07:00,837085611416324146,496600,439300,312253,1304
1783770409992306923,2026-07-11T18:46:49.992+07:00,837085611416324146,496631,439399,312278,1331
1783770410010488741,2026-07-11T18:46:50.010+07:00,837085611416324146,496511,439253,312080,1349
1783770410028670559,2026-07-11T18:46:50.028+07:00,837085611416324146,496189,439011,311707,1317
1783770410046852377,2026-07-11T18:46:50.046+07:00,837085611416324146,495834,438714,311313,1365
1783770410065034195,2026-07-11T18:46:50.065+07:00,837085611416324146,495481,438378,310867,1321
1783770410083216013,2026-07-11T18:46:50.083+07:00,837085611416324146,495040,438069,310559,1264
1783770410101397831,2026-07-11T18:46:50.101+07:00,837085612180888548,494806,437813,310334,1375
1783770410119579649,2026-07-11T18:46:50.119+07:00,837085612180888548,494527,437560,310101,1250
1783770410137761467,2026-07-11T18:46:50.137+07:00,837085612180888548,494391,437450,310016,1327
1783770410155943285,2026-07-11T18:46:50.155+07:00,837085612180888548,494272,437353,309935,1307
1783770410174125103,2026-07-11T18:46:50.174+07:00,837085612180888548,494257,437326,309913,1359
1783770410192306921,2026-07-11T18:46:50.192+07:00,837085612180888548,494234,437335,309942,1357
1783770410210488739,2026-07-11T18:46:50.210+07:00,837085612180888548,494281,437326,309967,1372
1783770410228670557,2026-07-11T18:46:50.228+07:00,837085612180888548,494305,437324,309975,1293
1783770410246852375,2026-07-11T18:46:50.246+07:00,837085612180888548,494427,437456,310140,1335
1783770410265034193,2026-07-11T18:46:50.265+07:00,837085612180888548,494445,437503,310165,1336
1783770410283216011,2026-07-11T18:46:50.283+07:00,837085612180888548,494512,437473,310286,1342
1783770410301397829,2026-07-11T18:46:50.301+07:00,837085612180888548,494535,437546,310295,1377
1783770410319579647,2026-07-11T18:46:50.319+07:00,837085612180888548,494632,437634,310324,1382
1783770410337761465,2026-07-11T18:46:50.337+07:00,837085612180888548,494661,437631,310339,1324
1783770410355943283,2026-07-11T18:46:50.355+07:00,837085612180888548,494655,437636,310384,1300
1783770410374125101,2026-07-11T18:46:50.374+07:00,837085612180888548,494666,437644,310362,1273
1783770410392306919,2026-07-11T18:46:50.392+07:00,837085612180888548,494634,437637,310437,1307
1783770410410488737,2026-07-11T18:46:50.410+07:00,837085612180888548,494715,437723,310477,1354
1783770410428670555,2026-07-11T18:46:50.428+07:00,837085612180888548,494766,437776,310561,1323
1783770410446852373,2026-07-11T18:46:50.446+07:00,837085612180888548,494837,437798,310634,1345
1783770410465034191,2026-07-11T18:46:50.465+07:00,837085612180888548,494910,437848,310685,1320
1783770410483216009,2026-07-11T18:46:50.483+07:00,837085612180888548,495060,438007,310867,1315
1783770410501397827,2026-07-11T18:46:50.501+07:00,837085612180888548,495142,438069,310962,1331
1783770410519579645,2026-07-11T18:46:50.519+07:00,837085612180888548,495268,438160,311136,1361
1783770410537761463,2026-07-11T18:46:50.537+07:00,837085612180888548,495333,438274,311205,1320
1783770410555943281,2026-07-11T18:46:50.555+07:00,837085612180888548,495578,438433,311348,1318
1783770410574125099,2026-07-11T18:46:50.574+07:00,837085612180888548,495718,438619,311455,1361
1783770410592306917,2026-07-11T18:46:50.592+07:00,837085612180888548,495894,438749,311649,1353
1783770410610488735,2026-07-11T18:46:50.610+07:00,837085612180888548,496026,438879,311831,1392
1783770410628670553,2026-07-11T18:46:50.628+07:00,837085612180888548,496194,439067,311956,1425
1783770410646852371,2026-07-11T18:46:50.646+07:00,837085612180888548,496282,439172,312093,1352
1783770410665034189,2026-07-11T18:46:50.665+07:00,837085612180888548,496463,439264,312156,1331
1783770410683216007,2026-07-11T18:46:50.683+07:00,837085612180888548,496625,439430,312308,1366
1783770410701397825,2026-07-11T18:46:50.701+07:00,837085612180888548,496780,439452,312392,1306
1783770410719579643,2026-07-11T18:46:50.719+07:00,837085612180888548,496623,439501,312347,1327
1783770410737761461,2026-07-11T18:46:50.737+07:00,837085612180888548,496581,439374,312175,1371
1783770410755943279,2026-07-11T18:46:50.755+07:00,837085612180888548,496230,439093,311845,1337
1783770410774125097,2026-07-11T18:46:50.774+07:00,837085612180888548,495874,438799,311441,1356
1783770410792306915,2026-07-11T18:46:50.792+07:00,837085612180888548,495515,438521,311125,1351
1783770410810488733,2026-07-11T18:46:50.810+07:00,837085612180888548,495236,438202,310822,1313
1783770410828670551,2026-07-11T18:46:50.828+07:00,837085612180888548,494873,437974,310528,1275
1783770410846852369,2026-07-11T18:46:50.846+07:00,837085612180888548,494735,437893,310424,1315
1783770410865034187,2026-07-11T18:46:50.865+07:00,837085612945437692,494596,437778,310335,1351
1783770410883216005,2026-07-11T18:46:50.883+07:00,837085612945437692,494529,437653,310291,1269
1783770410901397823,2026-07-11T18:46:50.901+07:00,837085612945437692,494520,437649,310303,1321
1783770410919579641,2026-07-11T18:46:50.919+07:00,837085612945437692,494556,437697,310385,1277
1783770410937761459,2026-07-11T18:46:50.937+07:00,837085612945437692,494652,437776,310517,1360
1783770410955943277,2026-07-11T18:46:50.955+07:00,837085612945437692,494759,437860,310580,1367
1783770410974125095,2026-07-11T18:46:50.974+07:00,837085612945437692,494808,437921,310694,1267
1783770410992306913,2026-07-11T18:46:50.992+07:00,837085612945437692,494937,438023,310803,1409
1783770411010488731,2026-07-11T18:46:51.010+07:00,837085612945437692,494975,438110,310838,1399
1783770411028670549,2026-07-11T18:46:51.028+07:00,837085612945437692,495042,438074,310918,1401
1783770411046852367,2026-07-11T18:46:51.046+07:00,837085612945437692,495018,438132,310900,1362
1783770411065034185,2026-07-11T18:46:51.065+07:00,837085612945437692,495092,438195,310955,1334
1783770411083216003,2026-07-11T18:46:51.083+07:00,837085612945437692,495093,438200,311016,1317
1783770411101397821,2026-07-11T18:46:51.101+07:00,837085612945437692,495111,438184,310995,1396
1783770411119579639,2026-07-11T18:46:51.119+07:00,837085612945437692,495228,438243,311086,1385
1783770411137761457,2026-07-11T18:46:51.137+07:00,837085612945437692,495182,438316,311091,1361
1783770411155943275,2026-07-11T18:46:51.155+07:00,837085612945437692,495301,438404,311145,1333
1783770411174125093,2026-07-11T18:46:51.174+07:00,837085612945437692,495389,438444,311200,1360
1783770411192306911,2026-07-11T18:46:51.192+07:00,837085612945437692,495428,438474,311371,1404
1783770411210488729,2026-07-11T18:46:51.210+07:00,837085612945437692,495572,438612,311484,1386
1783770411228670547,2026-07-11T18:46:51.228+07:00,837085612945437692,495606,438660,311529,1285
1783770411246852365,2026-07-11T18:46:51.246+07:00,837085612945437692,495808,438843,311720,1353
1783770411265034183,2026-07-11T18:46:51.265+07:00,837085612945437692,495893,438941,311868,1286
1783770411283216001,2026-07-11T18:46:51.283+07:00,837085612945437692,496097,439031,312008,1355
1783770411301397819,2026-07-11T18:46:51.301+07:00,837085612945437692,496224,439173,312058,1351
1783770411319579637,2026-07-11T18:46:51.319+07:00,837085612945437692,496389,439390,312235,1374
1783770411337761455,2026-07-11T18:46:51.337+07:00,837085612945437692,496530,439466,312427,1336
1783770411355943273,2026-07-11T18:46:51.355+07:00,837085612945437692,496760,439617,312632,1380
1783770411374125091,2026-07-11T18:46:51.374+07:00,837085612945437692,496919,439772,312744,1368
1783770411392306909,2026-07-11T18:46:51.392+07:00,837085612945437692,497011,439914,312887,1291
1783770411410488727,2026-07-11T18:46:51.410+07:00,837085612945437692,497208,439952,313025,1353
1783770411428670545,2026-07-11T18:46:51.428+07:00,837085612945437692,497300,440058,313002,1306
1783770411446852363,2026-07-11T18:46:51.446+07:00,837085612945437692,497194,440050,312888,1343
1783770411465034181,2026-07-11T18:46:51.465+07:00,837085612945437692,497000,439885,312638,1379
1783770411483215999,2026-07-11T18:46:51.483+07:00,837085612945437692,496657,439654,312337,1317
1783770411501397817,2026-07-11T18:46:51.501+07:00,837085612945437692,496249,439257,311929,1280
1783770411519579635,2026-07-11T18:46:51.519+07:00,837085612945437692,495994,439013,311634,1277
1783770411537761453,2026-07-11T18:46:51.537+07:00,837085612945437692,495678,438796,311369,1304
1783770411555943271,2026-07-11T18:46:51.555+07:00,837085612945437692,495517,438652,311205,1303
1783770411574125089,2026-07-11T18:46:51.574+07:00,837085612945437692,495366,438572,311173,1325
1783770411592306907,2026-07-11T18:46:51.592+07:00,837085612945437692,495296,438458,311121,1280
1783770411610488725,2026-07-11T18:46:51.610+07:00,837085612945437692,495276,438434,311118,1353
1783770411628670543,2026-07-11T18:46:51.628+07:00,837085613710035664,495327,438546,311261,1379
1783770411646852361,2026-07-11T18:46:51.646+07:00,837085613710035664,495372,438597,311337,1327
1783770411665034179,2026-07-11T18:46:51.665+07:00,837085613710035664,495456,438653,311438,1321
1783770411683215997,2026-07-11T18:46:51.683+07:00,837085613710035664,495570,438780,311570,1326
1783770411701397815,2026-07-11T18:46:51.701+07:00,837085613710035664,495752,438816,311683,1377
1783770411719579633,2026-07-11T18:46:51.719+07:00,837085613710035664,495754,438908,311801,1268
1783770411737761451,2026-07-11T18:46:51.737+07:00,837085613710035664,495804,438959,311745,1331
1783770411755943269,2026-07-11T18:46:51.755+07:00,837085613710035664,495878,439007,311809,1294
1783770411774125087,2026-07-11T18:46:51.774+07:00,837085613710035664,495928,439027,311842,1344
1783770411792306905,2026-07-11T18:46:51.792+07:00,837085613710035664,495895,439016,311789,1281
1783770411810488723,2026-07-11T18:46:51.810+07:00,837085613710035664,495887,439088,311844,1247
1783770411828670541,2026-07-11T18:46:51.828+07:00,837085613710035664,495911,439104,311862,1319
1783770411846852359,2026-07-11T18:46:51.846+07:00,837085613710035664,495959,439151,311926,1288
1783770411865034177,2026-07-11T18:46:51.865+07:00,837085613710035664,496119,439239,312048,1337
1783770411883215995,2026-07-11T18:46:51.883+07:00,837085613710035664,496183,439281,312101,1385
1783770411901397813,2026-07-11T18:46:51.901+07:00,837085613710035664,496280,439342,312131,1324
1783770411919579631,2026-07-11T18:46:51.919+07:00,837085613710035664,496350,439471,312336,1350
1783770411937761449,2026-07-11T18:46:51.937+07:00,837085613710035664,496439,439533,312443,1314
1783770411955943267,2026-07-11T18:46:51.955+07:00,837085613710035664,496581,439639,312505,1332
1783770411974125085,2026-07-11T18:46:51.974+07:00,837085613710035664,496724,439772,312659,1376
1783770411992306903,2026-07-11T18:46:51.992+07:00,837085613710035664,496846,439815,312795,1358
1783770412010488721,2026-07-11T18:46:52.010+07:00,837085613710035664,497011,439997,312952,1330
1783770412028670539,2026-07-11T18:46:52.028+07:00,837085613710035664,497194,440140,313118,1352
1783770412046852357,2026-07-11T18:46:52.046+07:00,837085613710035664,497320,440276,313234,1349
1783770412065034175,2026-07-11T18:46:52.065+07:00,837085613710035664,497433,440428,313401,1358
1783770412083215993,2026-07-11T18:46:52.083+07:00,837085613710035664,497586,440543,313478,1316
1783770412101397811,2026-07-11T18:46:52.101+07:00,837085613710035664,497674,440635,313574,1374
1783770412119579629,2026-07-11T18:46:52.119+07:00,837085613710035664,497779,440719,313617,1362
1783770412137761447,2026-07-11T18:46:52.137+07:00,837085613710035664,497614,440687,313490,1335
1783770412155943265,2026-07-11T18:46:52.155+07:00,837085613710035664,497373,440432,313183,1314
1783770412174125083,2026-07-11T18:46:52.174+07:00,837085613710035664,497069,440187,312830,1319
1783770412192306901,2026-07-11T18:46:52.192+07:00,837085613710035664,496737,439903,312514,1347
1783770412210488719,2026-07-11T18:46:52.210+07:00,837085613710035664,496427,439599,312222,1310
1783770412228670537,2026-07-11T18:46:52.228+07:00,837085613710035664,496138,439329,311915,1319
1783770412246852355,2026-07-11T18:46:52.246+07:00,837085613710035664,495966,439143,311787,1303
1783770412265034173,2026-07-11T18:46:52.265+07:00,837085613710035664,495849,439062,311646,1334
1783770412283215991,2026-07-11T18:46:52.283+07:00,837085613710035664,495761,439028,311674,1293
1783770412301397809,2026-07-11T18:46:52.301+07:00,837085613710035664,495742,438974,311711,1345
1783770412319579627,2026-07-11T18:46:52.319+07:00,837085613710035664,495796,439042,311812,1333
1783770412337761445,2026-07-11T18:46:52.337+07:00,837085613710035664,495853,439087,311902,1347
1783770412355943263,2026-07-11T18:46:52.355+07:00,837085613710035664,496015,439116,312060,1355
1783770412374125081,2026-07-11T18:46:52.374+07:00,837085613710035664,496114,439253,312199,1339
1783770412392306899,2026-07-11T18:46:52.392+07:00,837085614474624468,496233,439359,312217,1319
1783770412410488717,2026-07-11T18:46:52.410+07:00,837085614474624468,496320,439429,312305,1360
1783770412428670535,2026-07-11T18:46:52.428+07:00,837085614474624468,496413,439450,312367,1392
1783770412446852353,2026-07-11T18:46:52.446+07:00,837085614474624468,496402,439468,312358,1342
1783770412465034171,2026-07-11T18:46:52.465+07:00,837085614474624468,496379,439596,312399,1276
1783770412483215989,2026-07-11T18:46:52.483+07:00,837085614474624468,496402,439593,312390,1288
1783770412501397807,2026-07-11T18:46:52.501+07:00,837085614474624468,496480,439584,312381,1339
1783770412519579625,2026-07-11T18:46:52.519+07:00,837085614474624468,496441,439519,312344,1238
1783770412537761443,2026-07-11T18:46:52.537+07:00,837085614474624468,496490,439573,312460,1351
1783770412555943261,2026-07-11T18:46:52.555+07:00,837085614474624468,496501,439650,312507,1311
1783770412574125079,2026-07-11T18:46:52.574+07:00,837085614474624468,496616,439680,312603,1331
1783770412592306897,2026-07-11T18:46:52.592+07:00,837085614474624468,496624,439782,312690,1360
1783770412610488715,2026-07-11T18:46:52.610+07:00,837085614474624468,496727,439779,312775,1326
1783770412628670533,2026-07-11T18:46:52.628+07:00,837085614474624468,496866,439918,312796,1317
1783770412646852351,2026-07-11T18:46:52.646+07:00,837085614474624468,497051,440017,313001,1305
1783770412665034169,2026-07-11T18:46:52.665+07:00,837085614474624468,497163,440142,313155,1336
1783770412683215987,2026-07-11T18:46:52.683+07:00,837085614474624468,497320,440241,313228,1390
1783770412701397805,2026-07-11T18:46:52.701+07:00,837085614474624468,497401,440344,313376,1384
1783770412719579623,2026-07-11T18:46:52.719+07:00,837085614474624468,497591,440520,313583,1327
1783770412737761441,2026-07-11T18:46:52.737+07:00,837085614474624468,497745,440678,313748,1348
1783770412755943259,2026-07-11T18:46:52.755+07:00,837085614474624468,497915,440722,313796,1282
1783770412774125077,2026-07-11T18:46:52.774+07:00,837085614474624468,498056,440809,313905,1324
1783770412792306895,2026-07-11T18:46:52.792+07:00,837085614474624468,498129,440916,313942,1323
1783770412810488713,2026-07-11T18:46:52.810+07:00,837085614474624468,497943,440869,313770,1377
1783770412828670531,2026-07-11T18:46:52.828+07:00,837085614474624468,497693,440676,313507,1435
1783770412846852349,2026-07-11T18:46:52.846+07:00,837085614474624468,497276,440383,313127,1386
1783770412865034167,2026-07-11T18:46:52.865+07:00,837085614474624468,496936,440062,312830,1382
1783770412883215985,2026-07-11T18:46:52.883+07:00,837085614474624468,496621,439756,312514,1326
1783770412901397803,2026-07-11T18:46:52.901+07:00,837085614474624468,496353,439486,312261,1305
1783770412919579621,2026-07-11T18:46:52.919+07:00,837085614474624468,496146,439272,312095,1315
1783770412937761439,2026-07-11T18:46:52.937+07:00,837085614474624468,496044,439202,311982,1370
1783770412955943257,2026-07-11T18:46:52.955+07:00,837085614474624468,495978,439073,311922,1330
1783770412974125075,2026-07-11T18:46:52.974+07:00,837085614474624468,495965,439091,311960,1279
1783770412992306893,2026-07-11T18:46:52.992+07:00,837085614474624468,496052,439165,312050,1350
1783770413010488711,2026-07-11T18:46:53.010+07:00,837085614474624468,496083,439189,312109,1371
1783770413028670529,2026-07-11T18:46:53.028+07:00,837085614474624468,496169,439312,312171,1383
1783770413046852347,2026-07-11T18:46:53.046+07:00,837085614474624468,496266,439339,312307,1365
1783770413065034165,2026-07-11T18:46:53.065+07:00,837085614474624468,496302,439428,312402,1352
1783770413083215983,2026-07-11T18:46:53.083+07:00,837085614474624468,496411,439499,312512,1311
1783770413101397801,2026-07-11T18:46:53.101+07:00,837085614474624468,496553,439577,312564,1356
1783770413119579619,2026-07-11T18:46:53.119+07:00,837085614474624468,496548,439634,312602,1317
1783770413137761437,2026-07-11T18:46:53.137+07:00,837085614474624468,496629,439640,312559,1305
1783770413155943255,2026-07-11T18:46:53.155+07:00,837085615239225490,496627,439662,312587,1391
1783770413174125073,2026-07-11T18:46:53.174+07:00,837085615239225490,496653,439687,312617,1367
1783770413192306891,2026-07-11T18:46:53.192+07:00,837085615239225490,496701,439708,312596,1339
1783770413210488709,2026-07-11T18:46:53.210+07:00,837085615239225490,496757,439745,312698,1361
1783770413228670527,2026-07-11T18:46:53.228+07:00,837085615239225490,496784,439783,312751,1335
1783770413246852345,2026-07-11T18:46:53.246+07:00,837085615239225490,496897,439812,312817,1347
1783770413265034163,2026-07-11T18:46:53.265+07:00,837085615239225490,496930,439895,312892,1239
1783770413283215981,2026-07-11T18:46:53.283+07:00,837085615239225490,497081,440029,312992,1338
1783770413301397799,2026-07-11T18:46:53.301+07:00,837085615239225490,497209,440183,313170,1318
1783770413319579617,2026-07-11T18:46:53.319+07:00,837085615239225490,497303,440258,313298,1297
1783770413337761435,2026-07-11T18:46:53.337+07:00,837085615239225490,497431,440339,313449,1341
1783770413355943253,2026-07-11T18:46:53.355+07:00,837085615239225490,497585,440499,313580,1358
1783770413374125071,2026-07-11T18:46:53.374+07:00,837085615239225490,497693,440606,313718,1300
1783770413392306889,2026-07-11T18:46:53.392+07:00,837085615239225490,497904,440748,313862,1401
1783770413410488707,2026-07-11T18:46:53.410+07:00,837085615239225490,498023,440841,314009,1333
1783770413428670525,2026-07-11T18:46:53.428+07:00,837085615239225490,498179,440959,314133,1335
1783770413446852343,2026-07-11T18:46:53.446+07:00,837085615239225490,498273,441148,314270,1309
1783770413465034161,2026-07-11T18:46:53.465+07:00,837085615239225490,498371,441214,314295,1331
1783770413483215979,2026-07-11T18:46:53.483+07:00,837085615239225490,498382,441196,314203,1405
1783770413501397797,2026-07-11T18:46:53.501+07:00,837085615239225490,498243,441069,314073,1392
1783770413519579615,2026-07-11T18:46:53.519+07:00,837085615239225490,497944,440817,313715,1383
1783770413537761433,2026-07-11T18:46:53.537+07:00,837085615239225490,497563,440451,313287,1399
1783770413555943251,2026-07-11T18:46:53.555+07:00,837085615239225490,497148,440147,312902,1342
1783770413574125069,2026-07-11T18:46:53.574+07:00,837085615239225490,496732,439817,312593,1288
1783770413592306887,2026-07-11T18:46:53.592+07:00,837085615239225490,496480,439550,312381,1337
1783770413610488705,2026-07-11T18:46:53.610+07:00,837085615239225490,496344,439453,312238,1375
1783770413628670523,2026-07-11T18:46:53.628+07:00,837085615239225490,496201,439288,312227,1385
1783770413646852341,2026-07-11T18:46:53.646+07:00,837085615239225490,496123,439309,312177,1341
1783770413665034159,2026-07-11T18:46:53.665+07:00,837085615239225490,496042,439218,312100,1318
1783770413683215977,2026-07-11T18:46:53.683+07:00,837085615239225490,496175,439242,312218,1283
1783770413701397795,2026-07-11T18:46:53.701+07:00,837085615239225490,496204,439298,312246,1282
1783770413719579613,2026-07-11T18:46:53.719+07:00,837085615239225490,496300,439333,312302,1280
1783770413737761431,2026-07-11T18:46:53.737+07:00,837085615239225490,496349,439417,312427,1343
1783770413755943249,2026-07-11T18:46:53.755+07:00,837085615239225490,496520,439438,312520,1333
1783770413774125067,2026-07-11T18:46:53.774+07:00,837085615239225490,496531,439527,312525,1319
1783770413792306885,2026-07-11T18:46:53.792+07:00,837085615239225490,496576,439630,312585,1350
1783770413810488703,2026-07-11T18:46:53.810+07:00,837085615239225490,496574,439613,312571,1324
1783770413828670521,2026-07-11T18:46:53.828+07:00,837085615239225490,496644,439651,312614,1374
1783770413846852339,2026-07-11T18:46:53.846+07:00,837085615239225490,496693,439698,312660,1372
1783770413865034157,2026-07-11T18:46:53.865+07:00,837085615239225490,496690,439706,312673,1330
1783770413883215975,2026-07-11T18:46:53.883+07:00,837085615239225490,496680,439703,312689,1361
1783770413901397793,2026-07-11T18:46:53.901+07:00,837085615239225490,496769,439700,312667,1382
1783770413919579611,2026-07-11T18:46:53.919+07:00,837085616003799062,496817,439777,312825,1323
1783770413937761429,2026-07-11T18:46:53.937+07:00,837085616003799062,496888,439764,312858,1365
1783770413955943247,2026-07-11T18:46:53.955+07:00,837085616003799062,496991,439880,312986,1332
1783770413974125065,2026-07-11T18:46:53.974+07:00,837085616003799062,497120,439965,313081,1388
1783770413992306883,2026-07-11T18:46:53.992+07:00,837085616003799062,497151,440065,313183,1283
1783770414010488701,2026-07-11T18:46:54.010+07:00,837085616003799062,497337,440184,313343,1270
1783770414028670519,2026-07-11T18:46:54.028+07:00,837085616003799062,497480,440336,313466,1366
1783770414046852337,2026-07-11T18:46:54.046+07:00,837085616003799062,497615,440490,313644,1375
1783770414065034155,2026-07-11T18:46:54.065+07:00,837085616003799062,497766,440622,313790,1355
1783770414083215973,2026-07-11T18:46:54.083+07:00,837085616003799062,497929,440732,313859,1316
1783770414101397791,2026-07-11T18:46:54.101+07:00,837085616003799062,498109,440856,313965,1354
1783770414119579609,2026-07-11T18:46:54.119+07:00,837085616003799062,498234,440943,314132,1376
1783770414137761427,2026-07-11T18:46:54.137+07:00,837085616003799062,498342,441020,314243,1308
1783770414155943245,2026-07-11T18:46:54.155+07:00,837085616003799062,498421,441048,314230,1326
1783770414174125063,2026-07-11T18:46:54.174+07:00,837085616003799062,498261,441016,314166,1308
1783770414192306881,2026-07-11T18:46:54.192+07:00,837085616003799062,498049,440779,313820,1330
1783770414210488699,2026-07-11T18:46:54.210+07:00,837085616003799062,497619,440481,313409,1323
1783770414228670517,2026-07-11T18:46:54.228+07:00,837085616003799062,497252,440171,313016,1314
1783770414246852335,2026-07-11T18:46:54.246+07:00,837085616003799062,496854,439765,312667,1336
1783770414265034153,2026-07-11T18:46:54.265+07:00,837085616003799062,496613,439544,312435,1384
1783770414283215971,2026-07-11T18:46:54.283+07:00,837085616003799062,496376,439371,312249,1337
1783770414301397789,2026-07-11T18:46:54.301+07:00,837085616003799062,496192,439174,312152,1306
1783770414319579607,2026-07-11T18:46:54.319+07:00,837085616003799062,496098,439055,312111,1310
1783770414337761425,2026-07-11T18:46:54.337+07:00,837085616003799062,496076,439056,312070,1296
1783770414355943243,2026-07-11T18:46:54.355+07:00,837085616003799062,496126,439072,312093,1325
1783770414374125061,2026-07-11T18:46:54.374+07:00,837085616003799062,496171,439086,312113,1335
1783770414392306879,2026-07-11T18:46:54.392+07:00,837085616003799062,496216,439129,312192,1306
1783770414410488697,2026-07-11T18:46:54.410+07:00,837085616003799062,496342,439202,312332,1368
1783770414428670515,2026-07-11T18:46:54.428+07:00,837085616003799062,496317,439169,312346,1300
1783770414446852333,2026-07-11T18:46:54.446+07:00,837085616003799062,496389,439231,312386,1331
1783770414465034151,2026-07-11T18:46:54.465+07:00,837085616003799062,496533,439403,312507,1310
1783770414483215969,2026-07-11T18:46:54.483+07:00,837085616003799062,496619,439405,312542,1311
1783770414501397787,2026-07-11T18:46:54.501+07:00,837085616003799062,496619,439395,312531,1304
1783770414519579605,2026-07-11T18:46:54.519+07:00,837085616003799062,496650,439349,312525,1306
1783770414537761423,2026-07-11T18:46:54.537+07:00,837085616003799062,496626,439389,312531,1325
1783770414555943241,2026-07-11T18:46:54.555+07:00,837085616003799062,496672,439423,312622,1332
1783770414574125059,2026-07-11T18:46:54.574+07:00,837085616003799062,496716,439454,312595,1357
1783770414592306877,2026-07-11T18:46:54.592+07:00,837085616003799062,496780,439509,312692,1391
1783770414610488695,2026-07-11T18:46:54.610+07:00,837085616003799062,496878,439491,312714,1389
1783770414628670513,2026-07-11T18:46:54.628+07:00,837085616003799062,497006,439704,312894,1411
1783770414646852331,2026-07-11T18:46:54.646+07:00,837085616003799062,497018,439711,312967,1341
1783770414665034149,2026-07-11T18:46:54.665+07:00,837085616003799062,497167,439761,313011,1317
1783770414683215967,2026-07-11T18:46:54.683+07:00,837085616768397034,497255,439877,313101,1291
1783770414701397785,2026-07-11T18:46:54.701+07:00,837085616768397034,497361,439960,313273,1281
1783770414719579603,2026-07-11T18:46:54.719+07:00,837085616768397034,497500,440130,313404,1287
1783770414737761421,2026-07-11T18:46:54.737+07:00,837085616768397034,497664,440273,313554,1299
1783770414755943239,2026-07-11T18:46:54.755+07:00,837085616768397034,497879,440434,313685,1306
1783770414774125057,2026-07-11T18:46:54.774+07:00,837085616768397034,497909,440442,313782,1262
1783770414792306875,2026-07-11T18:46:54.792+07:00,837085616768397034,498120,440648,313861,1315
1783770414810488693,2026-07-11T18:46:54.810+07:00,837085616768397034,498179,440636,313861,1338
1783770414828670511,2026-07-11T18:46:54.828+07:00,837085616768397034,498101,440561,313720,1358
1783770414846852329,2026-07-11T18:46:54.846+07:00,837085616768397034,497840,440393,313545,1349
1783770414865034147,2026-07-11T18:46:54.865+07:00,837085616768397034,497492,440122,313185,1343
1783770414883215965,2026-07-11T18:46:54.883+07:00,837085616768397034,497142,439799,312819,1285
1783770414901397783,2026-07-11T18:46:54.901+07:00,837085616768397034,496776,439542,312455,1337
1783770414919579601,2026-07-11T18:46:54.919+07:00,837085616768397034,496497,439299,312240,1314
1783770414937761419,2026-07-11T18:46:54.937+07:00,837085616768397034,496320,439122,312080,1348
1783770414955943237,2026-07-11T18:46:54.955+07:00,837085616768397034,496180,438932,311961,1331
1783770414974125055,2026-07-11T18:46:54.974+07:00,837085616768397034,496133,438883,311904,1323
1783770414992306873,2026-07-11T18:46:54.992+07:00,837085616768397034,496053,438777,311906,1292
1783770415010488691,2026-07-11T18:46:55.010+07:00,837085616768397034,496029,438837,311960,1322
1783770415028670509,2026-07-11T18:46:55.028+07:00,837085616768397034,496083,438860,312015,1277
1783770415046852327,2026-07-11T18:46:55.046+07:00,837085616768397034,496229,438953,312183,1321
1783770415065034145,2026-07-11T18:46:55.065+07:00,837085616768397034,496294,439040,312203,1287
1783770415083215963,2026-07-11T18:46:55.083+07:00,837085616768397034,496403,439093,312302,1339
1783770415101397781,2026-07-11T18:46:55.101+07:00,837085616768397034,496538,439245,312351,1317
1783770415119579599,2026-07-11T18:46:55.119+07:00,837085616768397034,496570,439304,312427,1302
1783770415137761417,2026-07-11T18:46:55.137+07:00,837085616768397034,496643,439337,312468,1273
1783770415155943235,2026-07-11T18:46:55.155+07:00,837085616768397034,496692,439436,312593,1350
1783770415174125053,2026-07-11T18:46:55.174+07:00,837085616768397034,496706,439439,312581,1299
1783770415192306871,2026-07-11T18:46:55.192+07:00,837085616768397034,496801,439502,312628,1354
1783770415210488689,2026-07-11T18:46:55.210+07:00,837085616768397034,496864,439507,312656,1345
1783770415228670507,2026-07-11T18:46:55.228+07:00,837085616768397034,496877,439533,312687,1269
1783770415246852325,2026-07-11T18:46:55.246+07:00,837085616768397034,496983,439636,312767,1349
1783770415265034143,2026-07-11T18:46:55.265+07:00,837085616768397034,497078,439645,312818,1377
1783770415283215961,2026-07-11T18:46:55.283+07:00,837085616768397034,497100,439695,312898,1327
1783770415301397779,2026-07-11T18:46:55.301+07:00,837085616768397034,497229,439755,313024,1300
1783770415319579597,2026-07-11T18:46:55.319+07:00,837085616768397034,497314,439889,313122,1255
1783770415337761415,2026-07-11T18:46:55.337+07:00,837085616768397034,497523,440049,313242,1376
1783770415355943233,2026-07-11T18:46:55.355+07:00,837085616768397034,497649,440152,313355,1317
1783770415374125051,2026-07-11T18:46:55.374+07:00,837085616768397034,497761,440269,313564,1343
1783770415392306869,2026-07-11T18:46:55.392+07:00,837085616768397034,497861,440404,313692,1357
1783770415410488687,2026-07-11T18:46:55.410+07:00,837085616768397034,498085,440579,313850,1371
1783770415428670505,2026-07-11T18:46:55.428+07:00,837085616768397034,498222,440696,313993,1365
1783770415446852323,2026-07-11T18:46:55.446+07:00,837085617532967538,498418,440769,314110,1325
1783770415465034141,2026-07-11T18:46:55.465+07:00,837085617532967538,498549,440929,314226,1374
1783770415483215959,2026-07-11T18:46:55.483+07:00,837085617532967538,498597,441005,314298,1288
1783770415501397777,2026-07-11T18:46:55.501+07:00,837085617532967538,498597,440968,314245,1298
1783770415519579595,2026-07-11T18:46:55.519+07:00,837085617532967538,498406,440829,313986,1289
1783770415537761413,2026-07-11T18:46:55.537+07:00,837085617532967538,498185,440614,313748,1320
1783770415555943231,2026-07-11T18:46:55.555+07:00,837085617532967538,497795,440294,313321,1307
1783770415574125049,2026-07-11T18:46:55.574+07:00,837085617532967538,497407,440046,313000,1357
1783770415592306867,2026-07-11T18:46:55.592+07:00,837085617532967538,497125,439812,312708,1299
1783770415610488685,2026-07-11T18:46:55.610+07:00,837085617532967538,496894,439560,312524,1290
1783770415628670503,2026-07-11T18:46:55.628+07:00,837085617532967538,496769,439472,312390,1342
1783770415646852321,2026-07-11T18:46:55.646+07:00,837085617532967538,496718,439369,312377,1339
1783770415665034139,2026-07-11T18:46:55.665+07:00,837085617532967538,496640,439417,312425,1303
1783770415683215957,2026-07-11T18:46:55.683+07:00,837085617532967538,496727,439371,312392,1351
1783770415701397775,2026-07-11T18:46:55.701+07:00,837085617532967538,496750,439461,312521,1314
1783770415719579593,2026-07-11T18:46:55.719+07:00,837085617532967538,496885,439510,312711,1334
1783770415737761411,2026-07-11T18:46:55.737+07:00,837085617532967538,496979,439551,312722,1324
1783770415755943229,2026-07-11T18:46:55.755+07:00,837085617532967538,497099,439693,312838,1303
1783770415774125047,2026-07-11T18:46:55.774+07:00,837085617532967538,497134,439742,312824,1255
1783770415792306865,2026-07-11T18:46:55.792+07:00,837085617532967538,497294,439748,312917,1333
1783770415810488683,2026-07-11T18:46:55.810+07:00,837085617532967538,497306,439882,312992,1328
1783770415828670501,2026-07-11T18:46:55.828+07:00,837085617532967538,497350,439961,313068,1332
1783770415846852319,2026-07-11T18:46:55.846+07:00,837085617532967538,497475,440054,313101,1309
1783770415865034137,2026-07-11T18:46:55.865+07:00,837085617532967538,497421,439969,313163,1333
1783770415883215955,2026-07-11T18:46:55.883+07:00,837085617532967538,497431,440026,313103,1298
1783770415901397773,2026-07-11T18:46:55.901+07:00,837085617532967538,497593,440041,313233,1301
1783770415919579591,2026-07-11T18:46:55.919+07:00,837085617532967538,497635,440133,313274,1334
1783770415937761409,2026-07-11T18:46:55.937+07:00,837085617532967538,497736,440195,313388,1307
1783770415955943227,2026-07-11T18:46:55.955+07:00,837085617532967538,497802,440227,313433,1338
1783770415974125045,2026-07-11T18:46:55.974+07:00,837085617532967538,497915,440346,313497,1297
1783770415992306863,2026-07-11T18:46:55.992+07:00,837085617532967538,498074,440516,313628,1328
1783770416010488681,2026-07-11T18:46:56.010+07:00,837085617532967538,498147,440634,313776,1316
1783770416028670499,2026-07-11T18:46:56.028+07:00,837085617532967538,498308,440745,313864,1286
1783770416046852317,2026-07-11T18:46:56.046+07:00,837085617532967538,498385,440850,313962,1344
1783770416065034135,2026-07-11T18:46:56.065+07:00,837085617532967538,498543,440931,314087,1268
1783770416083215953,2026-07-11T18:46:56.083+07:00,837085617532967538,498721,441069,314234,1327
1783770416101397771,2026-07-11T18:46:56.101+07:00,837085617532967538,498888,441195,314429,1330
1783770416119579589,2026-07-11T18:46:56.119+07:00,837085617532967538,499029,441377,314538,1291
1783770416137761407,2026-07-11T18:46:56.137+07:00,837085617532967538,499177,441604,314739,1373
1783770416155943225,2026-07-11T18:46:56.155+07:00,837085617532967538,499320,441654,314834,1302
1783770416174125043,2026-07-11T18:46:56.174+07:00,837085617532967538,499417,441774,314866,1298
1783770416192306861,2026-07-11T18:46:56.192+07:00,837085617532967538,499523,441788,314854,1318
1783770416210488679,2026-07-11T18:46:56.210+07:00,837085618297562460,499410,441765,314806,1306
1783770416228670497,2026-07-11T18:46:56.228+07:00,837085618297562460,499126,441554,314516,1289
1783770416246852315,2026-07-11T18:46:56.246+07:00,837085618297562460,498834,441267,314242,1304
1783770416265034133,2026-07-11T18:46:56.265+07:00,837085618297562460,498492,440977,313934,1345
1783770416283215951,2026-07-11T18:46:56.283+07:00,837085618297562460,498226,440712,313559,1320
1783770416301397769,2026-07-11T18:46:56.301+07:00,837085618297562460,497961,440480,313353,1285
1783770416319579587,2026-07-11T18:46:56.319+07:00,837085618297562460,497804,440421,313257,1301
1783770416337761405,2026-07-11T18:46:56.337+07:00,837085618297562460,497759,440324,313167,1289
1783770416355943223,2026-07-11T18:46:56.355+07:00,837085618297562460,497711,440400,313189,1291
1783770416374125041,2026-07-11T18:46:56.374+07:00,837085618297562460,497726,440297,313191,1287
1783770416392306859,2026-07-11T18:46:56.392+07:00,837085618297562460,497790,440369,313290,1299
1783770416410488677,2026-07-11T18:46:56.410+07:00,837085618297562460,497895,440390,313357,1304
1783770416428670495,2026-07-11T18:46:56.428+07:00,837085618297562460,497972,440461,313428,1252
1783770416446852313,2026-07-11T18:46:56.446+07:00,837085618297562460,498079,440627,313552,1293
1783770416465034131,2026-07-11T18:46:56.465+07:00,837085618297562460,498218,440697,313667,1283
1783770416483215949,2026-07-11T18:46:56.483+07:00,837085618297562460,498307,440857,313754,1350
1783770416501397767,2026-07-11T18:46:56.501+07:00,837085618297562460,498371,440855,313756,1335
1783770416519579585,2026-07-11T18:46:56.519+07:00,837085618297562460,498322,440865,313820,1307
1783770416537761403,2026-07-11T18:46:56.537+07:00,837085618297562460,498424,440934,313848,1318
1783770416555943221,2026-07-11T18:46:56.555+07:00,837085618297562460,498473,440900,313876,1323
1783770416574125039,2026-07-11T18:46:56.574+07:00,837085618297562460,498449,440867,313859,1317
1783770416592306857,2026-07-11T18:46:56.592+07:00,837085618297562460,498524,440971,313870,1337
1783770416610488675,2026-07-11T18:46:56.610+07:00,837085618297562460,498585,441077,313958,1368
1783770416628670493,2026-07-11T18:46:56.628+07:00,837085618297562460,498575,441138,313956,1351
1783770416646852311,2026-07-11T18:46:56.646+07:00,837085618297562460,498737,441230,314076,1315
1783770416665034129,2026-07-11T18:46:56.665+07:00,837085618297562460,498836,441274,314159,1263
1783770416683215947,2026-07-11T18:46:56.683+07:00,837085618297562460,498873,441294,314285,1259
1783770416701397765,2026-07-11T18:46:56.701+07:00,837085618297562460,499040,441417,314360,1292
1783770416719579583,2026-07-11T18:46:56.719+07:00,837085618297562460,499107,441554,314479,1324
1783770416737761401,2026-07-11T18:46:56.737+07:00,837085618297562460,499246,441649,314619,1367
1783770416755943219,2026-07-11T18:46:56.755+07:00,837085618297562460,499360,441814,314744,1352
1783770416774125037,2026-07-11T18:46:56.774+07:00,837085618297562460,499532,441898,314882,1319
1783770416792306855,2026-07-11T18:46:56.792+07:00,837085618297562460,499704,442044,315054,1383
1783770416810488673,2026-07-11T18:46:56.810+07:00,837085618297562460,499828,442172,315175,1331
1783770416828670491,2026-07-11T18:46:56.828+07:00,837085618297562460,499915,442311,315273,1320
1783770416846852309,2026-07-11T18:46:56.846+07:00,837085618297562460,500039,442356,315283,1272
1783770416865034127,2026-07-11T18:46:56.865+07:00,837085618297562460,500107,442369,315322,1300
1783770416883215945,2026-07-11T18:46:56.883+07:00,837085618297562460,499990,442332,315193,1297
1783770416901397763,2026-07-11T18:46:56.901+07:00,837085618297562460,499766,442132,314908,1323
1783770416919579581,2026-07-11T18:46:56.919+07:00,837085618297562460,499479,441931,314637,1253
1783770416937761399,2026-07-11T18:46:56.937+07:00,837085618297562460,499233,441717,314329,1377
1783770416955943217,2026-07-11T18:46:56.955+07:00,837085618297562460,498952,441413,314091,1326
1783770416974125035,2026-07-11T18:46:56.974+07:00,837085619062200100,498731,441172,313894,1379
1783770416992306853,2026-07-11T18:46:56.992+07:00,837085619062200100,498541,441062,313725,1359
1783770417010488671,2026-07-11T18:46:57.010+07:00,837085619062200100,498429,440957,313634,1349
1783770417028670489,2026-07-11T18:46:57.028+07:00,837085619062200100,498371,440924,313570,1333
1783770417046852307,2026-07-11T18:46:57.046+07:00,837085619062200100,498402,441016,313659,1281
1783770417065034125,2026-07-11T18:46:57.065+07:00,837085619062200100,498443,441034,313709,1320
1783770417083215943,2026-07-11T18:46:57.083+07:00,837085619062200100,498562,441091,313832,1301
1783770417101397761,2026-07-11T18:46:57.101+07:00,837085619062200100,498695,441186,314005,1383
1783770417119579579,2026-07-11T18:46:57.119+07:00,837085619062200100,498756,441284,314059,1276
1783770417137761397,2026-07-11T18:46:57.137+07:00,837085619062200100,498839,441367,314149,1304
1783770417155943215,2026-07-11T18:46:57.155+07:00,837085619062200100,498931,441496,314275,1320
1783770417174125033,2026-07-11T18:46:57.174+07:00,837085619062200100,499029,441484,314313,1300
1783770417192306851,2026-07-11T18:46:57.192+07:00,837085619062200100,499047,441496,314298,1257
1783770417210488669,2026-07-11T18:46:57.210+07:00,837085619062200100,499105,441522,314369,1272
1783770417228670487,2026-07-11T18:46:57.228+07:00,837085619062200100,499143,441490,314365,1297
1783770417246852305,2026-07-11T18:46:57.246+07:00,837085619062200100,499074,441565,314396,1352
1783770417265034123,2026-07-11T18:46:57.265+07:00,837085619062200100,499150,441608,314347,1359
1783770417283215941,2026-07-11T18:46:57.283+07:00,837085619062200100,499176,441635,314357,1301
1783770417301397759,2026-07-11T18:46:57.301+07:00,837085619062200100,499268,441715,314451,1306
1783770417319579577,2026-07-11T18:46:57.319+07:00,837085619062200100,499359,441755,314581,1350
1783770417337761395,2026-07-11T18:46:57.337+07:00,837085619062200100,499301,441831,314618,1308
1783770417355943213,2026-07-11T18:46:57.355+07:00,837085619062200100,499373,441848,314708,1318
1783770417374125031,2026-07-11T18:46:57.374+07:00,837085619062200100,499528,441952,314790,1266
1783770417392306849,2026-07-11T18:46:57.392+07:00,837085619062200100,499693,442033,314898,1290
1783770417410488667,2026-07-11T18:46:57.410+07:00,837085619062200100,499838,442135,315029,1310
1783770417428670485,2026-07-11T18:46:57.428+07:00,837085619062200100,499977,442296,315125,1367
1783770417446852303,2026-07-11T18:46:57.446+07:00,837085619062200100,500079,442381,315312,1316
1783770417465034121,2026-07-11T18:46:57.465+07:00,837085619062200100,500208,442522,315480,1357
1783770417483215939,2026-07-11T18:46:57.483+07:00,837085619062200100,500328,442607,315575,1319
1783770417501397757,2026-07-11T18:46:57.501+07:00,837085619062200100,500423,442712,315629,1300
1783770417519579575,2026-07-11T18:46:57.519+07:00,837085619062200100,500420,442701,315634,1349
1783770417537761393,2026-07-11T18:46:57.537+07:00,837085619062200100,500341,442654,315517,1340
1783770417555943211,2026-07-11T18:46:57.555+07:00,837085619062200100,500210,442447,315234,1361
1783770417574125029,2026-07-11T18:46:57.574+07:00,837085619062200100,499884,442246,314923,1349
1783770417592306847,2026-07-11T18:46:57.592+07:00,837085619062200100,499468,441939,314488,1303
1783770417610488665,2026-07-11T18:46:57.610+07:00,837085619062200100,499092,441555,314179,1291
1783770417628670483,2026-07-11T18:46:57.628+07:00,837085619062200100,498900,441304,313921,1273
1783770417646852301,2026-07-11T18:46:57.646+07:00,837085619062200100,498634,441091,313751,1273
1783770417665034119,2026-07-11T18:46:57.665+07:00,837085619062200100,498590,441045,313671,1360
1783770417683215937,2026-07-11T18:46:57.683+07:00,837085619062200100,498431,440975,313575,1313
1783770417701397755,2026-07-11T18:46:57.701+07:00,837085619062200100,498410,440968,313605,1260
1783770417719579573,2026-07-11T18:46:57.719+07:00,837085619062200100,498486,440971,313719,1317
1783770417737761391,2026-07-11T18:46:57.737+07:00,837085619863227414,498483,440940,313768,1303
1783770417755943209,2026-07-11T18:46:57.755+07:00,837085619863227414,498604,441040,313837,1308
1783770417774125027,2026-07-11T18:46:57.774+07:00,837085619863227414,498674,441129,313898,1322
1783770417792306845,2026-07-11T18:46:57.792+07:00,837085619863227414,498686,441208,313978,1264
1783770417810488663,2026-07-11T18:46:57.810+07:00,837085619863227414,498789,441231,314055,1245
1783770417828670481,2026-07-11T18:46:57.828+07:00,837085619863227414,498843,441282,314116,1265
1783770417846852299,2026-07-11T18:46:57.846+07:00,837085619863227414,498899,441304,314125,1263
1783770417865034117,2026-07-11T18:46:57.865+07:00,837085619863227414,498905,441322,314132,1262
1783770417883215935,2026-07-11T18:46:57.883+07:00,837085619863227414,498939,441368,314152,1271
1783770417901397753,2026-07-11T18:46:57.901+07:00,837085619863227414,498918,441479,314218,1317
1783770417919579571,2026-07-11T18:46:57.919+07:00,837085619863227414,498980,441420,314216,1308
1783770417937761389,2026-07-11T18:46:57.937+07:00,837085619863227414,499068,441397,314289,1374
1783770417955943207,2026-07-11T18:46:57.955+07:00,837085619863227414,498995,441408,314246,1296
1783770417974125025,2026-07-11T18:46:57.974+07:00,837085619863227414,499086,441473,314303,1255
1783770417992306843,2026-07-11T18:46:57.992+07:00,837085619863227414,499231,441554,314344,1313
1783770418010488661,2026-07-11T18:46:58.010+07:00,837085619863227414,499277,441625,314438,1338
1783770418028670479,2026-07-11T18:46:58.028+07:00,837085619863227414,499415,441652,314549,1331
1783770418046852297,2026-07-11T18:46:58.046+07:00,837085619863227414,499490,441750,314651,1324
1783770418065034115,2026-07-11T18:46:58.065+07:00,837085619863227414,499534,441905,314783,1287
1783770418083215933,2026-07-11T18:46:58.083+07:00,837085619863227414,499700,442028,314922,1348
1783770418101397751,2026-07-11T18:46:58.101+07:00,837085619863227414,499825,442099,315031,1349
1783770418119579569,2026-07-11T18:46:58.119+07:00,837085619863227414,499940,442218,315133,1357
1783770418137761387,2026-07-11T18:46:58.137+07:00,837085619863227414,500060,442355,315234,1297
1783770418155943205,2026-07-11T18:46:58.155+07:00,837085619863227414,500194,442462,315366,1302
1783770418174125023,2026-07-11T18:46:58.174+07:00,837085619863227414,500276,442525,315393,1285
1783770418192306841,2026-07-11T18:46:58.192+07:00,837085619863227414,500348,442652,315400,1336
1783770418210488659,2026-07-11T18:46:58.210+07:00,837085619863227414,500272,442526,315265,1311
1783770418228670477,2026-07-11T18:46:58.228+07:00,837085619863227414,500023,442242,315000,1304
1783770418246852295,2026-07-11T18:46:58.246+07:00,837085619863227414,499652,441997,314590,1292
1783770418265034113,2026-07-11T18:46:58.265+07:00,837085619863227414,499199,441615,314193,1268
1783770418283215931,2026-07-11T18:46:58.283+07:00,837085619863227414,498833,441273,313850,1299
1783770418301397749,2026-07-11T18:46:58.301+07:00,837085619863227414,498603,441053,313533,1279
1783770418319579567,2026-07-11T18:46:58.319+07:00,837085619863227414,498358,440814,313412,1275
1783770418337761385,2026-07-11T18:46:58.337+07:00,837085619863227414,498213,440645,313294,1294
1783770418355943203,2026-07-11T18:46:58.355+07:00,837085619863227414,498127,440635,313274,1262
1783770418374125021,2026-07-11T18:46:58.374+07:00,837085619863227414,498096,440592,313225,1247
1783770418392306839,2026-07-11T18:46:58.392+07:00,837085619863227414,498140,440554,313275,1306
1783770418410488657,2026-07-11T18:46:58.410+07:00,837085619863227414,498190,440626,313273,1270
1783770418428670475,2026-07-11T18:46:58.428+07:00,837085619863227414,498202,440709,313409,1291
1783770418446852293,2026-07-11T18:46:58.446+07:00,837085619863227414,498311,440747,313431,1275
1783770418465034111,2026-07-11T18:46:58.465+07:00,837085619863227414,498454,440812,313532,1318
1783770418483215929,2026-07-11T18:46:58.483+07:00,837085619863227414,498528,440854,313561,1275
1783770418501397747,2026-07-11T18:46:58.501+07:00,837085619863227414,498525,440905,313666,1323
1783770418519579565,2026-07-11T18:46:58.519+07:00,837085619863227414,498620,440971,313685,1320
1783770418537761383,2026-07-11T18:46:58.537+07:00,837085620627825386,498652,440991,313741,1307
1783770418555943201,2026-07-11T18:46:58.555+07:00,837085620627825386,498674,441005,313700,1326
1783770418574125019,2026-07-11T18:46:58.574+07:00,837085620627825386,498709,441032,313725,1321
1783770418592306837,2026-07-11T18:46:58.592+07:00,837085620627825386,498753,441003,313733,1306
1783770418610488655,2026-07-11T18:46:58.610+07:00,837085620627825386,498785,441123,313827,1348
1783770418628670473,2026-07-11T18:46:58.628+07:00,837085620627825386,498751,441099,313868,1298
1783770418646852291,2026-07-11T18:46:58.646+07:00,837085620627825386,498854,441170,313898,1299
1783770418665034109,2026-07-11T18:46:58.665+07:00,837085620627825386,498853,441189,313988,1284
1783770418683215927,2026-07-11T18:46:58.683+07:00,837085620627825386,499029,441228,314065,1318
1783770418701397745,2026-07-11T18:46:58.701+07:00,837085620627825386,499142,441338,314121,1284
1783770418719579563,2026-07-11T18:46:58.719+07:00,837085620627825386,499241,441437,314246,1301
1783770418737761381,2026-07-11T18:46:58.737+07:00,837085620627825386,499321,441543,314368,1310
1783770418755943199,2026-07-11T18:46:58.755+07:00,837085620627825386,499473,441650,314553,1308
1783770418774125017,2026-07-11T18:46:58.774+07:00,837085620627825386,499626,441819,314664,1305
1783770418792306835,2026-07-11T18:46:58.792+07:00,837085620627825386,499762,441946,314772,1353
1783770418810488653,2026-07-11T18:46:58.810+07:00,837085620627825386,499893,442009,314896,1288
1783770418828670471,2026-07-11T18:46:58.828+07:00,837085620627825386,500009,442170,315055,1280
1783770418846852289,2026-07-11T18:46:58.846+07:00,837085620627825386,500223,442335,315161,1310
1783770418865034107,2026-07-11T18:46:58.865+07:00,837085620627825386,500324,442398,315271,1292
1783770418883215925,2026-07-11T18:46:58.883+07:00,837085620627825386,500389,442483,315307,1318
1783770418901397743,2026-07-11T18:46:58.901+07:00,837085620627825386,500365,442469,315256,1393
1783770418919579561,2026-07-11T18:46:58.919+07:00,837085620627825386,500163,442312,315077,1284
1783770418937761379,2026-07-11T18:46:58.937+07:00,837085620627825386,499800,442070,314671,1303
1783770418955943197,2026-07-11T18:46:58.955+07:00,837085620627825386,499430,441663,314291,1311
1783770418974125015,2026-07-11T18:46:58.974+07:00,837085620627825386,499034,441382,313939,1334
1783770418992306833,2026-07-11T18:46:58.992+07:00,837085620627825386,498796,441165,313659,1373
1783770419010488651,2026-07-11T18:46:59.010+07:00,837085620627825386,498550,440793,313366,1316
1783770419028670469,2026-07-11T18:46:59.028+07:00,837085620627825386,498316,440649,313204,1286
1783770419046852287,2026-07-11T18:46:59.046+07:00,837085620627825386,498255,440606,313172,1304
1783770419065034105,2026-07-11T18:46:59.065+07:00,837085620627825386,498201,440541,313051,1377
1783770419083215923,2026-07-11T18:46:59.083+07:00,837085620627825386,498117,440443,313022,1293
1783770419101397741,2026-07-11T18:46:59.101+07:00,837085620627825386,498120,440461,313051,1368
1783770419119579559,2026-07-11T18:46:59.119+07:00,837085620627825386,498159,440545,313084,1270
1783770419137761377,2026-07-11T18:46:59.137+07:00,837085620627825386,498287,440614,313206,1319
1783770419155943195,2026-07-11T18:46:59.155+07:00,837085620627825386,498353,440596,313306,1315
1783770419174125013,2026-07-11T18:46:59.174+07:00,837085620627825386,498358,440666,313338,1328
1783770419192306831,2026-07-11T18:46:59.192+07:00,837085620627825386,498492,440755,313421,1325
1783770419210488649,2026-07-11T18:46:59.210+07:00,837085620627825386,498509,440769,313400,1297
1783770419228670467,2026-07-11T18:46:59.228+07:00,837085620627825386,498476,440737,313453,1280
1783770419246852285,2026-07-11T18:46:59.246+07:00,837085620627825386,498539,440809,313455,1319
1783770419265034103,2026-07-11T18:46:59.265+07:00,837085620627825386,498551,440785,313449,1309
1783770419283215921,2026-07-11T18:46:59.283+07:00,837085620627825386,498533,440811,313485,1353
1783770419301397739,2026-07-11T18:46:59.301+07:00,837085621392423358,498515,440863,313516,1332
1783770419319579557,2026-07-11T18:46:59.319+07:00,837085621392423358,498555,440772,313530,1318
1783770419337761375,2026-07-11T18:46:59.337+07:00,837085621392423358,498677,440937,313668,1374
1783770419355943193,2026-07-11T18:46:59.355+07:00,837085621392423358,498710,441048,313679,1311
1783770419374125011,2026-07-11T18:46:59.374+07:00,837085621392423358,498774,441025,313715,1315
1783770419392306829,2026-07-11T18:46:59.392+07:00,837085621392423358,498809,441093,313801,1280
1783770419410488647,2026-07-11T18:46:59.410+07:00,837085621392423358,498931,441158,313907,1300
1783770419428670465,2026-07-11T18:46:59.428+07:00,837085621392423358,499075,441238,313962,1337
1783770419446852283,2026-07-11T18:46:59.446+07:00,837085621392423358,499206,441396,314165,1342
1783770419465034101,2026-07-11T18:46:59.465+07:00,837085621392423358,499325,441537,314272,1331
1783770419483215919,2026-07-11T18:46:59.483+07:00,837085621392423358,499454,441666,314445,1337
1783770419501397737,2026-07-11T18:46:59.501+07:00,837085621392423358,499574,441708,314515,1314
1783770419519579555,2026-07-11T18:46:59.519+07:00,837085621392423358,499748,441825,314650,1284
1783770419537761373,2026-07-11T18:46:59.537+07:00,837085621392423358,499865,441981,314740,1302
1783770419555943191,2026-07-11T18:46:59.555+07:00,837085621392423358,500054,442131,314934,1339
1783770419574125009,2026-07-11T18:46:59.574+07:00,837085621392423358,500233,442221,314993,1339
1783770419592306827,2026-07-11T18:46:59.592+07:00,837085621392423358,500327,442384,315076,1304
1783770419610488645,2026-07-11T18:46:59.610+07:00,837085621392423358,500381,442373,315137,1362
1783770419628670463,2026-07-11T18:46:59.628+07:00,837085621392423358,500298,442308,315032,1379
1783770419646852281,2026-07-11T18:46:59.646+07:00,837085621392423358,500025,442080,314705,1340
1783770419665034099,2026-07-11T18:46:59.665+07:00,837085621392423358,499676,441863,314417,1377
1783770419683215917,2026-07-11T18:46:59.683+07:00,837085621392423358,499319,441527,314050,1337
1783770419701397735,2026-07-11T18:46:59.701+07:00,837085621392423358,498961,441141,313572,1296
1783770419719579553,2026-07-11T18:46:59.719+07:00,837085621392423358,498729,440973,313375,1296
1783770419737761371,2026-07-11T18:46:59.737+07:00,837085621392423358,498463,440747,313126,1340
1783770419755943189,2026-07-11T18:46:59.755+07:00,837085621392423358,498327,440571,313066,1338
1783770419774125007,2026-07-11T18:46:59.774+07:00,837085621392423358,498253,440538,313050,1307
1783770419792306825,2026-07-11T18:46:59.792+07:00,837085621392423358,498203,440477,312969,1355
1783770419810488643,2026-07-11T18:46:59.810+07:00,837085621392423358,498187,440473,312966,1383
1783770419828670461,2026-07-11T18:46:59.828+07:00,837085621392423358,498220,440503,313007,1322
1783770419846852279,2026-07-11T18:46:59.846+07:00,837085621392423358,498376,440497,313048,1311
1783770419865034097,2026-07-11T18:46:59.865+07:00,837085621392423358,498409,440580,313167,1352
1783770419883215915,2026-07-11T18:46:59.883+07:00,837085621392423358,498503,440700,313263,1385
1783770419901397733,2026-07-11T18:46:59.901+07:00,837085621392423358,498518,440780,313360,1342
1783770419919579551,2026-07-11T18:46:59.919+07:00,837085621392423358,498577,440729,313304,1282
1783770419937761369,2026-07-11T18:46:59.937+07:00,837085621392423358,498645,440770,313422,1341
1783770419955943187,2026-07-11T18:46:59.955+07:00,837085621392423358,498624,440881,313457,1369
1783770419974125005,2026-07-11T18:46:59.974+07:00,837085621392423358,498641,440854,313465,1368
1783770419992306823,2026-07-11T18:46:59.992+07:00,837085621392423358,498642,440846,313486,1304
1783770420010488641,2026-07-11T18:47:00.010+07:00,837085621392423358,498694,440896,313500,1305
1783770420028670459,2026-07-11T18:47:00.028+07:00,837085621392423358,498664,440898,313492,1274
1783770420046852277,2026-07-11T18:47:00.046+07:00,837085621392423358,498745,441019,313526,1306
1783770420065034095,2026-07-11T18:47:00.065+07:00,837085622156990812,498860,441016,313555,1345
1783770420083215913,2026-07-11T18:47:00.083+07:00,837085622156990812,498915,441080,313666,1330
1783770420101397731,2026-07-11T18:47:00.101+07:00,837085622156990812,499023,441185,313774,1319
1783770420119579549,2026-07-11T18:47:00.119+07:00,837085622156990812,499169,441254,313905,1350
1783770420137761367,2026-07-11T18:47:00.137+07:00,837085622156990812,499268,441366,314010,1359
1783770420155943185,2026-07-11T18:47:00.155+07:00,837085622156990812,499347,441427,314083,1309
1783770420174125003,2026-07-11T18:47:00.174+07:00,837085622156990812,499545,441573,314211,1323
1783770420192306821,2026-07-11T18:47:00.192+07:00,837085622156990812,499568,441616,314255,1298
1783770420210488639,2026-07-11T18:47:00.210+07:00,837085622156990812,499782,441785,314421,1310
1783770420228670457,2026-07-11T18:47:00.228+07:00,837085622156990812,499906,441894,314570,1321
1783770420246852275,2026-07-11T18:47:00.246+07:00,837085622156990812,500013,442025,314703,1339
1783770420265034093,2026-07-11T18:47:00.265+07:00,837085622156990812,500127,442140,314848,1334
1783770420283215911,2026-07-11T18:47:00.283+07:00,837085622156990812,500248,442267,314974,1292
1783770420301397729,2026-07-11T18:47:00.301+07:00,837085622156990812,500438,442422,315170,1349
1783770420319579547,2026-07-11T18:47:00.319+07:00,837085622156990812,500587,442548,315205,1355
1783770420337761365,2026-07-11T18:47:00.337+07:00,837085622156990812,500677,442607,315266,1320
1783770420355943183,2026-07-11T18:47:00.355+07:00,837085622156990812,500611,442585,315230,1361
1783770420374125001,2026-07-11T18:47:00.374+07:00,837085622156990812,500320,442306,314861,1256
1783770420392306819,2026-07-11T18:47:00.392+07:00,837085622156990812,500121,442075,314588,1309
1783770420410488637,2026-07-11T18:47:00.410+07:00,837085622156990812,499722,441833,314257,1331
1783770420428670455,2026-07-11T18:47:00.428+07:00,837085622156990812,499478,441549,313977,1309
1783770420446852273,2026-07-11T18:47:00.446+07:00,837085622156990812,499123,441377,313705,1362
1783770420465034091,2026-07-11T18:47:00.465+07:00,837085622156990812,498903,441212,313475,1357
1783770420483215909,2026-07-11T18:47:00.483+07:00,837085622156990812,498802,441035,313350,1351
1783770420501397727,2026-07-11T18:47:00.501+07:00,837085622156990812,498768,440968,313374,1333
1783770420519579545,2026-07-11T18:47:00.519+07:00,837085622156990812,498751,440934,313312,1362
1783770420537761363,2026-07-11T18:47:00.537+07:00,837085622156990812,498765,440976,313362,1323
1783770420555943181,2026-07-11T18:47:00.555+07:00,837085622156990812,498852,440994,313451,1311
1783770420574124999,2026-07-11T18:47:00.574+07:00,837085622156990812,498897,440990,313455,1298
1783770420592306817,2026-07-11T18:47:00.592+07:00,837085622156990812,498990,441194,313629,1375
1783770420610488635,2026-07-11T18:47:00.610+07:00,837085622156990812,498973,441256,313653,1342
1783770420628670453,2026-07-11T18:47:00.628+07:00,837085622156990812,499076,441258,313724,1350
1783770420646852271,2026-07-11T18:47:00.646+07:00,837085622156990812,499132,441290,313775,1300
1783770420665034089,2026-07-11T18:47:00.665+07:00,837085622156990812,499262,441360,313831,1353
1783770420683215907,2026-07-11T18:47:00.683+07:00,837085622156990812,499259,441433,313918,1318
1783770420701397725,2026-07-11T18:47:00.701+07:00,837085622156990812,499289,441409,313924,1332
1783770420719579543,2026-07-11T18:47:00.719+07:00,837085622156990812,499290,441430,313956,1291
1783770420737761361,2026-07-11T18:47:00.737+07:00,837085622156990812,499357,441475,314009,1283
1783770420755943179,2026-07-11T18:47:00.755+07:00,837085622156990812,499382,441487,314024,1307
1783770420774124997,2026-07-11T18:47:00.774+07:00,837085622156990812,499385,441468,313963,1236
1783770420792306815,2026-07-11T18:47:00.792+07:00,837085622156990812,499507,441612,314070,1289
1783770420810488633,2026-07-11T18:47:00.810+07:00,837085622156990812,499530,441653,314111,1273
1783770420828670451,2026-07-11T18:47:00.828+07:00,837085622921558266,499702,441767,314250,1337
1783770420846852269,2026-07-11T18:47:00.846+07:00,837085622921558266,499775,441829,314317,1323
1783770420865034087,2026-07-11T18:47:00.865+07:00,837085622921558266,499873,441926,314389,1292
1783770420883215905,2026-07-11T18:47:00.883+07:00,837085622921558266,499959,442077,314532,1330
1783770420901397723,2026-07-11T18:47:00.901+07:00,837085622921558266,500090,442134,314669,1302
1783770420919579541,2026-07-11T18:47:00.919+07:00,837085622921558266,500191,442282,314825,1316
1783770420937761359,2026-07-11T18:47:00.937+07:00,837085622921558266,500332,442428,314969,1339
1783770420955943177,2026-07-11T18:47:00.955+07:00,837085622921558266,500485,442460,315053,1318
1783770420974124995,2026-07-11T18:47:00.974+07:00,837085622921558266,500642,442650,315215,1357
1783770420992306813,2026-07-11T18:47:00.992+07:00,837085622921558266,500750,442709,315377,1325
1783770421010488631,2026-07-11T18:47:01.010+07:00,837085622921558266,500905,442901,315441,1283
1783770421028670449,2026-07-11T18:47:01.028+07:00,837085622921558266,501064,443040,315521,1348
1783770421046852267,2026-07-11T18:47:01.046+07:00,837085622921558266,501162,443117,315664,1310
1783770421065034085,2026-07-11T18:47:01.065+07:00,837085622921558266,501204,443201,315677,1311
1783770421083215903,2026-07-11T18:47:01.083+07:00,837085622921558266,501205,443167,315643,1339
1783770421101397721,2026-07-11T18:47:01.101+07:00,837085622921558266,501109,443045,315417,1340
1783770421119579539,2026-07-11T18:47:01.119+07:00,837085622921558266,500789,442860,315134,1359
1783770421137761357,2026-07-11T18:47:01.137+07:00,837085622921558266,500503,442658,314833,1315
1783770421155943175,2026-07-11T18:47:01.155+07:00,837085622921558266,500113,442315,314576,1285
1783770421174124993,2026-07-11T18:47:01.174+07:00,837085622921558266,499907,442103,314311,1316
1783770421192306811,2026-07-11T18:47:01.192+07:00,837085622921558266,499760,442001,314133,1314
1783770421210488629,2026-07-11T18:47:01.210+07:00,837085622921558266,499669,441835,314010,1291
1783770421228670447,2026-07-11T18:47:01.228+07:00,837085622921558266,499587,441770,313970,1359
1783770421246852265,2026-07-11T18:47:01.246+07:00,837085622921558266,499605,441746,313950,1357
1783770421265034083,2026-07-11T18:47:01.265+07:00,837085622921558266,499616,441833,314091,1354
1783770421283215901,2026-07-11T18:47:01.283+07:00,837085622921558266,499651,441854,314151,1377
1783770421301397719,2026-07-11T18:47:01.301+07:00,837085622921558266,499683,441997,314327,1377
1783770421319579537,2026-07-11T18:47:01.319+07:00,837085622921558266,499865,442027,314330,1320
1783770421337761355,2026-07-11T18:47:01.337+07:00,837085622921558266,499926,442145,314408,1371
1783770421355943173,2026-07-11T18:47:01.355+07:00,837085622921558266,500075,442213,314453,1314
1783770421374124991,2026-07-11T18:47:01.374+07:00,837085622921558266,500093,442280,314536,1298
1783770421392306809,2026-07-11T18:47:01.392+07:00,837085622921558266,500170,442308,314575,1355
1783770421410488627,2026-07-11T18:47:01.410+07:00,837085622921558266,500202,442377,314669,1373
1783770421428670445,2026-07-11T18:47:01.428+07:00,837085622921558266,500170,442387,314627,1330
1783770421446852263,2026-07-11T18:47:01.446+07:00,837085622921558266,500150,442392,314663,1325
1783770421465034081,2026-07-11T18:47:01.465+07:00,837085622921558266,500193,442346,314692,1304
1783770421483215899,2026-07-11T18:47:01.483+07:00,837085622921558266,500172,442442,314701,1366
1783770421501397717,2026-07-11T18:47:01.501+07:00,837085622921558266,500195,442477,314734,1322
1783770421519579535,2026-07-11T18:47:01.519+07:00,837085622921558266,500335,442512,314807,1360
1783770421537761353,2026-07-11T18:47:01.537+07:00,837085622921558266,500392,442488,314852,1301
1783770421555943171,2026-07-11T18:47:01.555+07:00,837085622921558266,500498,442643,314908,1307
1783770421574124989,2026-07-11T18:47:01.574+07:00,837085622921558266,500467,442698,314933,1258
1783770421592306807,2026-07-11T18:47:01.592+07:00,837085623667952251,500695,442817,315102,1337
1783770421610488625,2026-07-11T18:47:01.610+07:00,837085623667952251,500748,442849,315157,1338
1783770421628670443,2026-07-11T18:47:01.628+07:00,837085623667952251,500880,442948,315321,1367
1783770421646852261,2026-07-11T18:47:01.646+07:00,837085623667952251,500993,443067,315445,1335
1783770421665034079,2026-07-11T18:47:01.665+07:00,837085623667952251,501119,443286,315583,1400
1783770421683215897,2026-07-11T18:47:01.683+07:00,837085623667952251,501193,443303,315659,1358
1783770421701397715,2026-07-11T18:47:01.701+07:00,837085623667952251,501339,443501,315794,1373
1783770421719579533,2026-07-11T18:47:01.719+07:00,837085623667952251,501504,443646,315939,1376
1783770421737761351,2026-07-11T18:47:01.737+07:00,837085623667952251,501563,443754,316037,1373
1783770421755943169,2026-07-11T18:47:01.755+07:00,837085623667952251,501709,443831,316108,1395
1783770421774124987,2026-07-11T18:47:01.774+07:00,837085623667952251,501736,443805,316038,1335
1783770421792306805,2026-07-11T18:47:01.792+07:00,837085623667952251,501569,443657,315858,1369
1783770421810488623,2026-07-11T18:47:01.810+07:00,837085623667952251,501287,443396,315588,1388
1783770421828670441,2026-07-11T18:47:01.828+07:00,837085623667952251,500993,443195,315283,1361
1783770421846852259,2026-07-11T18:47:01.846+07:00,837085623667952251,500592,442926,314895,1347
1783770421865034077,2026-07-11T18:47:01.865+07:00,837085623667952251,500394,442661,314626,1376
1783770421883215895,2026-07-11T18:47:01.883+07:00,837085623667952251,500137,442391,314399,1324
1783770421901397713,2026-07-11T18:47:01.901+07:00,837085623667952251,500074,442334,314337,1368
1783770421919579531,2026-07-11T18:47:01.919+07:00,837085623667952251,499925,442263,314226,1299
1783770421937761349,2026-07-11T18:47:01.937+07:00,837085623667952251,499945,442232,314302,1384
1783770421955943167,2026-07-11T18:47:01.955+07:00,837085623667952251,499999,442260,314261,1359
1783770421974124985,2026-07-11T18:47:01.974+07:00,837085623667952251,500051,442304,314386,1386
1783770421992306803,2026-07-11T18:47:01.992+07:00,837085623667952251,500163,442326,314465,1377
1783770422010488621,2026-07-11T18:47:02.010+07:00,837085623667952251,500145,442391,314500,1283
1783770422028670439,2026-07-11T18:47:02.028+07:00,837085623667952251,500218,442526,314578,1305
1783770422046852257,2026-07-11T18:47:02.046+07:00,837085623667952251,500335,442677,314666,1354
1783770422065034075,2026-07-11T18:47:02.065+07:00,837085623667952251,500381,442641,314687,1349
1783770422083215893,2026-07-11T18:47:02.083+07:00,837085623667952251,500412,442686,314806,1325
1783770422101397711,2026-07-11T18:47:02.101+07:00,837085623667952251,500427,442734,314828,1334
1783770422119579529,2026-07-11T18:47:02.119+07:00,837085623667952251,500504,442724,314816,1324
1783770422137761347,2026-07-11T18:47:02.137+07:00,837085623667952251,500457,442708,314807,1297
1783770422155943165,2026-07-11T18:47:02.155+07:00,837085623667952251,500532,442781,314861,1327
1783770422174124983,2026-07-11T18:47:02.174+07:00,837085623667952251,500569,442793,314843,1372
1783770422192306801,2026-07-11T18:47:02.192+07:00,837085623667952251,500589,442869,314951,1342
1783770422210488619,2026-07-11T18:47:02.210+07:00,837085623667952251,500636,442956,314919,1353
1783770422228670437,2026-07-11T18:47:02.228+07:00,837085623667952251,500699,442884,314983,1318
1783770422246852255,2026-07-11T18:47:02.246+07:00,837085623667952251,500789,442950,315071,1320
1783770422265034073,2026-07-11T18:47:02.265+07:00,837085623667952251,500772,443018,315179,1290
1783770422283215891,2026-07-11T18:47:02.283+07:00,837085623667952251,500906,443135,315229,1327
1783770422301397709,2026-07-11T18:47:02.301+07:00,837085623667952251,501023,443190,315383,1305
1783770422319579527,2026-07-11T18:47:02.319+07:00,837085623667952251,501120,443256,315479,1316
1783770422337761345,2026-07-11T18:47:02.337+07:00,837085624450751158,501177,443417,315546,1308
1783770422355943163,2026-07-11T18:47:02.355+07:00,837085624450751158,501303,443466,315678,1347
1783770422374124981,2026-07-11T18:47:02.374+07:00,837085624450751158,501463,443630,315802,1330
1783770422392306799,2026-07-11T18:47:02.392+07:00,837085624450751158,501508,443688,315886,1294
1783770422410488617,2026-07-11T18:47:02.410+07:00,837085624450751158,501733,443789,316036,1316
1783770422428670435,2026-07-11T18:47:02.428+07:00,837085624450751158,501736,443849,316093,1317
1783770422446852253,2026-07-11T18:47:02.446+07:00,837085624450751158,501818,443983,316170,1306
1783770422465034071,2026-07-11T18:47:02.465+07:00,837085624450751158,501702,443838,316002,1321
1783770422483215889,2026-07-11T18:47:02.483+07:00,837085624450751158,501516,443680,315721,1305
1783770422501397707,2026-07-11T18:47:02.501+07:00,837085624450751158,501242,443444,315428,1366
1783770422519579525,2026-07-11T18:47:02.519+07:00,837085624450751158,500854,443065,315097,1303
1783770422537761343,2026-07-11T18:47:02.537+07:00,837085624450751158,500551,442777,314711,1321
1783770422555943161,2026-07-11T18:47:02.555+07:00,837085624450751158,500252,442491,314430,1273
1783770422574124979,2026-07-11T18:47:02.574+07:00,837085624450751158,500132,442335,314278,1335
1783770422592306797,2026-07-11T18:47:02.592+07:00,837085624450751158,499922,442194,314130,1269
1783770422610488615,2026-07-11T18:47:02.610+07:00,837085624450751158,499869,442107,314111,1294
1783770422628670433,2026-07-11T18:47:02.628+07:00,837085624450751158,499845,442107,314069,1273
1783770422646852251,2026-07-11T18:47:02.646+07:00,837085624450751158,499898,442102,314070,1238
1783770422665034069,2026-07-11T18:47:02.665+07:00,837085624450751158,499924,442104,314110,1276
1783770422683215887,2026-07-11T18:47:02.683+07:00,837085624450751158,500030,442126,314230,1316
1783770422701397705,2026-07-11T18:47:02.701+07:00,837085624450751158,500090,442226,314310,1324
1783770422719579523,2026-07-11T18:47:02.719+07:00,837085624450751158,500154,442231,314338,1348
1783770422737761341,2026-07-11T18:47:02.737+07:00,837085624450751158,500161,442312,314380,1347
1783770422755943159,2026-07-11T18:47:02.755+07:00,837085624450751158,500211,442336,314427,1319
1783770422774124977,2026-07-11T18:47:02.774+07:00,837085624450751158,500314,442385,314520,1324
1783770422792306795,2026-07-11T18:47:02.792+07:00,837085624450751158,500326,442382,314524,1336
1783770422810488613,2026-07-11T18:47:02.810+07:00,837085624450751158,500371,442442,314565,1322
1783770422828670431,2026-07-11T18:47:02.828+07:00,837085624450751158,500405,442441,314585,1353
1783770422846852249,2026-07-11T18:47:02.846+07:00,837085624450751158,500338,442413,314540,1335
1783770422865034067,2026-07-11T18:47:02.865+07:00,837085624450751158,500430,442471,314608,1318
1783770422883215885,2026-07-11T18:47:02.883+07:00,837085624450751158,500424,442552,314637,1322
1783770422901397703,2026-07-11T18:47:02.901+07:00,837085624450751158,500473,442586,314695,1249
1783770422919579521,2026-07-11T18:47:02.919+07:00,837085624450751158,500552,442601,314781,1303
1783770422937761339,2026-07-11T18:47:02.937+07:00,837085624450751158,500609,442683,314827,1269
1783770422955943157,2026-07-11T18:47:02.955+07:00,837085624450751158,500727,442743,314956,1309
1783770422974124975,2026-07-11T18:47:02.974+07:00,837085624450751158,500861,442911,315085,1362
1783770422992306793,2026-07-11T18:47:02.992+07:00,837085624450751158,500972,442939,315121,1341
1783770423010488611,2026-07-11T18:47:03.010+07:00,837085624450751158,501034,443065,315270,1347
1783770423028670429,2026-07-11T18:47:03.028+07:00,837085624450751158,501127,443184,315336,1353
1783770423046852247,2026-07-11T18:47:03.046+07:00,837085624450751158,501268,443255,315493,1301
1783770423065034065,2026-07-11T18:47:03.065+07:00,837085624450751158,501387,443354,315597,1296
1783770423083215883,2026-07-11T18:47:03.083+07:00,837085624450751158,501587,443475,315763,1334
1783770423101397701,2026-07-11T18:47:03.101+07:00,837085624450751158,501678,443632,315907,1321
1783770423119579519,2026-07-11T18:47:03.119+07:00,837085625233487503,501821,443770,315991,1354
1783770423137761337,2026-07-11T18:47:03.137+07:00,837085625233487503,501907,443753,316004,1277
1783770423155943155,2026-07-11T18:47:03.155+07:00,837085625233487503,501835,443749,315918,1236
1783770423174124973,2026-07-11T18:47:03.174+07:00,837085625233487503,501652,443562,315682,1314
1783770423192306791,2026-07-11T18:47:03.192+07:00,837085625233487503,501299,443357,315359,1279
1783770423210488609,2026-07-11T18:47:03.210+07:00,837085625233487503,500979,443051,314973,1300
1783770423228670427,2026-07-11T18:47:03.228+07:00,837085625233487503,500632,442721,314581,1353
1783770423246852245,2026-07-11T18:47:03.246+07:00,837085625233487503,500350,442513,314291,1338
1783770423265034063,2026-07-11T18:47:03.265+07:00,837085625233487503,500124,442199,314038,1342
1783770423283215881,2026-07-11T18:47:03.283+07:00,837085625233487503,499872,441911,313885,1324
1783770423301397699,2026-07-11T18:47:03.301+07:00,837085625233487503,499720,441858,313757,1334
1783770423319579517,2026-07-11T18:47:03.319+07:00,837085625233487503,499701,441768,313681,1298
1783770423337761335,2026-07-11T18:47:03.337+07:00,837085625233487503,499681,441825,313688,1304
1783770423355943153,2026-07-11T18:47:03.355+07:00,837085625233487503,499647,441771,313769,1297
1783770423374124971,2026-07-11T18:47:03.374+07:00,837085625233487503,499700,441727,313782,1317
1783770423392306789,2026-07-11T18:47:03.392+07:00,837085625233487503,499737,441733,313839,1316
1783770423410488607,2026-07-11T18:47:03.410+07:00,837085625233487503,499799,441850,313929,1259
1783770423428670425,2026-07-11T18:47:03.428+07:00,837085625233487503,499817,441902,313952,1313
1783770423446852243,2026-07-11T18:47:03.446+07:00,837085625233487503,499860,441911,313990,1299
1783770423465034061,2026-07-11T18:47:03.465+07:00,837085625233487503,499970,442034,314077,1367
1783770423483215879,2026-07-11T18:47:03.483+07:00,837085625233487503,499985,442025,314032,1342
1783770423501397697,2026-07-11T18:47:03.501+07:00,837085625233487503,500011,442016,313992,1326
1783770423519579515,2026-07-11T18:47:03.519+07:00,837085625233487503,499985,442087,314031,1351
1783770423537761333,2026-07-11T18:47:03.537+07:00,837085625233487503,500012,442024,314130,1331
1783770423555943151,2026-07-11T18:47:03.555+07:00,837085625233487503,500012,442013,314092,1341
1783770423574124969,2026-07-11T18:47:03.574+07:00,837085625233487503,500056,442028,314078,1310
1783770423592306787,2026-07-11T18:47:03.592+07:00,837085625233487503,500086,442073,314164,1307
1783770423610488605,2026-07-11T18:47:03.610+07:00,837085625233487503,500164,442123,314251,1316
1783770423628670423,2026-07-11T18:47:03.628+07:00,837085625233487503,500227,442140,314316,1316
1783770423646852241,2026-07-11T18:47:03.646+07:00,837085625233487503,500350,442266,314363,1338
1783770423665034059,2026-07-11T18:47:03.665+07:00,837085625233487503,500379,442261,314425,1324
1783770423683215877,2026-07-11T18:47:03.683+07:00,837085625233487503,500526,442432,314560,1354
1783770423701397695,2026-07-11T18:47:03.701+07:00,837085625233487503,500580,442538,314694,1357
1783770423719579513,2026-07-11T18:47:03.719+07:00,837085625233487503,500688,442648,314731,1352
1783770423737761331,2026-07-11T18:47:03.737+07:00,837085625233487503,500789,442718,314882,1286
1783770423755943149,2026-07-11T18:47:03.755+07:00,837085625233487503,500945,442788,315022,1293
1783770423774124967,2026-07-11T18:47:03.774+07:00,837085625233487503,501081,442921,315189,1299
1783770423792306785,2026-07-11T18:47:03.792+07:00,837085625233487503,501132,443004,315282,1234
1783770423810488603,2026-07-11T18:47:03.810+07:00,837085625233487503,501279,443131,315428,1314
1783770423828670421,2026-07-11T18:47:03.828+07:00,837085625233487503,501353,443259,315466,1294
1783770423846852239,2026-07-11T18:47:03.846+07:00,837085625233487503,501480,443293,315488,1310
1783770423865034057,2026-07-11T18:47:03.865+07:00,837085625233487503,501444,443249,315356,1266
1783770423883215875,2026-07-11T18:47:03.883+07:00,837085625233487503,501265,443067,315120,1249
1783770423901397693,2026-07-11T18:47:03.901+07:00,837085625998032069,500855,442781,314789,1349
1783770423919579511,2026-07-11T18:47:03.919+07:00,837085625998032069,500536,442495,314400,1316
1783770423937761329,2026-07-11T18:47:03.937+07:00,837085625998032069,500155,442154,313972,1281
1783770423955943147,2026-07-11T18:47:03.955+07:00,837085625998032069,499828,441858,313691,1334
1783770423974124965,2026-07-11T18:47:03.974+07:00,837085625998032069,499609,441566,313459,1355
1783770423992306783,2026-07-11T18:47:03.992+07:00,837085625998032069,499437,441375,313296,1292
1783770424010488601,2026-07-11T18:47:04.010+07:00,837085625998032069,499358,441273,313185,1351
1783770424028670419,2026-07-11T18:47:04.028+07:00,837085625998032069,499242,441219,313124,1288
1783770424046852237,2026-07-11T18:47:04.046+07:00,837085625998032069,499170,441168,313076,1294
1783770424065034055,2026-07-11T18:47:04.065+07:00,837085625998032069,499227,441146,313125,1313
1783770424083215873,2026-07-11T18:47:04.083+07:00,837085625998032069,499259,441204,313197,1336
1783770424101397691,2026-07-11T18:47:04.101+07:00,837085625998032069,499286,441101,313155,1245
1783770424119579509,2026-07-11T18:47:04.119+07:00,837085625998032069,499307,441223,313252,1327
1783770424137761327,2026-07-11T18:47:04.137+07:00,837085625998032069,499337,441209,313245,1293
1783770424155943145,2026-07-11T18:47:04.155+07:00,837085625998032069,499379,441293,313363,1308
1783770424174124963,2026-07-11T18:47:04.174+07:00,837085625998032069,499419,441338,313395,1321
1783770424192306781,2026-07-11T18:47:04.192+07:00,837085625998032069,499445,441330,313408,1306
1783770424210488599,2026-07-11T18:47:04.210+07:00,837085625998032069,499521,441306,313406,1384
1783770424228670417,2026-07-11T18:47:04.228+07:00,837085625998032069,499455,441281,313360,1352
1783770424246852235,2026-07-11T18:47:04.246+07:00,837085625998032069,499407,441287,313397,1303
1783770424265034053,2026-07-11T18:47:04.265+07:00,837085625998032069,499454,441346,313390,1315
1783770424283215871,2026-07-11T18:47:04.283+07:00,837085625998032069,499448,441289,313439,1269
1783770424301397689,2026-07-11T18:47:04.301+07:00,837085625998032069,499495,441390,313456,1303
1783770424319579507,2026-07-11T18:47:04.319+07:00,837085625998032069,499530,441384,313433,1307
1783770424337761325,2026-07-11T18:47:04.337+07:00,837085625998032069,499610,441452,313619,1304
1783770424355943143,2026-07-11T18:47:04.355+07:00,837085625998032069,499696,441509,313701,1322
1783770424374124961,2026-07-11T18:47:04.374+07:00,837085625998032069,499842,441619,313805,1328
1783770424392306779,2026-07-11T18:47:04.392+07:00,837085625998032069,499908,441756,313875,1331
1783770424410488597,2026-07-11T18:47:04.410+07:00,837085625998032069,500047,441799,313979,1298
1783770424428670415,2026-07-11T18:47:04.428+07:00,837085625998032069,500148,441868,314091,1308
1783770424446852233,2026-07-11T18:47:04.446+07:00,837085625998032069,500197,442017,314195,1280
1783770424465034051,2026-07-11T18:47:04.465+07:00,837085625998032069,500337,442080,314329,1317
1783770424483215869,2026-07-11T18:47:04.483+07:00,837085625998032069,500431,442223,314461,1357
1783770424501397687,2026-07-11T18:47:04.501+07:00,837085625998032069,500580,442317,314545,1316
1783770424519579505,2026-07-11T18:47:04.519+07:00,837085625998032069,500733,442506,314680,1317
1783770424537761323,2026-07-11T18:47:04.537+07:00,837085625998032069,500875,442552,314753,1235
1783770424555943141,2026-07-11T18:47:04.555+07:00,837085625998032069,500963,442618,314889,1300
1783770424574124959,2026-07-11T18:47:04.574+07:00,837085625998032069,501027,442759,314920,1345
1783770424592306777,2026-07-11T18:47:04.592+07:00,837085625998032069,500981,442670,314838,1260
1783770424610488595,2026-07-11T18:47:04.610+07:00,837085625998032069,500829,442489,314625,1317
1783770424628670413,2026-07-11T18:47:04.628+07:00,837085625998032069,500525,442274,314275,1279
1783770424646852231,2026-07-11T18:47:04.646+07:00,837085625998032069,500137,441999,313861,1281
1783770424665034049,2026-07-11T18:47:04.665+07:00,837085626762599523,499796,441632,313501,1365
1783770424683215867,2026-07-11T18:47:04.683+07:00,837085626762599523,499508,441349,313182,1330
1783770424701397685,2026-07-11T18:47:04.701+07:00,837085626762599523,499227,441103,312922,1281
1783770424719579503,2026-07-11T18:47:04.719+07:00,837085626762599523,499109,441004,312812,1317
1783770424737761321,2026-07-11T18:47:04.737+07:00,837085626762599523,498929,440828,312713,1322
1783770424755943139,2026-07-11T18:47:04.755+07:00,837085626762599523,498934,440838,312730,1365
1783770424774124957,2026-07-11T18:47:04.774+07:00,837085626762599523,498900,440756,312742,1357
1783770424792306775,2026-07-11T18:47:04.792+07:00,837085626762599523,498902,440789,312732,1310
1783770424810488593,2026-07-11T18:47:04.810+07:00,837085626762599523,498977,440805,312795,1350
1783770424828670411,2026-07-11T18:47:04.828+07:00,837085626762599523,498963,440829,312833,1303
1783770424846852229,2026-07-11T18:47:04.846+07:00,837085626762599523,498993,440899,312872,1342
1783770424865034047,2026-07-11T18:47:04.865+07:00,837085626762599523,499076,440898,312875,1285
1783770424883215865,2026-07-11T18:47:04.883+07:00,837085626762599523,499156,440992,313033,1290
1783770424901397683,2026-07-11T18:47:04.901+07:00,837085626762599523,499169,440968,313047,1340
1783770424919579501,2026-07-11T18:47:04.919+07:00,837085626762599523,499227,441009,313122,1304
1783770424937761319,2026-07-11T18:47:04.937+07:00,837085626762599523,499240,440978,313030,1293
1783770424955943137,2026-07-11T18:47:04.955+07:00,837085626762599523,499255,441077,313064,1318
1783770424974124955,2026-07-11T18:47:04.974+07:00,837085626762599523,499229,441076,313052,1343
1783770424992306773,2026-07-11T18:47:04.992+07:00,837085626762599523,499235,441087,313077,1310
1783770425010488591,2026-07-11T18:47:05.010+07:00,837085626762599523,499332,441172,313165,1334
1783770425028670409,2026-07-11T18:47:05.028+07:00,837085626762599523,499319,441147,313168,1283
1783770425046852227,2026-07-11T18:47:05.046+07:00,837085626762599523,499422,441163,313256,1347
