host_timestamp_ns,host_timestamp_iso,pmd_timestamp,ppg0,ppg1,ppg2,ambient
1783266453679919800,2026-07-05T22:47:33.679+07:00,540128033147725922,-341850,-313452,-366891,-472827
1783266453698101618,2026-07-05T22:47:33.698+07:00,540128033147725922,-341666,-313350,-366779,-472886
1783266453716283436,2026-07-05T22:47:33.716+07:00,540128033147725922,-341506,-313207,-366660,-472882
1783266453734465254,2026-07-05T22:47:33.734+07:00,540128033147725922,-341448,-312956,-366530,-472843
1783266453752647072,2026-07-05T22:47:33.752+07:00,540128033147725922,-341363,-312893,-366500,-472894
1783266453770828890,2026-07-05T22:47:33.770+07:00,540128033147725922,-341238,-312686,-366321,-472843
1783266453789010708,2026-07-05T22:47:33.789+07:00,540128033147725922,-341106,-312590,-366213,-472870
1783266453807192526,2026-07-05T22:47:33.807+07:00,540128033147725922,-340998,-312528,-366226,-472914
1783266453825374344,2026-07-05T22:47:33.825+07:00,540128033147725922,-340747,-312346,-366036,-472823
1783266453843556162,2026-07-05T22:47:33.843+07:00,540128033147725922,-340690,-312187,-365977,-472870
1783266453861737980,2026-07-05T22:47:33.861+07:00,540128033147725922,-340581,-312030,-365825,-472894
1783266453879919798,2026-07-05T22:47:33.879+07:00,540128033147725922,-340651,-312001,-365833,-472857
1783266453898101616,2026-07-05T22:47:33.898+07:00,540128033147725922,-340834,-312214,-365909,-472849
1783266453916283434,2026-07-05T22:47:33.916+07:00,540128033147725922,-341184,-312581,-366223,-472882
1783266453934465252,2026-07-05T22:47:33.934+07:00,540128033147725922,-341613,-313006,-366516,-472852
1783266453952647070,2026-07-05T22:47:33.952+07:00,540128033147725922,-341942,-313432,-366716,-472893
1783266453970828888,2026-07-05T22:47:33.970+07:00,540128033147725922,-342291,-313779,-366979,-472847
1783266453989010706,2026-07-05T22:47:33.989+07:00,540128033147725922,-342598,-314151,-367317,-472825
1783266454007192524,2026-07-05T22:47:34.007+07:00,540128033147725922,-342853,-314444,-367498,-472829
1783266454025374342,2026-07-05T22:47:34.025+07:00,540128033147725922,-343023,-314647,-367722,-472834
1783266454043556160,2026-07-05T22:47:34.043+07:00,540128033147725922,-343188,-314832,-367850,-472845
1783266454061737978,2026-07-05T22:47:34.061+07:00,540128033147725922,-343263,-314973,-367936,-472851
1783266454079919796,2026-07-05T22:47:34.079+07:00,540128033147725922,-343322,-315052,-367989,-472836
1783266454098101614,2026-07-05T22:47:34.098+07:00,540128033147725922,-343309,-315073,-368041,-472844
1783266454116283432,2026-07-05T22:47:34.116+07:00,540128033147725922,-343344,-315148,-368025,-472930
1783266454134465250,2026-07-05T22:47:34.134+07:00,540128033147725922,-343252,-315020,-367993,-472841
1783266454152647068,2026-07-05T22:47:34.152+07:00,540128033147725922,-343277,-315047,-367997,-472846
1783266454170828886,2026-07-05T22:47:34.170+07:00,540128033147725922,-343199,-314977,-367919,-472852
1783266454189010704,2026-07-05T22:47:34.189+07:00,540128033147725922,-343150,-314897,-367947,-472819
1783266454207192522,2026-07-05T22:47:34.207+07:00,540128033147725922,-343149,-314838,-367989,-472823
1783266454225374340,2026-07-05T22:47:34.225+07:00,540128033147725922,-343131,-314882,-367930,-472856
1783266454243556158,2026-07-05T22:47:34.243+07:00,540128033147725922,-343113,-314852,-367978,-472908
1783266454261737976,2026-07-05T22:47:34.261+07:00,540128033147725922,-343056,-314843,-367858,-472888
1783266454279919794,2026-07-05T22:47:34.279+07:00,540128033147725922,-342997,-314793,-367782,-472899
1783266454298101612,2026-07-05T22:47:34.298+07:00,540128033147725922,-342906,-314659,-367708,-472835
1783266454316283430,2026-07-05T22:47:34.316+07:00,540128033147725922,-342773,-314568,-367610,-472795
1783266454334465248,2026-07-05T22:47:34.334+07:00,540128033147725922,-342697,-314433,-367525,-472843
1783266454352647066,2026-07-05T22:47:34.352+07:00,540128033147725922,-342545,-314292,-367427,-472848
1783266454370828884,2026-07-05T22:47:34.370+07:00,540128033147725922,-342544,-314192,-367411,-472863
1783266454389010702,2026-07-05T22:47:34.389+07:00,540128033147725922,-342301,-314045,-367236,-472893
1783266454407192520,2026-07-05T22:47:34.407+07:00,540128033147725922,-342265,-313884,-367175,-472873
1783266454425374338,2026-07-05T22:47:34.425+07:00,540128033147725922,-342102,-313692,-366980,-472846
1783266454443556156,2026-07-05T22:47:34.443+07:00,540128033911744050,-341969,-313550,-366908,-472845
1783266454461737974,2026-07-05T22:47:34.461+07:00,540128033911744050,-341806,-313393,-366755,-472842
1783266454479919792,2026-07-05T22:47:34.479+07:00,540128033911744050,-341697,-313216,-366710,-472840
1783266454498101610,2026-07-05T22:47:34.498+07:00,540128033911744050,-341506,-313138,-366567,-472911
1783266454516283428,2026-07-05T22:47:34.516+07:00,540128033911744050,-341389,-312838,-366417,-472859
1783266454534465246,2026-07-05T22:47:34.534+07:00,540128033911744050,-341326,-312744,-366383,-472876
1783266454552647064,2026-07-05T22:47:34.552+07:00,540128033911744050,-341163,-312647,-366252,-472800
1783266454570828882,2026-07-05T22:47:34.570+07:00,540128033911744050,-341050,-312517,-366136,-472880
1783266454589010700,2026-07-05T22:47:34.589+07:00,540128033911744050,-340896,-312373,-366035,-472865
1783266454607192518,2026-07-05T22:47:34.607+07:00,540128033911744050,-340678,-312080,-365844,-472859
1783266454625374336,2026-07-05T22:47:34.625+07:00,540128033911744050,-340515,-311843,-365709,-472839
1783266454643556154,2026-07-05T22:47:34.643+07:00,540128033911744050,-340356,-311695,-365534,-472858
1783266454661737972,2026-07-05T22:47:34.661+07:00,540128033911744050,-340269,-311538,-365492,-472902
1783266454679919790,2026-07-05T22:47:34.679+07:00,540128033911744050,-340045,-311381,-365342,-472812
1783266454698101608,2026-07-05T22:47:34.698+07:00,540128033911744050,-339932,-311223,-365235,-472884
1783266454716283426,2026-07-05T22:47:34.716+07:00,540128033911744050,-339986,-311293,-365304,-472847
1783266454734465244,2026-07-05T22:47:34.734+07:00,540128033911744050,-340170,-311450,-365471,-472777
1783266454752647062,2026-07-05T22:47:34.752+07:00,540128033911744050,-340540,-311760,-365667,-472844
1783266454770828880,2026-07-05T22:47:34.770+07:00,540128033911744050,-340899,-312148,-365989,-472832
1783266454789010698,2026-07-05T22:47:34.789+07:00,540128033911744050,-341316,-312538,-366338,-472881
1783266454807192516,2026-07-05T22:47:34.807+07:00,540128033911744050,-341602,-312938,-366532,-472836
1783266454825374334,2026-07-05T22:47:34.825+07:00,540128033911744050,-341904,-313289,-366800,-472843
1783266454843556152,2026-07-05T22:47:34.843+07:00,540128033911744050,-342163,-313564,-367011,-472834
1783266454861737970,2026-07-05T22:47:34.861+07:00,540128033911744050,-342304,-313739,-367181,-472816
1783266454879919788,2026-07-05T22:47:34.879+07:00,540128033911744050,-342400,-313887,-367365,-472799
1783266454898101606,2026-07-05T22:47:34.898+07:00,540128033911744050,-342441,-313977,-367373,-472824
1783266454916283424,2026-07-05T22:47:34.916+07:00,540128033911744050,-342520,-314033,-367514,-472897
1783266454934465242,2026-07-05T22:47:34.934+07:00,540128033911744050,-342520,-314049,-367549,-472835
1783266454952647060,2026-07-05T22:47:34.952+07:00,540128033911744050,-342515,-314016,-367512,-472866
1783266454970828878,2026-07-05T22:47:34.970+07:00,540128033911744050,-342453,-314061,-367594,-472869
1783266454989010696,2026-07-05T22:47:34.989+07:00,540128033911744050,-342383,-313998,-367519,-472818
1783266455007192514,2026-07-05T22:47:35.007+07:00,540128033911744050,-342472,-313994,-367570,-472916
1783266455025374332,2026-07-05T22:47:35.025+07:00,540128033911744050,-342368,-313992,-367512,-472836
1783266455043556150,2026-07-05T22:47:35.043+07:00,540128033911744050,-342384,-313968,-367480,-472840
1783266455061737968,2026-07-05T22:47:35.061+07:00,540128033911744050,-342354,-313870,-367489,-472897
1783266455079919786,2026-07-05T22:47:35.079+07:00,540128033911744050,-342304,-313886,-367458,-472853
1783266455098101604,2026-07-05T22:47:35.098+07:00,540128033911744050,-342208,-313824,-367416,-472822
1783266455116283422,2026-07-05T22:47:35.116+07:00,540128033911744050,-342214,-313805,-367438,-472884
1783266455134465240,2026-07-05T22:47:35.134+07:00,540128033911744050,-342043,-313666,-367350,-472840
1783266455152647058,2026-07-05T22:47:35.152+07:00,540128033911744050,-341986,-313599,-367371,-472879
1783266455170828876,2026-07-05T22:47:35.170+07:00,540128033911744050,-341943,-313468,-367219,-472886
1783266455189010694,2026-07-05T22:47:35.189+07:00,540128033911744050,-341807,-313369,-367182,-472893
1783266455207192512,2026-07-05T22:47:35.207+07:00,540128034675835422,-341703,-313210,-367082,-472814
1783266455225374330,2026-07-05T22:47:35.225+07:00,540128034675835422,-341637,-313136,-367051,-472843
1783266455243556148,2026-07-05T22:47:35.243+07:00,540128034675835422,-341518,-313053,-367014,-472863
1783266455261737966,2026-07-05T22:47:35.261+07:00,540128034675835422,-341368,-312899,-366898,-472860
1783266455279919784,2026-07-05T22:47:35.279+07:00,540128034675835422,-341277,-312755,-366822,-472918
1783266455298101602,2026-07-05T22:47:35.298+07:00,540128034675835422,-341196,-312570,-366703,-472836
1783266455316283420,2026-07-05T22:47:35.316+07:00,540128034675835422,-341007,-312463,-366582,-472788
1783266455334465238,2026-07-05T22:47:35.334+07:00,540128034675835422,-340900,-312341,-366493,-472870
1783266455352647056,2026-07-05T22:47:35.352+07:00,540128034675835422,-340804,-312210,-366457,-472882
1783266455370828874,2026-07-05T22:47:35.370+07:00,540128034675835422,-340719,-312057,-366347,-472859
1783266455389010692,2026-07-05T22:47:35.389+07:00,540128034675835422,-340568,-311975,-366232,-472831
1783266455407192510,2026-07-05T22:47:35.407+07:00,540128034675835422,-340375,-311824,-366157,-472857
1783266455425374328,2026-07-05T22:47:35.425+07:00,540128034675835422,-340354,-311681,-366121,-472904
1783266455443556146,2026-07-05T22:47:35.443+07:00,540128034675835422,-340223,-311507,-365944,-472856
1783266455461737964,2026-07-05T22:47:35.461+07:00,540128034675835422,-340041,-311331,-365840,-472839
1783266455479919782,2026-07-05T22:47:35.479+07:00,540128034675835422,-339960,-311242,-365752,-472903
1783266455498101600,2026-07-05T22:47:35.498+07:00,540128034675835422,-339787,-311021,-365638,-472821
1783266455516283418,2026-07-05T22:47:35.516+07:00,540128034675835422,-339673,-310876,-365511,-472853
1783266455534465236,2026-07-05T22:47:35.534+07:00,540128034675835422,-339739,-310958,-365560,-472890
1783266455552647054,2026-07-05T22:47:35.552+07:00,540128034675835422,-339840,-311129,-365620,-472862
1783266455570828872,2026-07-05T22:47:35.570+07:00,540128034675835422,-340158,-311401,-365886,-472863
1783266455589010690,2026-07-05T22:47:35.589+07:00,540128034675835422,-340553,-311705,-366144,-472884
1783266455607192508,2026-07-05T22:47:35.607+07:00,540128034675835422,-340947,-312168,-366416,-472795
1783266455625374326,2026-07-05T22:47:35.625+07:00,540128034675835422,-341248,-312512,-366720,-472844
1783266455643556144,2026-07-05T22:47:35.643+07:00,540128034675835422,-341551,-312807,-366985,-472835
1783266455661737962,2026-07-05T22:47:35.661+07:00,540128034675835422,-341761,-313087,-367144,-472861
1783266455679919780,2026-07-05T22:47:35.679+07:00,540128034675835422,-341913,-313308,-367330,-472829
1783266455698101598,2026-07-05T22:47:35.698+07:00,540128034675835422,-342075,-313428,-367501,-472831
1783266455716283416,2026-07-05T22:47:35.716+07:00,540128034675835422,-342195,-313546,-367595,-472849
1783266455734465234,2026-07-05T22:47:35.734+07:00,540128034675835422,-342171,-313608,-367665,-472920
1783266455752647052,2026-07-05T22:47:35.752+07:00,540128034675835422,-342163,-313651,-367706,-472901
1783266455770828870,2026-07-05T22:47:35.770+07:00,540128034675835422,-342090,-313551,-367660,-472882
1783266455789010688,2026-07-05T22:47:35.789+07:00,540128034675835422,-342137,-313533,-367666,-472909
1783266455807192506,2026-07-05T22:47:35.807+07:00,540128034675835422,-342021,-313511,-367586,-472858
1783266455825374324,2026-07-05T22:47:35.825+07:00,540128034675835422,-342012,-313477,-367597,-472832
1783266455843556142,2026-07-05T22:47:35.843+07:00,540128034675835422,-341987,-313480,-367611,-472833
1783266455861737960,2026-07-05T22:47:35.861+07:00,540128034675835422,-341990,-313434,-367605,-472865
1783266455879919778,2026-07-05T22:47:35.879+07:00,540128034675835422,-341963,-313437,-367625,-472888
1783266455898101596,2026-07-05T22:47:35.898+07:00,540128034675835422,-341922,-313427,-367569,-472873
1783266455916283414,2026-07-05T22:47:35.916+07:00,540128034675835422,-341853,-313387,-367538,-472833
1783266455934465232,2026-07-05T22:47:35.934+07:00,540128034675835422,-341717,-313278,-367467,-472829
1783266455952647050,2026-07-05T22:47:35.952+07:00,540128034675835422,-341699,-313254,-367435,-472878
1783266455970828868,2026-07-05T22:47:35.970+07:00,540128035458081951,-341600,-313144,-367376,-472849
1783266455989010686,2026-07-05T22:47:35.989+07:00,540128035458081951,-341500,-312998,-367292,-472851
1783266456007192504,2026-07-05T22:47:36.007+07:00,540128035458081951,-341384,-312881,-367177,-472842
1783266456025374322,2026-07-05T22:47:36.025+07:00,540128035458081951,-341270,-312678,-367134,-472899
1783266456043556140,2026-07-05T22:47:36.043+07:00,540128035458081951,-341138,-312558,-367048,-472828
1783266456061737958,2026-07-05T22:47:36.061+07:00,540128035458081951,-341045,-312466,-367058,-472869
1783266456079919776,2026-07-05T22:47:36.079+07:00,540128035458081951,-340933,-312332,-366861,-472899
1783266456098101594,2026-07-05T22:47:36.098+07:00,540128035458081951,-340819,-312226,-366808,-472860
1783266456116283412,2026-07-05T22:47:36.116+07:00,540128035458081951,-340673,-312090,-366744,-472885
1783266456134465230,2026-07-05T22:47:36.134+07:00,540128035458081951,-340556,-311939,-366624,-472880
1783266456152647048,2026-07-05T22:47:36.152+07:00,540128035458081951,-340419,-311808,-366532,-472883
1783266456170828866,2026-07-05T22:47:36.170+07:00,540128035458081951,-340252,-311640,-366397,-472835
1783266456189010684,2026-07-05T22:47:36.189+07:00,540128035458081951,-340199,-311542,-366373,-472847
1783266456207192502,2026-07-05T22:47:36.207+07:00,540128035458081951,-340055,-311352,-366223,-472818
1783266456225374320,2026-07-05T22:47:36.225+07:00,540128035458081951,-339922,-311188,-366101,-472797
1783266456243556138,2026-07-05T22:47:36.243+07:00,540128035458081951,-339745,-311041,-366008,-472868
1783266456261737956,2026-07-05T22:47:36.261+07:00,540128035458081951,-339628,-310940,-365913,-472903
1783266456279919774,2026-07-05T22:47:36.279+07:00,540128035458081951,-339492,-310784,-365863,-472913
1783266456298101592,2026-07-05T22:47:36.298+07:00,540128035458081951,-339354,-310653,-365748,-472861
1783266456316283410,2026-07-05T22:47:36.316+07:00,540128035458081951,-339301,-310490,-365656,-472915
1783266456334465228,2026-07-05T22:47:36.334+07:00,540128035458081951,-339243,-310455,-365522,-472939
1783266456352647046,2026-07-05T22:47:36.352+07:00,540128035458081951,-339324,-310492,-365581,-472870
1783266456370828864,2026-07-05T22:47:36.370+07:00,540128035458081951,-339570,-310718,-365807,-472866
1783266456389010682,2026-07-05T22:47:36.389+07:00,540128035458081951,-339922,-311072,-366130,-472852
1783266456407192500,2026-07-05T22:47:36.407+07:00,540128035458081951,-340317,-311445,-366403,-472859
1783266456425374318,2026-07-05T22:47:36.425+07:00,540128035458081951,-340744,-311935,-366751,-472869
1783266456443556136,2026-07-05T22:47:36.443+07:00,540128035458081951,-341071,-312271,-367028,-472936
1783266456461737954,2026-07-05T22:47:36.461+07:00,540128035458081951,-341343,-312570,-367250,-472920
1783266456479919772,2026-07-05T22:47:36.479+07:00,540128035458081951,-341466,-312780,-367437,-472859
1783266456498101590,2026-07-05T22:47:36.498+07:00,540128035458081951,-341662,-313059,-367676,-472874
1783266456516283408,2026-07-05T22:47:36.516+07:00,540128035458081951,-341769,-313219,-367837,-472912
1783266456534465226,2026-07-05T22:47:36.534+07:00,540128035458081951,-341811,-313270,-367860,-472850
1783266456552647044,2026-07-05T22:47:36.552+07:00,540128035458081951,-341853,-313319,-367950,-472864
1783266456570828862,2026-07-05T22:47:36.570+07:00,540128035458081951,-341787,-313291,-367930,-472818
1783266456589010680,2026-07-05T22:47:36.589+07:00,540128035458081951,-341876,-313345,-367956,-472847
1783266456607192498,2026-07-05T22:47:36.607+07:00,540128035458081951,-341775,-313313,-367924,-472833
1783266456625374316,2026-07-05T22:47:36.625+07:00,540128035458081951,-341768,-313315,-367922,-472892
1783266456643556134,2026-07-05T22:47:36.643+07:00,540128035458081951,-341727,-313302,-367936,-472797
1783266456661737952,2026-07-05T22:47:36.661+07:00,540128035458081951,-341741,-313356,-368004,-472849
1783266456679919770,2026-07-05T22:47:36.679+07:00,540128035458081951,-341707,-313307,-367965,-472816
1783266456698101588,2026-07-05T22:47:36.698+07:00,540128035458081951,-341721,-313284,-367959,-472850
1783266456716283406,2026-07-05T22:47:36.716+07:00,540128035458081951,-341679,-313199,-367996,-472782
1783266456734465224,2026-07-05T22:47:36.734+07:00,540128035458081951,-341625,-313178,-367956,-472827
1783266456752647042,2026-07-05T22:47:36.752+07:00,540128036222153487,-341522,-313105,-367919,-472787
1783266456770828860,2026-07-05T22:47:36.770+07:00,540128036222153487,-341492,-313045,-367858,-472848
1783266456789010678,2026-07-05T22:47:36.789+07:00,540128036222153487,-341447,-313001,-367803,-472809
1783266456807192496,2026-07-05T22:47:36.807+07:00,540128036222153487,-341366,-312963,-367748,-472881
1783266456825374314,2026-07-05T22:47:36.825+07:00,540128036222153487,-341232,-312829,-367645,-472881
1783266456843556132,2026-07-05T22:47:36.843+07:00,540128036222153487,-341094,-312720,-367544,-472793
1783266456861737950,2026-07-05T22:47:36.861+07:00,540128036222153487,-341048,-312547,-367415,-472811
1783266456879919768,2026-07-05T22:47:36.879+07:00,540128036222153487,-340922,-312425,-367371,-472846
1783266456898101586,2026-07-05T22:47:36.898+07:00,540128036222153487,-340822,-312316,-367247,-472856
1783266456916283404,2026-07-05T22:47:36.916+07:00,540128036222153487,-340697,-312132,-367190,-472856
1783266456934465222,2026-07-05T22:47:36.934+07:00,540128036222153487,-340605,-312086,-367201,-472869
1783266456952647040,2026-07-05T22:47:36.952+07:00,540128036222153487,-340443,-311953,-367065,-472854
1783266456970828858,2026-07-05T22:47:36.970+07:00,540128036222153487,-340304,-311775,-366925,-472847
1783266456989010676,2026-07-05T22:47:36.989+07:00,540128036222153487,-340200,-311623,-366769,-472826
1783266457007192494,2026-07-05T22:47:37.007+07:00,540128036222153487,-340113,-311542,-366741,-472843
1783266457025374312,2026-07-05T22:47:37.025+07:00,540128036222153487,-340032,-311402,-366667,-472870
1783266457043556130,2026-07-05T22:47:37.043+07:00,540128036222153487,-339854,-311225,-366533,-472847
1783266457061737948,2026-07-05T22:47:37.061+07:00,540128036222153487,-339720,-311059,-366434,-472843
1783266457079919766,2026-07-05T22:47:37.079+07:00,540128036222153487,-339565,-310958,-366273,-472904
1783266457098101584,2026-07-05T22:47:37.098+07:00,540128036222153487,-339437,-310701,-366156,-472847
1783266457116283402,2026-07-05T22:47:37.116+07:00,540128036222153487,-339285,-310582,-366108,-472864
1783266457134465220,2026-07-05T22:47:37.134+07:00,540128036222153487,-339043,-310376,-365893,-472815
1783266457152647038,2026-07-05T22:47:37.152+07:00,540128036222153487,-339049,-310270,-365847,-472883
1783266457170828856,2026-07-05T22:47:37.170+07:00,540128036222153487,-338961,-310218,-365766,-472875
1783266457189010674,2026-07-05T22:47:37.189+07:00,540128036222153487,-339123,-310297,-365869,-472825
1783266457207192492,2026-07-05T22:47:37.207+07:00,540128036222153487,-339342,-310583,-366039,-472847
1783266457225374310,2026-07-05T22:47:37.225+07:00,540128036222153487,-339786,-310987,-366346,-472898
1783266457243556128,2026-07-05T22:47:37.243+07:00,540128036222153487,-340215,-311448,-366688,-472862
1783266457261737946,2026-07-05T22:47:37.261+07:00,540128036222153487,-340515,-311787,-366991,-472865
1783266457279919764,2026-07-05T22:47:37.279+07:00,540128036222153487,-340871,-312165,-367312,-472869
1783266457298101582,2026-07-05T22:47:37.298+07:00,540128036222153487,-341092,-312459,-367520,-472804
1783266457316283400,2026-07-05T22:47:37.316+07:00,540128036222153487,-341313,-312694,-367711,-472830
1783266457334465218,2026-07-05T22:47:37.334+07:00,540128036222153487,-341513,-312971,-367915,-472867
1783266457352647036,2026-07-05T22:47:37.352+07:00,540128036222153487,-341675,-313159,-368089,-472848
1783266457370828854,2026-07-05T22:47:37.370+07:00,540128036222153487,-341736,-313245,-368128,-472853
1783266457389010672,2026-07-05T22:47:37.389+07:00,540128036222153487,-341706,-313271,-368121,-472841
1783266457407192490,2026-07-05T22:47:37.407+07:00,540128036222153487,-341680,-313210,-368124,-472859
1783266457425374308,2026-07-05T22:47:37.425+07:00,540128036222153487,-341597,-313181,-368100,-472770
1783266457443556126,2026-07-05T22:47:37.443+07:00,540128036222153487,-341591,-313119,-368078,-472805
1783266457461737944,2026-07-05T22:47:37.461+07:00,540128036222153487,-341535,-313162,-368076,-472778
1783266457479919762,2026-07-05T22:47:37.479+07:00,540128036222153487,-341508,-313217,-368044,-472780
1783266457498101580,2026-07-05T22:47:37.498+07:00,540128036222153487,-341580,-313279,-368102,-472840
1783266457516283398,2026-07-05T22:47:37.516+07:00,540128036986241807,-341613,-313281,-368117,-472849
1783266457534465216,2026-07-05T22:47:37.534+07:00,540128036986241807,-341611,-313283,-368096,-472877
1783266457552647034,2026-07-05T22:47:37.552+07:00,540128036986241807,-341560,-313231,-368013,-472814
1783266457570828852,2026-07-05T22:47:37.570+07:00,540128036986241807,-341460,-313121,-368022,-472773
1783266457589010670,2026-07-05T22:47:37.589+07:00,540128036986241807,-341494,-313089,-367991,-472865
1783266457607192488,2026-07-05T22:47:37.607+07:00,540128036986241807,-341348,-312969,-367936,-472818
1783266457625374306,2026-07-05T22:47:37.625+07:00,540128036986241807,-341311,-312958,-367952,-472866
1783266457643556124,2026-07-05T22:47:37.643+07:00,540128036986241807,-341248,-312896,-367867,-472931
1783266457661737942,2026-07-05T22:47:37.661+07:00,540128036986241807,-341140,-312829,-367755,-472883
1783266457679919760,2026-07-05T22:47:37.679+07:00,540128036986241807,-341026,-312694,-367690,-472869
1783266457698101578,2026-07-05T22:47:37.698+07:00,540128036986241807,-340958,-312551,-367592,-472883
1783266457716283396,2026-07-05T22:47:37.716+07:00,540128036986241807,-340849,-312442,-367471,-472849
1783266457734465214,2026-07-05T22:47:37.734+07:00,540128036986241807,-340679,-312272,-367349,-472800
1783266457752647032,2026-07-05T22:47:37.752+07:00,540128036986241807,-340567,-312193,-367283,-472847
1783266457770828850,2026-07-05T22:47:37.770+07:00,540128036986241807,-340459,-312005,-367217,-472818
1783266457789010668,2026-07-05T22:47:37.789+07:00,540128036986241807,-340362,-311881,-367139,-472840
1783266457807192486,2026-07-05T22:47:37.807+07:00,540128036986241807,-340261,-311746,-367031,-472866
1783266457825374304,2026-07-05T22:47:37.825+07:00,540128036986241807,-340087,-311610,-366898,-472852
1783266457843556122,2026-07-05T22:47:37.843+07:00,540128036986241807,-339933,-311541,-366841,-472858
1783266457861737940,2026-07-05T22:47:37.861+07:00,540128036986241807,-339911,-311430,-366755,-472845
1783266457879919758,2026-07-05T22:47:37.879+07:00,540128036986241807,-339763,-311270,-366655,-472892
1783266457898101576,2026-07-05T22:47:37.898+07:00,540128036986241807,-339658,-311078,-366494,-472828
1783266457916283394,2026-07-05T22:47:37.916+07:00,540128036986241807,-339564,-310953,-366405,-472826
1783266457934465212,2026-07-05T22:47:37.934+07:00,540128036986241807,-339424,-310866,-366369,-472880
1783266457952647030,2026-07-05T22:47:37.952+07:00,540128036986241807,-339294,-310694,-366261,-472915
1783266457970828848,2026-07-05T22:47:37.970+07:00,540128036986241807,-339137,-310541,-366128,-472811
1783266457989010666,2026-07-05T22:47:37.989+07:00,540128036986241807,-339058,-310379,-366052,-472853
1783266458007192484,2026-07-05T22:47:38.007+07:00,540128036986241807,-339076,-310414,-366086,-472883
1783266458025374302,2026-07-05T22:47:38.025+07:00,540128036986241807,-339220,-310646,-366227,-472829
1783266458043556120,2026-07-05T22:47:38.043+07:00,540128036986241807,-339604,-310987,-366527,-472825
1783266458061737938,2026-07-05T22:47:38.061+07:00,540128036986241807,-340004,-311408,-366779,-472857
1783266458079919756,2026-07-05T22:47:38.079+07:00,540128036986241807,-340377,-311874,-367097,-472862
1783266458098101574,2026-07-05T22:47:38.098+07:00,540128036986241807,-340769,-312243,-367424,-472808
1783266458116283392,2026-07-05T22:47:38.116+07:00,540128036986241807,-340988,-312600,-367595,-472834
1783266458134465210,2026-07-05T22:47:38.134+07:00,540128036986241807,-341242,-312898,-367800,-472862
1783266458152647028,2026-07-05T22:47:38.152+07:00,540128036986241807,-341418,-313063,-367935,-472863
1783266458170828846,2026-07-05T22:47:38.170+07:00,540128036986241807,-341632,-313231,-368084,-472878
1783266458189010664,2026-07-05T22:47:38.189+07:00,540128036986241807,-341624,-313305,-368130,-472879
1783266458207192482,2026-07-05T22:47:38.207+07:00,540128036986241807,-341626,-313343,-368137,-472856
1783266458225374300,2026-07-05T22:47:38.225+07:00,540128036986241807,-341628,-313350,-368177,-472811
1783266458243556118,2026-07-05T22:47:38.243+07:00,540128036986241807,-341521,-313353,-368126,-472846
1783266458261737936,2026-07-05T22:47:38.261+07:00,540128036986241807,-341544,-313309,-368123,-472866
1783266458279919754,2026-07-05T22:47:38.279+07:00,540128037750307237,-341510,-313283,-368065,-472848
1783266458298101572,2026-07-05T22:47:38.298+07:00,540128037750307237,-341509,-313300,-368068,-472807
1783266458316283390,2026-07-05T22:47:38.316+07:00,540128037750307237,-341575,-313378,-368150,-472913
1783266458334465208,2026-07-05T22:47:38.334+07:00,540128037750307237,-341534,-313390,-368145,-472863
1783266458352647026,2026-07-05T22:47:38.352+07:00,540128037750307237,-341529,-313334,-368055,-472831
1783266458370828844,2026-07-05T22:47:38.370+07:00,540128037750307237,-341454,-313298,-368004,-472875
1783266458389010662,2026-07-05T22:47:38.389+07:00,540128037750307237,-341417,-313221,-367915,-472841
1783266458407192480,2026-07-05T22:47:38.407+07:00,540128037750307237,-341270,-313204,-367888,-472818
1783266458425374298,2026-07-05T22:47:38.425+07:00,540128037750307237,-341316,-313125,-367924,-472896
1783266458443556116,2026-07-05T22:47:38.443+07:00,540128037750307237,-341194,-312966,-367812,-472891
1783266458461737934,2026-07-05T22:47:38.461+07:00,540128037750307237,-341116,-312960,-367764,-472920
1783266458479919752,2026-07-05T22:47:38.479+07:00,540128037750307237,-341034,-312768,-367569,-472840
1783266458498101570,2026-07-05T22:47:38.498+07:00,540128037750307237,-340915,-312698,-367556,-472854
1783266458516283388,2026-07-05T22:47:38.516+07:00,540128037750307237,-340785,-312615,-367433,-472875
1783266458534465206,2026-07-05T22:47:38.534+07:00,540128037750307237,-340715,-312431,-367302,-472864
1783266458552647024,2026-07-05T22:47:38.552+07:00,540128037750307237,-340517,-312282,-367222,-472814
1783266458570828842,2026-07-05T22:47:38.570+07:00,540128037750307237,-340480,-312225,-367208,-472899
1783266458589010660,2026-07-05T22:47:38.589+07:00,540128037750307237,-340320,-312111,-367085,-472879
1783266458607192478,2026-07-05T22:47:38.607+07:00,540128037750307237,-340210,-311948,-366944,-472863
1783266458625374296,2026-07-05T22:47:38.625+07:00,540128037750307237,-340133,-311841,-366883,-472842
1783266458643556114,2026-07-05T22:47:38.643+07:00,540128037750307237,-339970,-311642,-366742,-472849
1783266458661737932,2026-07-05T22:47:38.661+07:00,540128037750307237,-339827,-311550,-366697,-472852
1783266458679919750,2026-07-05T22:47:38.679+07:00,540128037750307237,-339666,-311328,-366494,-472784
1783266458698101568,2026-07-05T22:47:38.698+07:00,540128037750307237,-339493,-311224,-366442,-472764
1783266458716283386,2026-07-05T22:47:38.716+07:00,540128037750307237,-339404,-311073,-366318,-472883
1783266458734465204,2026-07-05T22:47:38.734+07:00,540128037750307237,-339246,-310893,-366198,-472816
1783266458752647022,2026-07-05T22:47:38.752+07:00,540128037750307237,-339160,-310734,-366086,-472831
1783266458770828840,2026-07-05T22:47:38.770+07:00,540128037750307237,-338986,-310604,-365976,-472864
1783266458789010658,2026-07-05T22:47:38.789+07:00,540128037750307237,-338942,-310503,-365918,-472871
1783266458807192476,2026-07-05T22:47:38.807+07:00,540128037750307237,-338952,-310481,-365891,-472859
1783266458825374294,2026-07-05T22:47:38.825+07:00,540128037750307237,-339129,-310690,-365990,-472829
1783266458843556112,2026-07-05T22:47:38.843+07:00,540128037750307237,-339436,-311028,-366217,-472894
1783266458861737930,2026-07-05T22:47:38.861+07:00,540128037750307237,-339898,-311462,-366545,-472861
1783266458879919748,2026-07-05T22:47:38.879+07:00,540128037750307237,-340301,-311957,-366846,-472861
1783266458898101566,2026-07-05T22:47:38.898+07:00,540128037750307237,-340632,-312271,-367164,-472792
1783266458916283384,2026-07-05T22:47:38.916+07:00,540128037750307237,-340896,-312683,-367448,-472827
1783266458934465202,2026-07-05T22:47:38.934+07:00,540128037750307237,-341158,-312932,-367629,-472876
1783266458952647020,2026-07-05T22:47:38.952+07:00,540128037750307237,-341321,-313117,-367824,-472871
1783266458970828838,2026-07-05T22:47:38.970+07:00,540128037750307237,-341381,-313240,-367901,-472824
1783266458989010656,2026-07-05T22:47:38.989+07:00,540128037750307237,-341462,-313427,-367956,-472873
1783266459007192474,2026-07-05T22:47:39.007+07:00,540128037750307237,-341558,-313511,-368014,-472886
1783266459025374292,2026-07-05T22:47:39.025+07:00,540128037750307237,-341556,-313471,-368055,-472879
1783266459043556110,2026-07-05T22:47:39.043+07:00,540128038478008947,-341511,-313470,-368072,-472882
1783266459061737928,2026-07-05T22:47:39.061+07:00,540128038478008947,-341510,-313417,-368010,-472895
1783266459079919746,2026-07-05T22:47:39.079+07:00,540128038478008947,-341504,-313505,-368028,-472880
1783266459098101564,2026-07-05T22:47:39.098+07:00,540128038478008947,-341453,-313484,-367967,-472904
1783266459116283382,2026-07-05T22:47:39.116+07:00,540128038478008947,-341468,-313521,-367990,-472890
1783266459134465200,2026-07-05T22:47:39.134+07:00,540128038478008947,-341452,-313477,-367982,-472827
1783266459152647018,2026-07-05T22:47:39.152+07:00,540128038478008947,-341440,-313480,-367969,-472846
1783266459170828836,2026-07-05T22:47:39.170+07:00,540128038478008947,-341381,-313420,-367928,-472863
1783266459189010654,2026-07-05T22:47:39.189+07:00,540128038478008947,-341390,-313422,-367968,-472874
1783266459207192472,2026-07-05T22:47:39.207+07:00,540128038478008947,-341357,-313370,-367856,-472924
1783266459225374290,2026-07-05T22:47:39.225+07:00,540128038478008947,-341301,-313301,-367873,-472963
1783266459243556108,2026-07-05T22:47:39.243+07:00,540128038478008947,-341241,-313295,-367843,-472973
1783266459261737926,2026-07-05T22:47:39.261+07:00,540128038478008947,-341120,-313152,-367726,-472966
1783266459279919744,2026-07-05T22:47:39.279+07:00,540128038478008947,-341057,-313028,-367635,-472924
1783266459298101562,2026-07-05T22:47:39.298+07:00,540128038478008947,-340897,-312932,-367533,-472903
1783266459316283380,2026-07-05T22:47:39.316+07:00,540128038478008947,-340784,-312845,-367527,-472881
1783266459334465198,2026-07-05T22:47:39.334+07:00,540128038478008947,-340716,-312686,-367443,-472902
1783266459352647016,2026-07-05T22:47:39.352+07:00,540128038478008947,-340592,-312618,-367353,-472892
1783266459370828834,2026-07-05T22:47:39.370+07:00,540128038478008947,-340517,-312471,-367230,-472937
1783266459389010652,2026-07-05T22:47:39.389+07:00,540128038478008947,-340346,-312339,-367068,-472857
1783266459407192470,2026-07-05T22:47:39.407+07:00,540128038478008947,-340221,-312191,-367034,-472843
1783266459425374288,2026-07-05T22:47:39.425+07:00,540128038478008947,-340117,-312019,-366902,-472892
1783266459443556106,2026-07-05T22:47:39.443+07:00,540128038478008947,-340013,-311939,-366813,-472899
1783266459461737924,2026-07-05T22:47:39.461+07:00,540128038478008947,-339898,-311770,-366720,-472893
1783266459479919742,2026-07-05T22:47:39.479+07:00,540128038478008947,-339732,-311628,-366592,-472845
1783266459498101560,2026-07-05T22:47:39.498+07:00,540128038478008947,-339640,-311492,-366498,-472843
1783266459516283378,2026-07-05T22:47:39.516+07:00,540128038478008947,-339514,-311321,-366364,-472844
1783266459534465196,2026-07-05T22:47:39.534+07:00,540128038478008947,-339387,-311184,-366251,-472870
1783266459552647014,2026-07-05T22:47:39.552+07:00,540128038478008947,-339218,-311008,-366063,-472804
1783266459570828832,2026-07-05T22:47:39.570+07:00,540128038478008947,-339146,-310909,-365985,-472826
1783266459589010650,2026-07-05T22:47:39.589+07:00,540128038478008947,-339059,-310754,-365910,-472826
1783266459607192468,2026-07-05T22:47:39.607+07:00,540128038478008947,-338898,-310605,-365852,-472885
1783266459625374286,2026-07-05T22:47:39.625+07:00,540128038478008947,-338902,-310633,-365813,-472952
1783266459643556104,2026-07-05T22:47:39.643+07:00,540128038478008947,-338964,-310659,-365796,-472845
1783266459661737922,2026-07-05T22:47:39.661+07:00,540128038478008947,-339273,-311050,-366103,-472867
1783266459679919740,2026-07-05T22:47:39.679+07:00,540128038478008947,-339661,-311437,-366412,-472779
1783266459698101558,2026-07-05T22:47:39.698+07:00,540128038478008947,-340179,-311945,-366749,-472867
1783266459716283376,2026-07-05T22:47:39.716+07:00,540128038478008947,-340500,-312242,-367054,-472814
1783266459734465194,2026-07-05T22:47:39.734+07:00,540128038478008947,-340887,-312733,-367361,-472873
1783266459752647012,2026-07-05T22:47:39.752+07:00,540128038478008947,-341119,-313054,-367586,-472910
1783266459770828830,2026-07-05T22:47:39.770+07:00,540128039260279894,-341373,-313292,-367856,-472913
1783266459789010648,2026-07-05T22:47:39.789+07:00,540128039260279894,-341498,-313526,-367907,-472811
1783266459807192466,2026-07-05T22:47:39.807+07:00,540128039260279894,-341634,-313692,-368018,-472898
1783266459825374284,2026-07-05T22:47:39.825+07:00,540128039260279894,-341776,-313826,-368115,-472875
1783266459843556102,2026-07-05T22:47:39.843+07:00,540128039260279894,-341715,-313856,-368167,-472833
1783266459861737920,2026-07-05T22:47:39.861+07:00,540128039260279894,-341665,-313945,-368143,-472849
1783266459879919738,2026-07-05T22:47:39.879+07:00,540128039260279894,-341739,-313915,-368220,-472876
1783266459898101556,2026-07-05T22:47:39.898+07:00,540128039260279894,-341778,-313890,-368201,-472860
1783266459916283374,2026-07-05T22:47:39.916+07:00,540128039260279894,-341737,-313936,-368217,-472885
1783266459934465192,2026-07-05T22:47:39.934+07:00,540128039260279894,-341744,-313909,-368201,-472854
1783266459952647010,2026-07-05T22:47:39.952+07:00,540128039260279894,-341725,-313972,-368219,-472836
1783266459970828828,2026-07-05T22:47:39.970+07:00,540128039260279894,-341795,-313993,-368183,-472899
1783266459989010646,2026-07-05T22:47:39.989+07:00,540128039260279894,-341671,-313931,-368143,-472842
1783266460007192464,2026-07-05T22:47:40.007+07:00,540128039260279894,-341684,-313905,-368162,-472832
1783266460025374282,2026-07-05T22:47:40.025+07:00,540128039260279894,-341672,-313918,-368109,-472899
1783266460043556100,2026-07-05T22:47:40.043+07:00,540128039260279894,-341675,-313864,-368123,-472835
1783266460061737918,2026-07-05T22:47:40.061+07:00,540128039260279894,-341564,-313808,-368105,-472860
1783266460079919736,2026-07-05T22:47:40.079+07:00,540128039260279894,-341503,-313758,-368030,-472886
1783266460098101554,2026-07-05T22:47:40.098+07:00,540128039260279894,-341435,-313640,-367960,-472892
1783266460116283372,2026-07-05T22:47:40.116+07:00,540128039260279894,-341306,-313506,-367912,-472864
1783266460134465190,2026-07-05T22:47:40.134+07:00,540128039260279894,-341259,-313444,-367814,-472860
1783266460152647008,2026-07-05T22:47:40.152+07:00,540128039260279894,-341151,-313330,-367795,-472840
1783266460170828826,2026-07-05T22:47:40.170+07:00,540128039260279894,-341033,-313187,-367694,-472857
1783266460189010644,2026-07-05T22:47:40.189+07:00,540128039260279894,-340883,-313099,-367569,-472862
1783266460207192462,2026-07-05T22:47:40.207+07:00,540128039260279894,-340785,-312944,-367470,-472893
1783266460225374280,2026-07-05T22:47:40.225+07:00,540128039260279894,-340687,-312798,-367356,-472839
1783266460243556098,2026-07-05T22:47:40.243+07:00,540128039260279894,-340608,-312708,-367295,-472822
1783266460261737916,2026-07-05T22:47:40.261+07:00,540128039260279894,-340493,-312612,-367273,-472825
1783266460279919734,2026-07-05T22:47:40.279+07:00,540128039260279894,-340390,-312516,-367177,-472823
1783266460298101552,2026-07-05T22:47:40.298+07:00,540128039260279894,-340268,-312364,-367052,-472776
1783266460316283370,2026-07-05T22:47:40.316+07:00,540128039260279894,-340161,-312306,-366974,-472832
1783266460334465188,2026-07-05T22:47:40.334+07:00,540128039260279894,-340084,-312161,-366883,-472839
1783266460352647006,2026-07-05T22:47:40.352+07:00,540128039260279894,-339926,-312034,-366757,-472839
1783266460370828824,2026-07-05T22:47:40.370+07:00,540128039260279894,-339830,-311886,-366715,-472823
1783266460389010642,2026-07-05T22:47:40.389+07:00,540128039260279894,-339703,-311820,-366684,-472818
1783266460407192460,2026-07-05T22:47:40.407+07:00,540128039260279894,-339619,-311639,-366546,-472845
1783266460425374278,2026-07-05T22:47:40.425+07:00,540128039260279894,-339482,-311429,-366422,-472853
1783266460443556096,2026-07-05T22:47:40.443+07:00,540128039260279894,-339396,-311359,-366372,-472817
1783266460461737914,2026-07-05T22:47:40.461+07:00,540128039260279894,-339380,-311316,-366309,-472811
1783266460479919732,2026-07-05T22:47:40.479+07:00,540128039260279894,-339585,-311478,-366433,-472790
1783266460498101550,2026-07-05T22:47:40.498+07:00,540128039260279894,-339942,-311903,-366712,-472846
1783266460516283368,2026-07-05T22:47:40.516+07:00,540128039260279894,-340348,-312345,-367021,-472834
1783266460534465186,2026-07-05T22:47:40.534+07:00,540128039260279894,-340792,-312830,-367423,-472806
1783266460552647004,2026-07-05T22:47:40.552+07:00,540128040024371278,-341224,-313309,-367740,-472873
1783266460570828822,2026-07-05T22:47:40.570+07:00,540128040024371278,-341599,-313709,-368145,-472866
1783266460589010640,2026-07-05T22:47:40.589+07:00,540128040024371278,-341890,-314029,-368262,-472853
1783266460607192458,2026-07-05T22:47:40.607+07:00,540128040024371278,-342097,-314260,-368499,-472836
1783266460625374276,2026-07-05T22:47:40.625+07:00,540128040024371278,-342250,-314507,-368669,-472881
1783266460643556094,2026-07-05T22:47:40.643+07:00,540128040024371278,-342376,-314661,-368760,-472814
1783266460661737912,2026-07-05T22:47:40.661+07:00,540128040024371278,-342474,-314766,-368861,-472844
1783266460679919730,2026-07-05T22:47:40.679+07:00,540128040024371278,-342484,-314725,-368857,-472805
1783266460698101548,2026-07-05T22:47:40.698+07:00,540128040024371278,-342512,-314786,-368837,-472828
1783266460716283366,2026-07-05T22:47:40.716+07:00,540128040024371278,-342521,-314863,-368970,-472853
1783266460734465184,2026-07-05T22:47:40.734+07:00,540128040024371278,-342550,-314860,-368953,-472834
1783266460752647002,2026-07-05T22:47:40.752+07:00,540128040024371278,-342588,-314997,-368949,-472846
1783266460770828820,2026-07-05T22:47:40.770+07:00,540128040024371278,-342536,-314986,-368977,-472833
1783266460789010638,2026-07-05T22:47:40.789+07:00,540128040024371278,-342589,-315003,-369018,-472835
1783266460807192456,2026-07-05T22:47:40.807+07:00,540128040024371278,-342660,-315071,-369039,-472840
1783266460825374274,2026-07-05T22:47:40.825+07:00,540128040024371278,-342615,-315060,-369004,-472849
1783266460843556092,2026-07-05T22:47:40.843+07:00,540128040024371278,-342525,-315051,-368971,-472849
1783266460861737910,2026-07-05T22:47:40.861+07:00,540128040024371278,-342539,-315050,-368969,-472878
1783266460879919728,2026-07-05T22:47:40.879+07:00,540128040024371278,-342509,-314962,-368943,-472841
1783266460898101546,2026-07-05T22:47:40.898+07:00,540128040024371278,-342493,-314949,-368896,-472829
1783266460916283364,2026-07-05T22:47:40.916+07:00,540128040024371278,-342337,-314875,-368815,-472842
1783266460934465182,2026-07-05T22:47:40.934+07:00,540128040024371278,-342289,-314792,-368723,-472858
1783266460952647000,2026-07-05T22:47:40.952+07:00,540128040024371278,-342229,-314589,-368556,-472822
1783266460970828818,2026-07-05T22:47:40.970+07:00,540128040024371278,-342092,-314581,-368608,-472845
1783266460989010636,2026-07-05T22:47:40.989+07:00,540128040024371278,-342025,-314481,-368553,-472802
1783266461007192454,2026-07-05T22:47:41.007+07:00,540128040024371278,-341882,-314348,-368467,-472796
1783266461025374272,2026-07-05T22:47:41.025+07:00,540128040024371278,-341844,-314271,-368417,-472805
1783266461043556090,2026-07-05T22:47:41.043+07:00,540128040024371278,-341711,-314091,-368267,-472787
1783266461061737908,2026-07-05T22:47:41.061+07:00,540128040024371278,-341609,-313915,-368141,-472775
1783266461079919726,2026-07-05T22:47:41.079+07:00,540128040024371278,-341541,-313916,-368136,-472789
1783266461098101544,2026-07-05T22:47:41.098+07:00,540128040024371278,-341443,-313850,-368080,-472891
1783266461116283362,2026-07-05T22:47:41.116+07:00,540128040024371278,-341441,-313686,-367926,-472849
1783266461134465180,2026-07-05T22:47:41.134+07:00,540128040024371278,-341241,-313570,-367821,-472849
1783266461152646998,2026-07-05T22:47:41.152+07:00,540128040024371278,-341177,-313483,-367816,-472848
1783266461170828816,2026-07-05T22:47:41.170+07:00,540128040024371278,-341062,-313295,-367663,-472826
1783266461189010634,2026-07-05T22:47:41.189+07:00,540128040024371278,-340925,-313143,-367558,-472811
1783266461207192452,2026-07-05T22:47:41.207+07:00,540128040024371278,-340772,-313029,-367427,-472823
1783266461225374270,2026-07-05T22:47:41.225+07:00,540128040024371278,-340626,-312855,-367316,-472790
1783266461243556088,2026-07-05T22:47:41.243+07:00,540128040024371278,-340528,-312759,-367251,-472801
1783266461261737906,2026-07-05T22:47:41.261+07:00,540128040024371278,-340564,-312764,-367276,-472830
1783266461279919724,2026-07-05T22:47:41.279+07:00,540128040024371278,-340756,-312936,-367364,-472859
1783266461298101542,2026-07-05T22:47:41.298+07:00,540128040024371278,-341120,-313244,-367592,-472840
1783266461316283360,2026-07-05T22:47:41.316+07:00,540128040752042470,-341552,-313741,-367953,-472819
1783266461334465178,2026-07-05T22:47:41.334+07:00,540128040752042470,-341950,-314237,-368317,-472826
1783266461352646996,2026-07-05T22:47:41.352+07:00,540128040752042470,-342329,-314695,-368611,-472797
1783266461370828814,2026-07-05T22:47:41.370+07:00,540128040752042470,-342742,-315055,-368953,-472829
1783266461389010632,2026-07-05T22:47:41.389+07:00,540128040752042470,-343052,-315395,-369197,-472819
1783266461407192450,2026-07-05T22:47:41.407+07:00,540128040752042470,-343287,-315725,-369443,-472860
1783266461425374268,2026-07-05T22:47:41.425+07:00,540128040752042470,-343429,-315933,-369573,-472877
1783266461443556086,2026-07-05T22:47:41.443+07:00,540128040752042470,-343565,-316108,-369720,-472834
1783266461461737904,2026-07-05T22:47:41.461+07:00,540128040752042470,-343703,-316285,-369846,-472852
1783266461479919722,2026-07-05T22:47:41.479+07:00,540128040752042470,-343721,-316325,-369846,-472825
1783266461498101540,2026-07-05T22:47:41.498+07:00,540128040752042470,-343813,-316395,-369925,-472895
1783266461516283358,2026-07-05T22:47:41.516+07:00,540128040752042470,-343813,-316412,-370031,-472901
1783266461534465176,2026-07-05T22:47:41.534+07:00,540128040752042470,-343815,-316423,-370008,-472857
1783266461552646994,2026-07-05T22:47:41.552+07:00,540128040752042470,-343714,-316431,-369955,-472815
1783266461570828812,2026-07-05T22:47:41.570+07:00,540128040752042470,-343786,-316480,-369993,-472831
1783266461589010630,2026-07-05T22:47:41.589+07:00,540128040752042470,-343798,-316496,-369996,-472842
1783266461607192448,2026-07-05T22:47:41.607+07:00,540128040752042470,-343841,-316519,-369978,-472807
1783266461625374266,2026-07-05T22:47:41.625+07:00,540128040752042470,-343842,-316544,-369998,-472853
1783266461643556084,2026-07-05T22:47:41.643+07:00,540128040752042470,-343796,-316484,-369994,-472823
1783266461661737902,2026-07-05T22:47:41.661+07:00,540128040752042470,-343729,-316416,-369937,-472808
1783266461679919720,2026-07-05T22:47:41.679+07:00,540128040752042470,-343697,-316410,-369937,-472858
1783266461698101538,2026-07-05T22:47:41.698+07:00,540128040752042470,-343681,-316319,-369858,-472801
1783266461716283356,2026-07-05T22:47:41.716+07:00,540128040752042470,-343578,-316269,-369800,-472856
1783266461734465174,2026-07-05T22:47:41.734+07:00,540128040752042470,-343541,-316137,-369774,-472799
1783266461752646992,2026-07-05T22:47:41.752+07:00,540128040752042470,-343431,-316098,-369686,-472823
1783266461770828810,2026-07-05T22:47:41.770+07:00,540128040752042470,-343319,-316040,-369608,-472811
1783266461789010628,2026-07-05T22:47:41.789+07:00,540128040752042470,-343274,-315892,-369574,-472827
1783266461807192446,2026-07-05T22:47:41.807+07:00,540128040752042470,-343149,-315810,-369462,-472841
1783266461825374264,2026-07-05T22:47:41.825+07:00,540128040752042470,-343044,-315669,-369377,-472774
1783266461843556082,2026-07-05T22:47:41.843+07:00,540128040752042470,-342963,-315569,-369313,-472882
1783266461861737900,2026-07-05T22:47:41.861+07:00,540128040752042470,-342817,-315370,-369156,-472811
1783266461879919718,2026-07-05T22:47:41.879+07:00,540128040752042470,-342715,-315276,-369051,-472853
1783266461898101536,2026-07-05T22:47:41.898+07:00,540128040752042470,-342642,-315191,-368964,-472759
1783266461916283354,2026-07-05T22:47:41.916+07:00,540128040752042470,-342522,-315038,-368860,-472791
1783266461934465172,2026-07-05T22:47:41.934+07:00,540128040752042470,-342448,-314980,-368820,-472809
1783266461952646990,2026-07-05T22:47:41.952+07:00,540128040752042470,-342318,-314797,-368755,-472808
1783266461970828808,2026-07-05T22:47:41.970+07:00,540128040752042470,-342255,-314699,-368664,-472829
1783266461989010626,2026-07-05T22:47:41.989+07:00,540128040752042470,-342061,-314529,-368548,-472783
1783266462007192444,2026-07-05T22:47:42.007+07:00,540128040752042470,-342031,-314430,-368488,-472806
1783266462025374262,2026-07-05T22:47:42.025+07:00,540128040752042470,-341889,-314198,-368371,-472839
1783266462043556080,2026-07-05T22:47:42.043+07:00,540128041425168827,-341754,-314104,-368250,-472850
1783266462061737898,2026-07-05T22:47:42.061+07:00,540128041425168827,-341643,-313989,-368218,-472863
1783266462079919716,2026-07-05T22:47:42.079+07:00,540128041425168827,-341531,-313894,-368084,-472852
1783266462098101534,2026-07-05T22:47:42.098+07:00,540128041425168827,-341567,-313966,-368136,-472863
1783266462116283352,2026-07-05T22:47:42.116+07:00,540128041425168827,-341727,-314079,-368259,-472815
1783266462134465170,2026-07-05T22:47:42.134+07:00,540128041425168827,-342118,-314492,-368488,-472852
1783266462152646988,2026-07-05T22:47:42.152+07:00,540128041425168827,-342627,-315017,-368867,-472858
1783266462170828806,2026-07-05T22:47:42.170+07:00,540128041425168827,-343061,-315482,-369216,-472858
1783266462189010624,2026-07-05T22:47:42.189+07:00,540128041425168827,-343447,-315950,-369545,-472830
1783266462207192442,2026-07-05T22:47:42.207+07:00,540128041425168827,-343754,-316353,-369845,-472884
1783266462225374260,2026-07-05T22:47:42.225+07:00,540128041425168827,-344096,-316740,-370153,-472840
1783266462243556078,2026-07-05T22:47:42.243+07:00,540128041425168827,-344288,-316991,-370301,-472848
1783266462261737896,2026-07-05T22:47:42.261+07:00,540128041425168827,-344475,-317212,-370503,-472839
1783266462279919714,2026-07-05T22:47:42.279+07:00,540128041425168827,-344655,-317450,-370678,-472858
1783266462298101532,2026-07-05T22:47:42.298+07:00,540128041425168827,-344764,-317656,-370785,-472877
1783266462316283350,2026-07-05T22:47:42.316+07:00,540128041425168827,-344829,-317701,-370842,-472894
1783266462334465168,2026-07-05T22:47:42.334+07:00,540128041425168827,-344771,-317696,-370839,-472878
1783266462352646986,2026-07-05T22:47:42.352+07:00,540128041425168827,-344821,-317746,-370845,-472854
1783266462370828804,2026-07-05T22:47:42.370+07:00,540128041425168827,-344820,-317675,-370763,-472890
1783266462389010622,2026-07-05T22:47:42.389+07:00,540128041425168827,-344811,-317720,-370822,-472822
1783266462407192440,2026-07-05T22:47:42.407+07:00,540128041425168827,-344811,-317757,-370840,-472807
1783266462425374258,2026-07-05T22:47:42.425+07:00,540128041425168827,-344775,-317723,-370822,-472836
1783266462443556076,2026-07-05T22:47:42.443+07:00,540128041425168827,-344796,-317718,-370807,-472845
1783266462461737894,2026-07-05T22:47:42.461+07:00,540128041425168827,-344782,-317741,-370777,-472825
1783266462479919712,2026-07-05T22:47:42.479+07:00,540128041425168827,-344757,-317690,-370737,-472850
1783266462498101530,2026-07-05T22:47:42.498+07:00,540128041425168827,-344710,-317672,-370696,-472862
1783266462516283348,2026-07-05T22:47:42.516+07:00,540128041425168827,-344581,-317496,-370589,-472771
1783266462534465166,2026-07-05T22:47:42.534+07:00,540128041425168827,-344595,-317478,-370546,-472873
1783266462552646984,2026-07-05T22:47:42.552+07:00,540128041425168827,-344475,-317365,-370490,-472801
1783266462570828802,2026-07-05T22:47:42.570+07:00,540128041425168827,-344393,-317295,-370404,-472785
1783266462589010620,2026-07-05T22:47:42.589+07:00,540128041425168827,-344330,-317214,-370345,-472865
1783266462607192438,2026-07-05T22:47:42.607+07:00,540128041425168827,-344167,-317025,-370259,-472854
1783266462625374256,2026-07-05T22:47:42.625+07:00,540128041425168827,-344077,-316948,-370203,-472859
1783266462643556074,2026-07-05T22:47:42.643+07:00,540128041425168827,-343935,-316764,-370086,-472880
1783266462661737892,2026-07-05T22:47:42.661+07:00,540128041425168827,-343808,-316638,-369978,-472916
1783266462679919710,2026-07-05T22:47:42.679+07:00,540128041425168827,-343693,-316532,-369862,-472924
1783266462698101528,2026-07-05T22:47:42.698+07:00,540128041425168827,-343548,-316399,-369782,-472886
1783266462716283346,2026-07-05T22:47:42.716+07:00,540128042134703174,-343410,-316253,-369629,-472847
1783266462734465164,2026-07-05T22:47:42.734+07:00,540128042134703174,-343319,-316071,-369551,-472858
1783266462752646982,2026-07-05T22:47:42.752+07:00,540128042134703174,-343168,-315885,-369430,-472795
1783266462770828800,2026-07-05T22:47:42.770+07:00,540128042134703174,-343083,-315727,-369327,-472844
1783266462789010618,2026-07-05T22:47:42.789+07:00,540128042134703174,-342970,-315621,-369218,-472896
1783266462807192436,2026-07-05T22:47:42.807+07:00,540128042134703174,-342885,-315474,-369087,-472870
1783266462825374254,2026-07-05T22:47:42.825+07:00,540128042134703174,-342693,-315324,-368937,-472793
1783266462843556072,2026-07-05T22:47:42.843+07:00,540128042134703174,-342614,-315149,-368894,-472835
1783266462861737890,2026-07-05T22:47:42.861+07:00,540128042134703174,-342481,-315074,-368809,-472880
1783266462879919708,2026-07-05T22:47:42.879+07:00,540128042134703174,-342322,-314880,-368699,-472865
1783266462898101526,2026-07-05T22:47:42.898+07:00,540128042134703174,-342182,-314747,-368573,-472845
1783266462916283344,2026-07-05T22:47:42.916+07:00,540128042134703174,-341978,-314526,-368419,-472850
1783266462934465162,2026-07-05T22:47:42.934+07:00,540128042134703174,-341901,-314414,-368383,-472831
1783266462952646980,2026-07-05T22:47:42.952+07:00,540128042134703174,-341781,-314353,-368311,-472782
1783266462970828798,2026-07-05T22:47:42.970+07:00,540128042134703174,-341897,-314397,-368334,-472795
1783266462989010616,2026-07-05T22:47:42.989+07:00,540128042134703174,-342212,-314747,-368649,-472826
1783266463007192434,2026-07-05T22:47:43.007+07:00,540128042134703174,-342579,-315148,-368921,-472826
1783266463025374252,2026-07-05T22:47:43.025+07:00,540128042134703174,-343066,-315637,-369301,-472863
1783266463043556070,2026-07-05T22:47:43.043+07:00,540128042134703174,-343523,-316166,-369614,-472891
1783266463061737888,2026-07-05T22:47:43.061+07:00,540128042134703174,-343827,-316474,-369887,-472830
1783266463079919706,2026-07-05T22:47:43.079+07:00,540128042134703174,-344133,-316884,-370129,-472868
1783266463098101524,2026-07-05T22:47:43.098+07:00,540128042134703174,-344324,-317109,-370366,-472828
1783266463116283342,2026-07-05T22:47:43.116+07:00,540128042134703174,-344526,-317379,-370543,-472867
1783266463134465160,2026-07-05T22:47:43.134+07:00,540128042134703174,-344669,-317577,-370682,-472783
1783266463152646978,2026-07-05T22:47:43.152+07:00,540128042134703174,-344765,-317754,-370771,-472844
1783266463170828796,2026-07-05T22:47:43.170+07:00,540128042134703174,-344837,-317846,-370840,-472825
1783266463189010614,2026-07-05T22:47:43.189+07:00,540128042134703174,-344870,-317892,-370832,-472860
1783266463207192432,2026-07-05T22:47:43.207+07:00,540128042134703174,-344848,-317845,-370856,-472878
1783266463225374250,2026-07-05T22:47:43.225+07:00,540128042134703174,-344746,-317823,-370863,-472854
1783266463243556068,2026-07-05T22:47:43.243+07:00,540128042134703174,-344739,-317790,-370796,-472832
1783266463261737886,2026-07-05T22:47:43.261+07:00,540128042134703174,-344778,-317804,-370832,-472817
1783266463279919704,2026-07-05T22:47:43.279+07:00,540128042134703174,-344713,-317796,-370754,-472819
1783266463298101522,2026-07-05T22:47:43.298+07:00,540128042134703174,-344771,-317817,-370780,-472818
1783266463316283340,2026-07-05T22:47:43.316+07:00,540128042134703174,-344823,-317768,-370775,-472883
1783266463334465158,2026-07-05T22:47:43.334+07:00,540128042134703174,-344819,-317780,-370710,-472898
1783266463352646976,2026-07-05T22:47:43.352+07:00,540128042134703174,-344731,-317731,-370696,-472901
1783266463370828794,2026-07-05T22:47:43.370+07:00,540128042134703174,-344614,-317612,-370557,-472821
1783266463389010612,2026-07-05T22:47:43.389+07:00,540128042134703174,-344575,-317548,-370551,-472842
1783266463407192430,2026-07-05T22:47:43.407+07:00,540128042134703174,-344481,-317503,-370478,-472818
1783266463425374248,2026-07-05T22:47:43.425+07:00,540128042826048792,-344362,-317444,-370457,-472809
1783266463443556066,2026-07-05T22:47:43.443+07:00,540128042826048792,-344281,-317312,-370308,-472802
1783266463461737884,2026-07-05T22:47:43.461+07:00,540128042826048792,-344223,-317223,-370269,-472801
1783266463479919702,2026-07-05T22:47:43.479+07:00,540128042826048792,-344139,-317058,-370194,-472841
1783266463498101520,2026-07-05T22:47:43.498+07:00,540128042826048792,-343975,-316941,-370077,-472860
1783266463516283338,2026-07-05T22:47:43.516+07:00,540128042826048792,-343889,-316831,-370042,-472825
1783266463534465156,2026-07-05T22:47:43.534+07:00,540128042826048792,-343768,-316653,-369935,-472846
1783266463552646974,2026-07-05T22:47:43.552+07:00,540128042826048792,-343661,-316551,-369824,-472862
1783266463570828792,2026-07-05T22:47:43.570+07:00,540128042826048792,-343516,-316459,-369702,-472861
1783266463589010610,2026-07-05T22:47:43.589+07:00,540128042826048792,-343421,-316310,-369572,-472874
1783266463607192428,2026-07-05T22:47:43.607+07:00,540128042826048792,-343281,-316120,-369443,-472879
1783266463625374246,2026-07-05T22:47:43.625+07:00,540128042826048792,-343179,-315972,-369381,-472844
1783266463643556064,2026-07-05T22:47:43.643+07:00,540128042826048792,-343029,-315850,-369255,-472806
1783266463661737882,2026-07-05T22:47:43.661+07:00,540128042826048792,-342918,-315718,-369173,-472901
1783266463679919700,2026-07-05T22:47:43.679+07:00,540128042826048792,-342836,-315564,-369013,-472833
1783266463698101518,2026-07-05T22:47:43.698+07:00,540128042826048792,-342710,-315394,-368966,-472848
1783266463716283336,2026-07-05T22:47:43.716+07:00,540128042826048792,-342532,-315240,-368854,-472848
1783266463734465154,2026-07-05T22:47:43.734+07:00,540128042826048792,-342428,-315031,-368710,-472863
1783266463752646972,2026-07-05T22:47:43.752+07:00,540128042826048792,-342270,-314900,-368611,-472893
1783266463770828790,2026-07-05T22:47:43.770+07:00,540128042826048792,-342087,-314747,-368490,-472866
1783266463789010608,2026-07-05T22:47:43.789+07:00,540128042826048792,-342035,-314665,-368371,-472835
1783266463807192426,2026-07-05T22:47:43.807+07:00,540128042826048792,-342059,-314604,-368397,-472869
1783266463825374244,2026-07-05T22:47:43.825+07:00,540128042826048792,-342219,-314759,-368465,-472861
1783266463843556062,2026-07-05T22:47:43.843+07:00,540128042826048792,-342576,-315235,-368789,-472897
1783266463861737880,2026-07-05T22:47:43.861+07:00,540128042826048792,-342968,-315644,-369045,-472911
1783266463879919698,2026-07-05T22:47:43.879+07:00,540128042826048792,-343489,-316081,-369395,-472953
1783266463898101516,2026-07-05T22:47:43.898+07:00,540128042826048792,-343752,-316417,-369671,-472936
1783266463916283334,2026-07-05T22:47:43.916+07:00,540128042826048792,-344024,-316735,-369939,-472909
1783266463934465152,2026-07-05T22:47:43.934+07:00,540128042826048792,-344211,-317011,-370091,-472922
1783266463952646970,2026-07-05T22:47:43.952+07:00,540128042826048792,-344353,-317241,-370227,-472884
1783266463970828788,2026-07-05T22:47:43.970+07:00,540128042826048792,-344490,-317306,-370304,-472842
1783266463989010606,2026-07-05T22:47:43.989+07:00,540128042826048792,-344623,-317487,-370433,-472945
1783266464007192424,2026-07-05T22:47:44.007+07:00,540128042826048792,-344622,-317572,-370468,-472863
1783266464025374242,2026-07-05T22:47:44.025+07:00,540128042826048792,-344565,-317588,-370441,-472861
1783266464043556060,2026-07-05T22:47:44.043+07:00,540128042826048792,-344485,-317526,-370397,-472858
1783266464061737878,2026-07-05T22:47:44.061+07:00,540128042826048792,-344431,-317427,-370341,-472830
1783266464079919696,2026-07-05T22:47:44.079+07:00,540128042826048792,-344416,-317394,-370322,-472885
1783266464098101514,2026-07-05T22:47:44.098+07:00,540128042826048792,-344403,-317397,-370328,-472895
1783266464116283332,2026-07-05T22:47:44.116+07:00,540128043590192046,-344434,-317359,-370215,-472813
1783266464134465150,2026-07-05T22:47:44.134+07:00,540128043590192046,-344419,-317354,-370263,-472896
1783266464152646968,2026-07-05T22:47:44.152+07:00,540128043590192046,-344393,-317352,-370206,-472825
1783266464170828786,2026-07-05T22:47:44.170+07:00,540128043590192046,-344341,-317312,-370188,-472810
1783266464189010604,2026-07-05T22:47:44.189+07:00,540128043590192046,-344315,-317240,-370163,-472849
1783266464207192422,2026-07-05T22:47:44.207+07:00,540128043590192046,-344211,-317169,-370068,-472860
1783266464225374240,2026-07-05T22:47:44.225+07:00,540128043590192046,-344117,-317068,-370000,-472869
1783266464243556058,2026-07-05T22:47:44.243+07:00,540128043590192046,-343977,-316912,-369888,-472892
1783266464261737876,2026-07-05T22:47:44.261+07:00,540128043590192046,-343945,-316834,-369817,-472875
1783266464279919694,2026-07-05T22:47:44.279+07:00,540128043590192046,-343815,-316704,-369735,-472883
1783266464298101512,2026-07-05T22:47:44.298+07:00,540128043590192046,-343718,-316577,-369648,-472915
1783266464316283330,2026-07-05T22:47:44.316+07:00,540128043590192046,-343539,-316394,-369554,-472867
1783266464334465148,2026-07-05T22:47:44.334+07:00,540128043590192046,-343422,-316308,-369452,-472867
1783266464352646966,2026-07-05T22:47:44.352+07:00,540128043590192046,-343318,-316154,-369363,-472907
1783266464370828784,2026-07-05T22:47:44.370+07:00,540128043590192046,-343190,-315921,-369168,-472853
1783266464389010602,2026-07-05T22:47:44.389+07:00,540128043590192046,-343080,-315841,-369073,-472857
1783266464407192420,2026-07-05T22:47:44.407+07:00,540128043590192046,-342876,-315656,-368953,-472814
1783266464425374238,2026-07-05T22:47:44.425+07:00,540128043590192046,-342723,-315446,-368877,-472818
1783266464443556056,2026-07-05T22:47:44.443+07:00,540128043590192046,-342606,-315337,-368788,-472881
1783266464461737874,2026-07-05T22:47:44.461+07:00,540128043590192046,-342486,-315118,-368614,-472891
1783266464479919692,2026-07-05T22:47:44.479+07:00,540128043590192046,-342316,-314991,-368493,-472825
1783266464498101510,2026-07-05T22:47:44.498+07:00,540128043590192046,-342209,-314803,-368344,-472818
1783266464516283328,2026-07-05T22:47:44.516+07:00,540128043590192046,-342066,-314652,-368238,-472829
1783266464534465146,2026-07-05T22:47:44.534+07:00,540128043590192046,-341965,-314430,-368076,-472846
1783266464552646964,2026-07-05T22:47:44.552+07:00,540128043590192046,-341802,-314295,-367993,-472801
1783266464570828782,2026-07-05T22:47:44.570+07:00,540128043590192046,-341666,-314120,-367912,-472833
1783266464589010600,2026-07-05T22:47:44.589+07:00,540128043590192046,-341545,-313973,-367719,-472824
1783266464607192418,2026-07-05T22:47:44.607+07:00,540128043590192046,-341411,-313823,-367607,-472813
1783266464625374236,2026-07-05T22:47:44.625+07:00,540128043590192046,-341240,-313645,-367466,-472788
1783266464643556054,2026-07-05T22:47:44.643+07:00,540128043590192046,-341224,-313631,-367427,-472815
1783266464661737872,2026-07-05T22:47:44.661+07:00,540128043590192046,-341375,-313795,-367525,-472811
1783266464679919690,2026-07-05T22:47:44.679+07:00,540128043590192046,-341624,-314008,-367709,-472793
1783266464698101508,2026-07-05T22:47:44.698+07:00,540128043590192046,-342069,-314425,-368027,-472866
1783266464716283326,2026-07-05T22:47:44.716+07:00,540128043590192046,-342421,-314915,-368372,-472823
1783266464734465144,2026-07-05T22:47:44.734+07:00,540128043590192046,-342808,-315376,-368702,-472793
1783266464752646962,2026-07-05T22:47:44.752+07:00,540128043590192046,-343072,-315657,-368951,-472791
1783266464770828780,2026-07-05T22:47:44.770+07:00,540128043590192046,-343308,-316053,-369187,-472818
1783266464789010598,2026-07-05T22:47:44.789+07:00,540128043590192046,-343506,-316229,-369300,-472865
1783266464807192416,2026-07-05T22:47:44.807+07:00,540128043590192046,-343614,-316415,-369469,-472840
1783266464825374234,2026-07-05T22:47:44.825+07:00,540128043590192046,-343751,-316573,-369568,-472841
1783266464843556052,2026-07-05T22:47:44.843+07:00,540128043590192046,-343885,-316706,-369638,-472856
1783266464861737870,2026-07-05T22:47:44.861+07:00,540128043590192046,-343900,-316788,-369710,-472832
1783266464879919688,2026-07-05T22:47:44.879+07:00,540128044354289518,-343922,-316758,-369668,-472793
1783266464898101506,2026-07-05T22:47:44.898+07:00,540128044354289518,-343868,-316732,-369607,-472793
1783266464916283324,2026-07-05T22:47:44.916+07:00,540128044354289518,-343842,-316663,-369580,-472822
1783266464934465142,2026-07-05T22:47:44.934+07:00,540128044354289518,-343798,-316651,-369582,-472830
1783266464952646960,2026-07-05T22:47:44.952+07:00,540128044354289518,-343796,-316610,-369670,-472870
1783266464970828778,2026-07-05T22:47:44.970+07:00,540128044354289518,-343849,-316616,-369658,-472875
1783266464989010596,2026-07-05T22:47:44.989+07:00,540128044354289518,-343805,-316601,-369583,-472836
1783266465007192414,2026-07-05T22:47:45.007+07:00,540128044354289518,-343783,-316616,-369551,-472843
1783266465025374232,2026-07-05T22:47:45.025+07:00,540128044354289518,-343694,-316515,-369454,-472763
1783266465043556050,2026-07-05T22:47:45.043+07:00,540128044354289518,-343626,-316467,-369431,-472812
1783266465061737868,2026-07-05T22:47:45.061+07:00,540128044354289518,-343564,-316334,-369332,-472789
1783266465079919686,2026-07-05T22:47:45.079+07:00,540128044354289518,-343537,-316292,-369335,-472814
1783266465098101504,2026-07-05T22:47:45.098+07:00,540128044354289518,-343345,-316139,-369164,-472775
1783266465116283322,2026-07-05T22:47:45.116+07:00,540128044354289518,-343262,-316144,-369112,-472831
1783266465134465140,2026-07-05T22:47:45.134+07:00,540128044354289518,-343185,-316011,-369038,-472856
1783266465152646958,2026-07-05T22:47:45.152+07:00,540128044354289518,-343032,-315786,-368916,-472823
1783266465170828776,2026-07-05T22:47:45.170+07:00,540128044354289518,-342967,-315703,-368907,-472865
1783266465189010594,2026-07-05T22:47:45.189+07:00,540128044354289518,-342899,-315523,-368744,-472813
1783266465207192412,2026-07-05T22:47:45.207+07:00,540128044354289518,-342755,-315495,-368630,-472895
1783266465225374230,2026-07-05T22:47:45.225+07:00,540128044354289518,-342592,-315275,-368526,-472787
1783266465243556048,2026-07-05T22:47:45.243+07:00,540128044354289518,-342454,-315134,-368412,-472856
1783266465261737866,2026-07-05T22:47:45.261+07:00,540128044354289518,-342377,-315027,-368327,-472922
1783266465279919684,2026-07-05T22:47:45.279+07:00,540128044354289518,-342279,-314793,-368206,-472845
1783266465298101502,2026-07-05T22:47:45.298+07:00,540128044354289518,-342142,-314675,-368158,-472839
1783266465316283320,2026-07-05T22:47:45.316+07:00,540128044354289518,-342003,-314577,-368026,-472821
1783266465334465138,2026-07-05T22:47:45.334+07:00,540128044354289518,-341869,-314408,-367894,-472860
1783266465352646956,2026-07-05T22:47:45.352+07:00,540128044354289518,-341739,-314266,-367765,-472787
1783266465370828774,2026-07-05T22:47:45.370+07:00,540128044354289518,-341562,-314055,-367682,-472833
1783266465389010592,2026-07-05T22:47:45.389+07:00,540128044354289518,-341534,-313984,-367585,-472934
1783266465407192410,2026-07-05T22:47:45.407+07:00,540128044354289518,-341367,-313752,-367399,-472881
1783266465425374228,2026-07-05T22:47:45.425+07:00,540128044354289518,-341243,-313639,-367308,-472844
1783266465443556046,2026-07-05T22:47:45.443+07:00,540128044354289518,-341104,-313416,-367162,-472833
1783266465461737864,2026-07-05T22:47:45.461+07:00,540128044354289518,-340964,-313313,-367080,-472797
1783266465479919682,2026-07-05T22:47:45.479+07:00,540128044354289518,-340787,-313105,-366946,-472848
1783266465498101500,2026-07-05T22:47:45.498+07:00,540128044354289518,-340679,-312965,-366856,-472890
1783266465516283318,2026-07-05T22:47:45.516+07:00,540128044354289518,-340611,-312876,-366786,-472878
1783266465534465136,2026-07-05T22:47:45.534+07:00,540128044354289518,-340590,-312871,-366735,-472848
1783266465552646954,2026-07-05T22:47:45.552+07:00,540128044354289518,-340833,-313109,-366942,-472861
1783266465570828772,2026-07-05T22:47:45.570+07:00,540128044354289518,-341209,-313441,-367167,-472843
1783266465589010590,2026-07-05T22:47:45.589+07:00,540128044354289518,-341612,-313867,-367488,-472886
1783266465607192408,2026-07-05T22:47:45.607+07:00,540128044354289518,-341991,-314306,-367806,-472822
1783266465625374226,2026-07-05T22:47:45.625+07:00,540128044354289518,-342302,-314750,-368095,-472842
1783266465643556044,2026-07-05T22:47:45.643+07:00,540128045118374802,-342561,-315034,-368333,-472822
1783266465661737862,2026-07-05T22:47:45.661+07:00,540128045118374802,-342793,-315275,-368509,-472807
1783266465679919680,2026-07-05T22:47:45.679+07:00,540128045118374802,-342978,-315480,-368628,-472819
1783266465698101498,2026-07-05T22:47:45.698+07:00,540128045118374802,-343085,-315731,-368731,-472895
1783266465716283316,2026-07-05T22:47:45.716+07:00,540128045118374802,-343173,-315788,-368833,-472839
1783266465734465134,2026-07-05T22:47:45.734+07:00,540128045118374802,-343246,-315873,-368934,-472868
1783266465752646952,2026-07-05T22:47:45.752+07:00,540128045118374802,-343201,-315895,-368847,-472831
1783266465770828770,2026-07-05T22:47:45.770+07:00,540128045118374802,-343138,-315821,-368868,-472761
1783266465789010588,2026-07-05T22:47:45.789+07:00,540128045118374802,-343160,-315877,-368896,-472877
1783266465807192406,2026-07-05T22:47:45.807+07:00,540128045118374802,-343123,-315851,-368858,-472878
1783266465825374224,2026-07-05T22:47:45.825+07:00,540128045118374802,-343138,-315768,-368877,-472874
1783266465843556042,2026-07-05T22:47:45.843+07:00,540128045118374802,-343131,-315815,-368835,-472884
1783266465861737860,2026-07-05T22:47:45.861+07:00,540128045118374802,-343088,-315763,-368798,-472870
1783266465879919678,2026-07-05T22:47:45.879+07:00,540128045118374802,-343064,-315740,-368796,-472833
1783266465898101496,2026-07-05T22:47:45.898+07:00,540128045118374802,-343064,-315719,-368805,-472864
1783266465916283314,2026-07-05T22:47:45.916+07:00,540128045118374802,-343023,-315712,-368789,-472823
1783266465934465132,2026-07-05T22:47:45.934+07:00,540128045118374802,-342971,-315603,-368725,-472910
1783266465952646950,2026-07-05T22:47:45.952+07:00,540128045118374802,-342862,-315484,-368639,-472877
1783266465970828768,2026-07-05T22:47:45.970+07:00,540128045118374802,-342775,-315347,-368571,-472878
1783266465989010586,2026-07-05T22:47:45.989+07:00,540128045118374802,-342658,-315218,-368484,-472847
1783266466007192404,2026-07-05T22:47:46.007+07:00,540128045118374802,-342504,-315167,-368387,-472829
1783266466025374222,2026-07-05T22:47:46.025+07:00,540128045118374802,-342477,-314997,-368301,-472841
1783266466043556040,2026-07-05T22:47:46.043+07:00,540128045118374802,-342352,-314855,-368187,-472795
1783266466061737858,2026-07-05T22:47:46.061+07:00,540128045118374802,-342231,-314715,-368168,-472830
1783266466079919676,2026-07-05T22:47:46.079+07:00,540128045118374802,-342111,-314597,-368075,-472875
1783266466098101494,2026-07-05T22:47:46.098+07:00,540128045118374802,-341994,-314479,-367970,-472893
1783266466116283312,2026-07-05T22:47:46.116+07:00,540128045118374802,-341813,-314295,-367822,-472833
1783266466134465130,2026-07-05T22:47:46.134+07:00,540128045118374802,-341692,-314142,-367727,-472827
1783266466152646948,2026-07-05T22:47:46.152+07:00,540128045118374802,-341568,-314029,-367602,-472853
1783266466170828766,2026-07-05T22:47:46.170+07:00,540128045118374802,-341476,-313894,-367492,-472822
1783266466189010584,2026-07-05T22:47:46.189+07:00,540128045118374802,-341417,-313788,-367480,-472891
1783266466207192402,2026-07-05T22:47:46.207+07:00,540128045118374802,-341216,-313625,-367288,-472814
1783266466225374220,2026-07-05T22:47:46.225+07:00,540128045118374802,-341087,-313430,-367199,-472865
1783266466243556038,2026-07-05T22:47:46.243+07:00,540128045118374802,-340983,-313281,-367089,-472783
1783266466261737856,2026-07-05T22:47:46.261+07:00,540128045118374802,-340877,-313073,-367031,-472824
1783266466279919674,2026-07-05T22:47:46.279+07:00,540128045118374802,-340718,-312949,-366928,-472826
1783266466298101492,2026-07-05T22:47:46.298+07:00,540128045118374802,-340562,-312804,-366805,-472829
1783266466316283310,2026-07-05T22:47:46.316+07:00,540128045118374802,-340423,-312698,-366674,-472840
1783266466334465128,2026-07-05T22:47:46.334+07:00,540128045118374802,-340288,-312522,-366571,-472807
1783266466352646946,2026-07-05T22:47:46.352+07:00,540128045118374802,-340154,-312335,-366452,-472815
1783266466370828764,2026-07-05T22:47:46.370+07:00,540128045118374802,-340042,-312182,-366355,-472781
1783266466389010582,2026-07-05T22:47:46.389+07:00,540128045118374802,-339940,-312070,-366317,-472816
1783266466407192400,2026-07-05T22:47:46.407+07:00,540128045882463122,-339888,-312027,-366220,-472798
1783266466425374218,2026-07-05T22:47:46.425+07:00,540128045882463122,-340088,-312265,-366353,-472825
1783266466443556036,2026-07-05T22:47:46.443+07:00,540128045882463122,-340417,-312585,-366647,-472832
1783266466461737854,2026-07-05T22:47:46.461+07:00,540128045882463122,-340867,-313050,-366955,-472830
1783266466479919672,2026-07-05T22:47:46.479+07:00,540128045882463122,-341273,-313456,-367184,-472836
1783266466498101490,2026-07-05T22:47:46.498+07:00,540128045882463122,-341636,-313906,-367549,-472866
1783266466516283308,2026-07-05T22:47:46.516+07:00,540128045882463122,-341928,-314200,-367774,-472853
1783266466534465126,2026-07-05T22:47:46.534+07:00,540128045882463122,-342080,-314419,-367986,-472846
1783266466552646944,2026-07-05T22:47:46.552+07:00,540128045882463122,-342285,-314593,-368129,-472796
1783266466570828762,2026-07-05T22:47:46.570+07:00,540128045882463122,-342358,-314798,-368232,-472800
1783266466589010580,2026-07-05T22:47:46.589+07:00,540128045882463122,-342506,-314923,-368328,-472850
1783266466607192398,2026-07-05T22:47:46.607+07:00,540128045882463122,-342512,-315011,-368403,-472823
1783266466625374216,2026-07-05T22:47:46.625+07:00,540128045882463122,-342516,-315019,-368416,-472817
1783266466643556034,2026-07-05T22:47:46.643+07:00,540128045882463122,-342534,-314977,-368389,-472842
1783266466661737852,2026-07-05T22:47:46.661+07:00,540128045882463122,-342546,-315000,-368378,-472877
1783266466679919670,2026-07-05T22:47:46.679+07:00,540128045882463122,-342479,-314976,-368400,-472895
1783266466698101488,2026-07-05T22:47:46.698+07:00,540128045882463122,-342495,-314938,-368379,-472844
1783266466716283306,2026-07-05T22:47:46.716+07:00,540128045882463122,-342509,-314954,-368366,-472870
1783266466734465124,2026-07-05T22:47:46.734+07:00,540128045882463122,-342485,-314852,-368312,-472808
1783266466752646942,2026-07-05T22:47:46.752+07:00,540128045882463122,-342454,-314881,-368282,-472842
1783266466770828760,2026-07-05T22:47:46.770+07:00,540128045882463122,-342492,-314875,-368243,-472835
1783266466789010578,2026-07-05T22:47:46.789+07:00,540128045882463122,-342383,-314885,-368222,-472770
1783266466807192396,2026-07-05T22:47:46.807+07:00,540128045882463122,-342352,-314887,-368207,-472777
1783266466825374214,2026-07-05T22:47:46.825+07:00,540128045882463122,-342310,-314786,-368163,-472761
1783266466843556032,2026-07-05T22:47:46.843+07:00,540128045882463122,-342181,-314615,-368093,-472751
1783266466861737850,2026-07-05T22:47:46.861+07:00,540128045882463122,-342103,-314470,-367965,-472738
1783266466879919668,2026-07-05T22:47:46.879+07:00,540128045882463122,-342029,-314397,-367931,-472780
1783266466898101486,2026-07-05T22:47:46.898+07:00,540128045882463122,-341851,-314252,-367851,-472721
1783266466916283304,2026-07-05T22:47:46.916+07:00,540128045882463122,-341762,-314096,-367793,-472819
1783266466934465122,2026-07-05T22:47:46.934+07:00,540128045882463122,-341656,-314036,-367659,-472826
1783266466952646940,2026-07-05T22:47:46.952+07:00,540128045882463122,-341609,-313948,-367585,-472847
1783266466970828758,2026-07-05T22:47:46.970+07:00,540128045882463122,-341455,-313729,-367475,-472827
1783266466989010576,2026-07-05T22:47:46.989+07:00,540128045882463122,-341366,-313623,-367369,-472885
1783266467007192394,2026-07-05T22:47:47.007+07:00,540128045882463122,-341186,-313392,-367210,-472800
1783266467025374212,2026-07-05T22:47:47.025+07:00,540128045882463122,-341090,-313375,-367161,-472852
1783266467043556030,2026-07-05T22:47:47.043+07:00,540128045882463122,-340989,-313212,-367058,-472902
1783266467061737848,2026-07-05T22:47:47.061+07:00,540128045882463122,-340854,-313092,-366955,-472922
1783266467079919666,2026-07-05T22:47:47.079+07:00,540128045882463122,-340711,-312908,-366842,-472916
1783266467098101484,2026-07-05T22:47:47.098+07:00,540128045882463122,-340605,-312773,-366742,-472888
1783266467116283302,2026-07-05T22:47:47.116+07:00,540128045882463122,-340493,-312643,-366647,-472928
1783266467134465120,2026-07-05T22:47:47.134+07:00,540128045882463122,-340393,-312389,-366466,-472831
1783266467152646938,2026-07-05T22:47:47.152+07:00,540128045882463122,-340276,-312317,-366392,-472845
1783266467170828756,2026-07-05T22:47:47.170+07:00,540128046664775265,-340069,-312085,-366205,-472784
1783266467189010574,2026-07-05T22:47:47.189+07:00,540128046664775265,-339959,-311865,-366061,-472793
1783266467207192392,2026-07-05T22:47:47.207+07:00,540128046664775265,-339789,-311723,-365954,-472778
1783266467225374210,2026-07-05T22:47:47.225+07:00,540128046664775265,-339751,-311623,-365857,-472836
1783266467243556028,2026-07-05T22:47:47.243+07:00,540128046664775265,-339789,-311673,-365876,-472821
1783266467261737846,2026-07-05T22:47:47.261+07:00,540128046664775265,-339958,-311892,-365998,-472841
1783266467279919664,2026-07-05T22:47:47.279+07:00,540128046664775265,-340273,-312223,-366246,-472857
1783266467298101482,2026-07-05T22:47:47.298+07:00,540128046664775265,-340666,-312549,-366518,-472861
1783266467316283300,2026-07-05T22:47:47.316+07:00,540128046664775265,-341096,-313057,-366891,-472839
1783266467334465118,2026-07-05T22:47:47.334+07:00,540128046664775265,-341447,-313435,-367210,-472821
1783266467352646936,2026-07-05T22:47:47.352+07:00,540128046664775265,-341651,-313711,-367404,-472779
1783266467370828754,2026-07-05T22:47:47.370+07:00,540128046664775265,-341842,-313888,-367557,-472734
1783266467389010572,2026-07-05T22:47:47.389+07:00,540128046664775265,-342050,-314204,-367786,-472790
1783266467407192390,2026-07-05T22:47:47.407+07:00,540128046664775265,-342185,-314294,-367875,-472766
1783266467425374208,2026-07-05T22:47:47.425+07:00,540128046664775265,-342288,-314473,-368036,-472815
1783266467443556026,2026-07-05T22:47:47.443+07:00,540128046664775265,-342396,-314602,-368122,-472841
1783266467461737844,2026-07-05T22:47:47.461+07:00,540128046664775265,-342403,-314598,-368144,-472844
1783266467479919662,2026-07-05T22:47:47.479+07:00,540128046664775265,-342314,-314565,-368073,-472815
1783266467498101480,2026-07-05T22:47:47.498+07:00,540128046664775265,-342366,-314567,-368073,-472824
1783266467516283298,2026-07-05T22:47:47.516+07:00,540128046664775265,-342290,-314548,-368054,-472821
1783266467534465116,2026-07-05T22:47:47.534+07:00,540128046664775265,-342307,-314510,-368104,-472814
1783266467552646934,2026-07-05T22:47:47.552+07:00,540128046664775265,-342282,-314538,-368111,-472791
1783266467570828752,2026-07-05T22:47:47.570+07:00,540128046664775265,-342268,-314487,-368101,-472857
1783266467589010570,2026-07-05T22:47:47.589+07:00,540128046664775265,-342244,-314468,-368024,-472823
1783266467607192388,2026-07-05T22:47:47.607+07:00,540128046664775265,-342247,-314557,-368042,-472830
1783266467625374206,2026-07-05T22:47:47.625+07:00,540128046664775265,-342165,-314493,-368021,-472795
1783266467643556024,2026-07-05T22:47:47.643+07:00,540128046664775265,-342130,-314376,-367950,-472754
1783266467661737842,2026-07-05T22:47:47.661+07:00,540128046664775265,-342058,-314263,-367915,-472756
1783266467679919660,2026-07-05T22:47:47.679+07:00,540128046664775265,-341962,-314180,-367815,-472745
1783266467698101478,2026-07-05T22:47:47.698+07:00,540128046664775265,-341877,-313994,-367749,-472777
1783266467716283296,2026-07-05T22:47:47.716+07:00,540128046664775265,-341799,-313944,-367682,-472812
1783266467734465114,2026-07-05T22:47:47.734+07:00,540128046664775265,-341728,-313893,-367619,-472815
1783266467752646932,2026-07-05T22:47:47.752+07:00,540128046664775265,-341602,-313723,-367516,-472824
1783266467770828750,2026-07-05T22:47:47.770+07:00,540128046664775265,-341552,-313619,-367436,-472877
1783266467789010568,2026-07-05T22:47:47.789+07:00,540128046664775265,-341463,-313499,-367404,-472886
1783266467807192386,2026-07-05T22:47:47.807+07:00,540128046664775265,-341384,-313356,-367263,-472866
1783266467825374204,2026-07-05T22:47:47.825+07:00,540128046664775265,-341205,-313219,-367144,-472888
1783266467843556022,2026-07-05T22:47:47.843+07:00,540128046664775265,-341058,-313072,-367106,-472851
1783266467861737840,2026-07-05T22:47:47.861+07:00,540128046664775265,-340908,-312937,-366933,-472819
1783266467879919658,2026-07-05T22:47:47.879+07:00,540128046664775265,-340788,-312794,-366832,-472807
1783266467898101476,2026-07-05T22:47:47.898+07:00,540128046664775265,-340679,-312686,-366797,-472811
1783266467916283294,2026-07-05T22:47:47.916+07:00,540128046664775265,-340539,-312588,-366665,-472788
1783266467934465112,2026-07-05T22:47:47.934+07:00,540128046664775265,-340443,-312427,-366534,-472860
1783266467952646930,2026-07-05T22:47:47.952+07:00,540128047428883421,-340340,-312340,-366461,-472864
1783266467970828748,2026-07-05T22:47:47.970+07:00,540128047428883421,-340243,-312231,-366319,-472864
1783266467989010566,2026-07-05T22:47:47.989+07:00,540128047428883421,-340145,-312068,-366243,-472829
1783266468007192384,2026-07-05T22:47:48.007+07:00,540128047428883421,-340015,-311913,-366166,-472793
1783266468025374202,2026-07-05T22:47:48.025+07:00,540128047428883421,-339831,-311701,-366061,-472826
1783266468043556020,2026-07-05T22:47:48.043+07:00,540128047428883421,-339719,-311505,-365934,-472778
1783266468061737838,2026-07-05T22:47:48.061+07:00,540128047428883421,-339542,-311396,-365854,-472794
1783266468079919656,2026-07-05T22:47:48.079+07:00,540128047428883421,-339495,-311310,-365800,-472809
1783266468098101474,2026-07-05T22:47:48.098+07:00,540128047428883421,-339536,-311364,-365760,-472760
1783266468116283292,2026-07-05T22:47:48.116+07:00,540128047428883421,-339789,-311612,-365989,-472822
1783266468134465110,2026-07-05T22:47:48.134+07:00,540128047428883421,-340229,-312064,-366312,-472812
1783266468152646928,2026-07-05T22:47:48.152+07:00,540128047428883421,-340574,-312479,-366582,-472766
1783266468170828746,2026-07-05T22:47:48.170+07:00,540128047428883421,-341073,-312881,-366952,-472843
1783266468189010564,2026-07-05T22:47:48.189+07:00,540128047428883421,-341404,-313339,-367267,-472844
1783266468207192382,2026-07-05T22:47:48.207+07:00,540128047428883421,-341689,-313620,-367489,-472844
1783266468225374200,2026-07-05T22:47:48.225+07:00,540128047428883421,-341852,-313946,-367687,-472861
1783266468243556018,2026-07-05T22:47:48.243+07:00,540128047428883421,-342008,-314163,-367843,-472854
1783266468261737836,2026-07-05T22:47:48.261+07:00,540128047428883421,-342263,-314427,-368112,-472853
1783266468279919654,2026-07-05T22:47:48.279+07:00,540128047428883421,-342436,-314679,-368228,-472879
1783266468298101472,2026-07-05T22:47:48.298+07:00,540128047428883421,-342538,-314763,-368372,-472881
1783266468316283290,2026-07-05T22:47:48.316+07:00,540128047428883421,-342564,-314765,-368376,-472875
1783266468334465108,2026-07-05T22:47:48.334+07:00,540128047428883421,-342542,-314817,-368402,-472824
1783266468352646926,2026-07-05T22:47:48.352+07:00,540128047428883421,-342484,-314829,-368391,-472774
1783266468370828744,2026-07-05T22:47:48.370+07:00,540128047428883421,-342469,-314765,-368369,-472778
1783266468389010562,2026-07-05T22:47:48.389+07:00,540128047428883421,-342450,-314799,-368382,-472824
1783266468407192380,2026-07-05T22:47:48.407+07:00,540128047428883421,-342489,-314816,-368382,-472825
1783266468425374198,2026-07-05T22:47:48.425+07:00,540128047428883421,-342516,-314783,-368369,-472827
1783266468443556016,2026-07-05T22:47:48.443+07:00,540128047428883421,-342445,-314741,-368366,-472808
1783266468461737834,2026-07-05T22:47:48.461+07:00,540128047428883421,-342459,-314758,-368378,-472807
1783266468479919652,2026-07-05T22:47:48.479+07:00,540128047428883421,-342414,-314758,-368318,-472779
1783266468498101470,2026-07-05T22:47:48.498+07:00,540128047428883421,-342360,-314704,-368309,-472787
1783266468516283288,2026-07-05T22:47:48.516+07:00,540128047428883421,-342323,-314606,-368251,-472785
1783266468534465106,2026-07-05T22:47:48.534+07:00,540128047428883421,-342281,-314531,-368207,-472806
1783266468552646924,2026-07-05T22:47:48.552+07:00,540128047428883421,-342202,-314469,-368199,-472817
1783266468570828742,2026-07-05T22:47:48.570+07:00,540128047428883421,-342096,-314415,-368200,-472821
1783266468589010560,2026-07-05T22:47:48.589+07:00,540128047428883421,-342006,-314350,-368152,-472839
1783266468607192378,2026-07-05T22:47:48.607+07:00,540128047428883421,-341905,-314199,-367979,-472778
1783266468625374196,2026-07-05T22:47:48.625+07:00,540128047428883421,-341817,-314069,-367916,-472809
1783266468643556014,2026-07-05T22:47:48.643+07:00,540128047428883421,-341706,-313949,-367796,-472791
1783266468661737832,2026-07-05T22:47:48.661+07:00,540128047428883421,-341701,-313861,-367708,-472852
1783266468679919650,2026-07-05T22:47:48.679+07:00,540128047428883421,-341550,-313708,-367660,-472824
1783266468698101468,2026-07-05T22:47:48.698+07:00,540128047428883421,-341429,-313556,-367575,-472818
1783266468716283286,2026-07-05T22:47:48.716+07:00,540128048192951905,-341353,-313462,-367468,-472790
1783266468734465104,2026-07-05T22:47:48.734+07:00,540128048192951905,-341244,-313306,-367475,-472843
1783266468752646922,2026-07-05T22:47:48.752+07:00,540128048192951905,-341188,-313249,-367376,-472856
1783266468770828740,2026-07-05T22:47:48.770+07:00,540128048192951905,-341050,-313188,-367324,-472896
1783266468789010558,2026-07-05T22:47:48.789+07:00,540128048192951905,-340881,-312975,-367184,-472847
1783266468807192376,2026-07-05T22:47:48.807+07:00,540128048192951905,-340809,-312862,-367099,-472826
1783266468825374194,2026-07-05T22:47:48.825+07:00,540128048192951905,-340715,-312797,-366983,-472798
1783266468843556012,2026-07-05T22:47:48.843+07:00,540128048192951905,-340551,-312631,-366894,-472796
1783266468861737830,2026-07-05T22:47:48.861+07:00,540128048192951905,-340412,-312492,-366761,-472771
1783266468879919648,2026-07-05T22:47:48.879+07:00,540128048192951905,-340352,-312312,-366737,-472797
1783266468898101466,2026-07-05T22:47:48.898+07:00,540128048192951905,-340179,-312263,-366600,-472813
1783266468916283284,2026-07-05T22:47:48.916+07:00,540128048192951905,-340020,-312070,-366445,-472750
1783266468934465102,2026-07-05T22:47:48.934+07:00,540128048192951905,-339945,-311901,-366432,-472760
1783266468952646920,2026-07-05T22:47:48.952+07:00,540128048192951905,-339914,-311838,-366409,-472805
1783266468970828738,2026-07-05T22:47:48.970+07:00,540128048192951905,-340066,-311945,-366507,-472849
1783266468989010556,2026-07-05T22:47:48.989+07:00,540128048192951905,-340268,-312220,-366622,-472862
1783266469007192374,2026-07-05T22:47:49.007+07:00,540128048192951905,-340692,-312624,-366936,-472865
1783266469025374192,2026-07-05T22:47:49.025+07:00,540128048192951905,-341084,-313085,-367282,-472841
1783266469043556010,2026-07-05T22:47:49.043+07:00,540128048192951905,-341528,-313510,-367643,-472812
1783266469061737828,2026-07-05T22:47:49.061+07:00,540128048192951905,-341891,-313999,-367960,-472858
1783266469079919646,2026-07-05T22:47:49.079+07:00,540128048192951905,-342110,-314352,-368221,-472814
1783266469098101464,2026-07-05T22:47:49.098+07:00,540128048192951905,-342386,-314633,-368409,-472844
1783266469116283282,2026-07-05T22:47:49.116+07:00,540128048192951905,-342566,-314971,-368644,-472787
1783266469134465100,2026-07-05T22:47:49.134+07:00,540128048192951905,-342824,-315211,-368869,-472890
1783266469152646918,2026-07-05T22:47:49.152+07:00,540128048192951905,-342945,-315400,-369000,-472860
1783266469170828736,2026-07-05T22:47:49.170+07:00,540128048192951905,-343015,-315489,-369116,-472833
1783266469189010554,2026-07-05T22:47:49.189+07:00,540128048192951905,-343147,-315563,-369190,-472909
1783266469207192372,2026-07-05T22:47:49.207+07:00,540128048192951905,-343085,-315617,-369181,-472851
1783266469225374190,2026-07-05T22:47:49.225+07:00,540128048192951905,-343098,-315611,-369195,-472858
1783266469243556008,2026-07-05T22:47:49.243+07:00,540128048192951905,-343175,-315717,-369238,-472908
1783266469261737826,2026-07-05T22:47:49.261+07:00,540128048192951905,-343169,-315755,-369260,-472907
1783266469279919644,2026-07-05T22:47:49.279+07:00,540128048192951905,-343208,-315746,-369239,-472866
1783266469298101462,2026-07-05T22:47:49.298+07:00,540128048192951905,-343203,-315750,-369250,-472861
1783266469316283280,2026-07-05T22:47:49.316+07:00,540128048192951905,-343220,-315778,-369236,-472831
1783266469334465098,2026-07-05T22:47:49.334+07:00,540128048192951905,-343216,-315772,-369231,-472858
1783266469352646916,2026-07-05T22:47:49.352+07:00,540128048192951905,-343124,-315748,-369226,-472841
1783266469370828734,2026-07-05T22:47:49.370+07:00,540128048192951905,-343161,-315733,-369226,-472884
1783266469389010552,2026-07-05T22:47:49.389+07:00,540128048192951905,-343135,-315687,-369249,-472904
1783266469407192370,2026-07-05T22:47:49.407+07:00,540128048192951905,-343015,-315623,-369138,-472835
1783266469425374188,2026-07-05T22:47:49.425+07:00,540128048192951905,-342938,-315571,-369084,-472887
1783266469443556006,2026-07-05T22:47:49.443+07:00,540128048192951905,-342900,-315484,-368987,-472868
1783266469461737824,2026-07-05T22:47:49.461+07:00,540128048192951905,-342768,-315333,-368891,-472819
1783266469479919642,2026-07-05T22:47:49.479+07:00,540128048938831660,-342754,-315332,-368875,-472920
1783266469498101460,2026-07-05T22:47:49.498+07:00,540128048938831660,-342629,-315210,-368804,-472821
1783266469516283278,2026-07-05T22:47:49.516+07:00,540128048938831660,-342481,-315067,-368772,-472843
1783266469534465096,2026-07-05T22:47:49.534+07:00,540128048938831660,-342415,-314976,-368670,-472836
1783266469552646914,2026-07-05T22:47:49.552+07:00,540128048938831660,-342304,-314853,-368541,-472846
1783266469570828732,2026-07-05T22:47:49.570+07:00,540128048938831660,-342230,-314772,-368460,-472823
1783266469589010550,2026-07-05T22:47:49.589+07:00,540128048938831660,-342131,-314612,-368388,-472862
1783266469607192368,2026-07-05T22:47:49.607+07:00,540128048938831660,-341991,-314462,-368258,-472816
1783266469625374186,2026-07-05T22:47:49.625+07:00,540128048938831660,-341877,-314329,-368173,-472823
1783266469643556004,2026-07-05T22:47:49.643+07:00,540128048938831660,-341789,-314256,-368150,-472804
1783266469661737822,2026-07-05T22:47:49.661+07:00,540128048938831660,-341741,-314057,-368081,-472865
1783266469679919640,2026-07-05T22:47:49.679+07:00,540128048938831660,-341625,-313995,-367921,-472861
1783266469698101458,2026-07-05T22:47:49.698+07:00,540128048938831660,-341487,-313839,-367860,-472857
1783266469716283276,2026-07-05T22:47:49.716+07:00,540128048938831660,-341347,-313728,-367676,-472843
1783266469734465094,2026-07-05T22:47:49.734+07:00,540128048938831660,-341175,-313578,-367578,-472892
1783266469752646912,2026-07-05T22:47:49.752+07:00,540128048938831660,-341108,-313415,-367500,-472891
1783266469770828730,2026-07-05T22:47:49.770+07:00,540128048938831660,-340933,-313263,-367394,-472842
1783266469789010548,2026-07-05T22:47:49.789+07:00,540128048938831660,-340935,-313180,-367350,-472902
1783266469807192366,2026-07-05T22:47:49.807+07:00,540128048938831660,-340896,-313200,-367325,-472847
1783266469825374184,2026-07-05T22:47:49.825+07:00,540128048938831660,-341170,-313499,-367497,-472822
1783266469843556002,2026-07-05T22:47:49.843+07:00,540128048938831660,-341561,-313876,-367785,-472912
1783266469861737820,2026-07-05T22:47:49.861+07:00,540128048938831660,-341950,-314374,-368148,-472858
1783266469879919638,2026-07-05T22:47:49.879+07:00,540128048938831660,-342340,-314735,-368461,-472824
1783266469898101456,2026-07-05T22:47:49.898+07:00,540128048938831660,-342660,-315111,-368719,-472802
1783266469916283274,2026-07-05T22:47:49.916+07:00,540128048938831660,-342905,-315445,-369014,-472842
1783266469934465092,2026-07-05T22:47:49.934+07:00,540128048938831660,-343193,-315827,-369202,-472827
1783266469952646910,2026-07-05T22:47:49.952+07:00,540128048938831660,-343428,-316057,-369392,-472830
1783266469970828728,2026-07-05T22:47:49.970+07:00,540128048938831660,-343575,-316263,-369516,-472852
1783266469989010546,2026-07-05T22:47:49.989+07:00,540128048938831660,-343699,-316400,-369627,-472883
1783266470007192364,2026-07-05T22:47:50.007+07:00,540128048938831660,-343806,-316563,-369757,-472888
1783266470025374182,2026-07-05T22:47:50.025+07:00,540128048938831660,-343823,-316602,-369743,-472895
1783266470043556000,2026-07-05T22:47:50.043+07:00,540128048938831660,-343783,-316615,-369794,-472915
1783266470061737818,2026-07-05T22:47:50.061+07:00,540128048938831660,-343761,-316605,-369778,-472901
1783266470079919636,2026-07-05T22:47:50.079+07:00,540128048938831660,-343750,-316645,-369768,-472853
1783266470098101454,2026-07-05T22:47:50.098+07:00,540128048938831660,-343791,-316604,-369798,-472913
1783266470116283272,2026-07-05T22:47:50.116+07:00,540128048938831660,-343741,-316597,-369739,-472878
1783266470134465090,2026-07-05T22:47:50.134+07:00,540128048938831660,-343685,-316551,-369679,-472794
1783266470152646908,2026-07-05T22:47:50.152+07:00,540128048938831660,-343730,-316566,-369742,-472852
1783266470170828726,2026-07-05T22:47:50.170+07:00,540128048938831660,-343737,-316505,-369720,-472823
1783266470189010544,2026-07-05T22:47:50.189+07:00,540128048938831660,-343699,-316450,-369700,-472867
1783266470207192362,2026-07-05T22:47:50.207+07:00,540128048938831660,-343611,-316440,-369660,-472829
1783266470225374180,2026-07-05T22:47:50.225+07:00,540128049702916928,-343569,-316353,-369648,-472902
1783266470243555998,2026-07-05T22:47:50.243+07:00,540128049702916928,-343464,-316229,-369550,-472864
1783266470261737816,2026-07-05T22:47:50.261+07:00,540128049702916928,-343351,-316156,-369437,-472839
1783266470279919634,2026-07-05T22:47:50.279+07:00,540128049702916928,-343224,-316027,-369378,-472831
1783266470298101452,2026-07-05T22:47:50.298+07:00,540128049702916928,-343194,-315944,-369339,-472829
1783266470316283270,2026-07-05T22:47:50.316+07:00,540128049702916928,-343109,-315879,-369210,-472876
1783266470334465088,2026-07-05T22:47:50.334+07:00,540128049702916928,-342951,-315708,-369104,-472804
1783266470352646906,2026-07-05T22:47:50.352+07:00,540128049702916928,-342811,-315578,-369017,-472822
1783266470370828724,2026-07-05T22:47:50.370+07:00,540128049702916928,-342751,-315452,-368919,-472845
1783266470389010542,2026-07-05T22:47:50.389+07:00,540128049702916928,-342642,-315234,-368822,-472832
1783266470407192360,2026-07-05T22:47:50.407+07:00,540128049702916928,-342524,-315101,-368724,-472870
1783266470425374178,2026-07-05T22:47:50.425+07:00,540128049702916928,-342334,-314944,-368608,-472882
1783266470443555996,2026-07-05T22:47:50.443+07:00,540128049702916928,-342259,-314818,-368565,-472866
1783266470461737814,2026-07-05T22:47:50.461+07:00,540128049702916928,-342115,-314712,-368418,-472845
1783266470479919632,2026-07-05T22:47:50.479+07:00,540128049702916928,-342061,-314579,-368286,-472840
1783266470498101450,2026-07-05T22:47:50.498+07:00,540128049702916928,-341927,-314442,-368213,-472850
1783266470516283268,2026-07-05T22:47:50.516+07:00,540128049702916928,-341843,-314342,-368184,-472873
1783266470534465086,2026-07-05T22:47:50.534+07:00,540128049702916928,-341645,-314138,-368007,-472868
1783266470552646904,2026-07-05T22:47:50.552+07:00,540128049702916928,-341530,-314001,-367889,-472848
1783266470570828722,2026-07-05T22:47:50.570+07:00,540128049702916928,-341391,-313836,-367837,-472878
1783266470589010540,2026-07-05T22:47:50.589+07:00,540128049702916928,-341260,-313640,-367649,-472830
1783266470607192358,2026-07-05T22:47:50.607+07:00,540128049702916928,-341139,-313493,-367616,-472912
1783266470625374176,2026-07-05T22:47:50.625+07:00,540128049702916928,-340952,-313323,-367429,-472863
1783266470643555994,2026-07-05T22:47:50.643+07:00,540128049702916928,-340883,-313164,-367322,-472886
1783266470661737812,2026-07-05T22:47:50.661+07:00,540128049702916928,-340794,-313044,-367239,-472852
1783266470679919630,2026-07-05T22:47:50.679+07:00,540128049702916928,-340832,-313112,-367364,-472907
1783266470698101448,2026-07-05T22:47:50.698+07:00,540128049702916928,-341080,-313402,-367502,-472875
1783266470716283266,2026-07-05T22:47:50.716+07:00,540128049702916928,-341467,-313799,-367759,-472907
1783266470734465084,2026-07-05T22:47:50.734+07:00,540128049702916928,-341835,-314214,-368087,-472883
1783266470752646902,2026-07-05T22:47:50.752+07:00,540128049702916928,-342273,-314653,-368461,-472888
1783266470770828720,2026-07-05T22:47:50.770+07:00,540128049702916928,-342624,-315022,-368767,-472946
1783266470789010538,2026-07-05T22:47:50.789+07:00,540128049702916928,-342839,-315360,-368907,-472887
1783266470807192356,2026-07-05T22:47:50.807+07:00,540128049702916928,-343039,-315699,-369129,-472876
1783266470825374174,2026-07-05T22:47:50.825+07:00,540128049702916928,-343204,-315896,-369259,-472847
1783266470843555992,2026-07-05T22:47:50.843+07:00,540128049702916928,-343390,-316100,-369445,-472869
1783266470861737810,2026-07-05T22:47:50.861+07:00,540128049702916928,-343546,-316193,-369539,-472824
1783266470879919628,2026-07-05T22:47:50.879+07:00,540128049702916928,-343562,-316382,-369642,-472825
1783266470898101446,2026-07-05T22:47:50.898+07:00,540128049702916928,-343578,-316401,-369680,-472893
1783266470916283264,2026-07-05T22:47:50.916+07:00,540128049702916928,-343611,-316320,-369667,-472833
1783266470934465082,2026-07-05T22:47:50.934+07:00,540128049702916928,-343557,-316326,-369625,-472848
1783266470952646900,2026-07-05T22:47:50.952+07:00,540128049702916928,-343511,-316316,-369697,-472877
1783266470970828718,2026-07-05T22:47:50.970+07:00,540128049702916928,-343494,-316265,-369656,-472819
1783266470989010536,2026-07-05T22:47:50.989+07:00,540128050467002196,-343466,-316248,-369648,-472825
1783266471007192354,2026-07-05T22:47:51.007+07:00,540128050467002196,-343451,-316263,-369632,-472827
1783266471025374172,2026-07-05T22:47:51.025+07:00,540128050467002196,-343443,-316230,-369549,-472844
1783266471043555990,2026-07-05T22:47:51.043+07:00,540128050467002196,-343393,-316195,-369585,-472860
1783266471061737808,2026-07-05T22:47:51.061+07:00,540128050467002196,-343358,-316143,-369578,-472861
1783266471079919626,2026-07-05T22:47:51.079+07:00,540128050467002196,-343306,-316047,-369499,-472890
1783266471098101444,2026-07-05T22:47:51.098+07:00,540128050467002196,-343153,-315946,-369437,-472818
1783266471116283262,2026-07-05T22:47:51.116+07:00,540128050467002196,-343142,-315835,-369324,-472860
1783266471134465080,2026-07-05T22:47:51.134+07:00,540128050467002196,-342995,-315704,-369222,-472845
1783266471152646898,2026-07-05T22:47:51.152+07:00,540128050467002196,-342910,-315583,-369139,-472881
1783266471170828716,2026-07-05T22:47:51.170+07:00,540128050467002196,-342748,-315475,-369052,-472826
1783266471189010534,2026-07-05T22:47:51.189+07:00,540128050467002196,-342694,-315287,-368890,-472826
1783266471207192352,2026-07-05T22:47:51.207+07:00,540128050467002196,-342561,-315186,-368794,-472787
1783266471225374170,2026-07-05T22:47:51.225+07:00,540128050467002196,-342451,-315042,-368746,-472877
1783266471243555988,2026-07-05T22:47:51.243+07:00,540128050467002196,-342306,-314883,-368649,-472847
1783266471261737806,2026-07-05T22:47:51.261+07:00,540128050467002196,-342181,-314714,-368525,-472856
1783266471279919624,2026-07-05T22:47:51.279+07:00,540128050467002196,-342041,-314547,-368404,-472822
1783266471298101442,2026-07-05T22:47:51.298+07:00,540128050467002196,-341878,-314427,-368293,-472801
1783266471316283260,2026-07-05T22:47:51.316+07:00,540128050467002196,-341778,-314285,-368220,-472875
1783266471334465078,2026-07-05T22:47:51.334+07:00,540128050467002196,-341647,-314178,-368067,-472828
1783266471352646896,2026-07-05T22:47:51.352+07:00,540128050467002196,-341508,-313997,-367950,-472849
1783266471370828714,2026-07-05T22:47:51.370+07:00,540128050467002196,-341378,-313791,-367851,-472796
1783266471389010532,2026-07-05T22:47:51.389+07:00,540128050467002196,-341290,-313724,-367785,-472834
1783266471407192350,2026-07-05T22:47:51.407+07:00,540128050467002196,-341139,-313545,-367667,-472790
1783266471425374168,2026-07-05T22:47:51.425+07:00,540128050467002196,-341078,-313361,-367585,-472802
1783266471443555986,2026-07-05T22:47:51.443+07:00,540128050467002196,-340883,-313222,-367519,-472822
1783266471461737804,2026-07-05T22:47:51.461+07:00,540128050467002196,-340746,-313052,-367353,-472835
1783266471479919622,2026-07-05T22:47:51.479+07:00,540128050467002196,-340601,-312853,-367235,-472833
1783266471498101440,2026-07-05T22:47:51.498+07:00,540128050467002196,-340408,-312703,-367058,-472779
1783266471516283258,2026-07-05T22:47:51.516+07:00,540128050467002196,-340286,-312507,-366979,-472818
1783266471534465076,2026-07-05T22:47:51.534+07:00,540128050467002196,-340102,-312320,-366840,-472779
1783266471552646894,2026-07-05T22:47:51.552+07:00,540128050467002196,-340026,-312188,-366809,-472774
1783266471570828712,2026-07-05T22:47:51.570+07:00,540128050467002196,-340020,-312196,-366761,-472773
1783266471589010530,2026-07-05T22:47:51.589+07:00,540128050467002196,-340266,-312430,-366964,-472841
1783266471607192348,2026-07-05T22:47:51.607+07:00,540128050467002196,-340649,-312832,-367295,-472779
1783266471625374166,2026-07-05T22:47:51.625+07:00,540128050467002196,-341009,-313237,-367574,-472773
1783266471643555984,2026-07-05T22:47:51.643+07:00,540128050467002196,-341412,-313572,-367847,-472852
1783266471661737802,2026-07-05T22:47:51.661+07:00,540128050467002196,-341734,-314075,-368160,-472882
1783266471679919620,2026-07-05T22:47:51.679+07:00,540128050467002196,-342030,-314351,-368382,-472862
1783266471698101438,2026-07-05T22:47:51.698+07:00,540128050467002196,-342269,-314664,-368592,-472831
1783266471716283256,2026-07-05T22:47:51.716+07:00,540128050467002196,-342416,-314824,-368777,-472847
1783266471734465074,2026-07-05T22:47:51.734+07:00,540128050467002196,-342557,-315006,-368878,-472788
1783266471752646892,2026-07-05T22:47:51.752+07:00,540128051231099676,-342740,-315224,-369040,-472825
1783266471770828710,2026-07-05T22:47:51.770+07:00,540128051231099676,-342741,-315258,-369071,-472815
1783266471789010528,2026-07-05T22:47:51.789+07:00,540128051231099676,-342757,-315313,-369086,-472826
1783266471807192346,2026-07-05T22:47:51.807+07:00,540128051231099676,-342713,-315355,-369072,-472839
1783266471825374164,2026-07-05T22:47:51.825+07:00,540128051231099676,-342740,-315354,-369051,-472832
1783266471843555982,2026-07-05T22:47:51.843+07:00,540128051231099676,-342646,-315262,-369059,-472784
1783266471861737800,2026-07-05T22:47:51.861+07:00,540128051231099676,-342674,-315291,-369030,-472771
1783266471879919618,2026-07-05T22:47:51.879+07:00,540128051231099676,-342672,-315344,-369114,-472787
1783266471898101436,2026-07-05T22:47:51.898+07:00,540128051231099676,-342625,-315320,-369035,-472790
1783266471916283254,2026-07-05T22:47:51.916+07:00,540128051231099676,-342642,-315240,-368991,-472853
1783266471934465072,2026-07-05T22:47:51.934+07:00,540128051231099676,-342615,-315183,-368952,-472873
1783266471952646890,2026-07-05T22:47:51.952+07:00,540128051231099676,-342552,-315130,-368966,-472839
1783266471970828708,2026-07-05T22:47:51.970+07:00,540128051231099676,-342442,-315060,-368879,-472874
1783266471989010526,2026-07-05T22:47:51.989+07:00,540128051231099676,-342381,-315007,-368882,-472901
1783266472007192344,2026-07-05T22:47:52.007+07:00,540128051231099676,-342246,-314811,-368766,-472866
1783266472025374162,2026-07-05T22:47:52.025+07:00,540128051231099676,-342131,-314695,-368670,-472771
1783266472043555980,2026-07-05T22:47:52.043+07:00,540128051231099676,-341973,-314620,-368509,-472800
1783266472061737798,2026-07-05T22:47:52.061+07:00,540128051231099676,-342009,-314491,-368481,-472812
1783266472079919616,2026-07-05T22:47:52.079+07:00,540128051231099676,-341911,-314363,-368371,-472793
1783266472098101434,2026-07-05T22:47:52.098+07:00,540128051231099676,-341756,-314148,-368267,-472816
1783266472116283252,2026-07-05T22:47:52.116+07:00,540128051231099676,-341648,-314032,-368165,-472827
1783266472134465070,2026-07-05T22:47:52.134+07:00,540128051231099676,-341594,-313957,-368122,-472842
1783266472152646888,2026-07-05T22:47:52.152+07:00,540128051231099676,-341429,-313779,-367964,-472823
1783266472170828706,2026-07-05T22:47:52.170+07:00,540128051231099676,-341268,-313562,-367812,-472829
1783266472189010524,2026-07-05T22:47:52.189+07:00,540128051231099676,-341052,-313397,-367718,-472751
1783266472207192342,2026-07-05T22:47:52.207+07:00,540128051231099676,-340989,-313241,-367578,-472771
1783266472225374160,2026-07-05T22:47:52.225+07:00,540128051231099676,-340819,-313123,-367506,-472824
1783266472243555978,2026-07-05T22:47:52.243+07:00,540128051231099676,-340738,-312960,-367390,-472804
1783266472261737796,2026-07-05T22:47:52.261+07:00,540128051231099676,-340590,-312848,-367251,-472804
1783266472279919614,2026-07-05T22:47:52.279+07:00,540128051231099676,-340500,-312662,-367165,-472818
1783266472298101432,2026-07-05T22:47:52.298+07:00,540128051231099676,-340369,-312459,-367077,-472856
1783266472316283250,2026-07-05T22:47:52.316+07:00,540128051231099676,-340250,-312327,-366959,-472829
1783266472334465068,2026-07-05T22:47:52.334+07:00,540128051231099676,-340083,-312127,-366863,-472819
1783266472352646886,2026-07-05T22:47:52.352+07:00,540128051231099676,-339927,-312007,-366746,-472831
1783266472370828704,2026-07-05T22:47:52.370+07:00,540128051231099676,-339759,-311854,-366595,-472845
1783266472389010522,2026-07-05T22:47:52.389+07:00,540128051231099676,-339600,-311674,-366477,-472812
1783266472407192340,2026-07-05T22:47:52.407+07:00,540128051231099676,-339564,-311623,-366400,-472845
1783266472425374158,2026-07-05T22:47:52.425+07:00,540128051231099676,-339666,-311675,-366437,-472848
1783266472443555976,2026-07-05T22:47:52.443+07:00,540128051231099676,-339768,-311855,-366605,-472804
1783266472461737794,2026-07-05T22:47:52.461+07:00,540128051231099676,-340181,-312195,-366846,-472819
1783266472479919612,2026-07-05T22:47:52.479+07:00,540128051231099676,-340572,-312543,-367141,-472746
1783266472498101430,2026-07-05T22:47:52.498+07:00,540128051231099676,-340947,-312998,-367434,-472788
1783266472516283248,2026-07-05T22:47:52.516+07:00,540128051995200200,-341230,-313338,-367624,-472760
1783266472534465066,2026-07-05T22:47:52.534+07:00,540128051995200200,-341493,-313680,-367902,-472851
1783266472552646884,2026-07-05T22:47:52.552+07:00,540128051995200200,-341697,-313921,-368081,-472825
1783266472570828702,2026-07-05T22:47:52.570+07:00,540128051995200200,-341880,-314133,-368274,-472765
1783266472589010520,2026-07-05T22:47:52.589+07:00,540128051995200200,-342031,-314223,-368404,-472775
1783266472607192338,2026-07-05T22:47:52.607+07:00,540128051995200200,-342184,-314414,-368527,-472817
1783266472625374156,2026-07-05T22:47:52.625+07:00,540128051995200200,-342208,-314512,-368639,-472850
1783266472643555974,2026-07-05T22:47:52.643+07:00,540128051995200200,-342254,-314561,-368631,-472819
1783266472661737792,2026-07-05T22:47:52.661+07:00,540128051995200200,-342166,-314537,-368633,-472812
1783266472679919610,2026-07-05T22:47:52.679+07:00,540128051995200200,-342170,-314474,-368623,-472857
1783266472698101428,2026-07-05T22:47:52.698+07:00,540128051995200200,-342116,-314426,-368583,-472805
1783266472716283246,2026-07-05T22:47:52.716+07:00,540128051995200200,-342103,-314445,-368598,-472805
1783266472734465064,2026-07-05T22:47:52.734+07:00,540128051995200200,-342080,-314491,-368579,-472810
1783266472752646882,2026-07-05T22:47:52.752+07:00,540128051995200200,-342081,-314487,-368613,-472807
1783266472770828700,2026-07-05T22:47:52.770+07:00,540128051995200200,-342022,-314438,-368547,-472795
1783266472789010518,2026-07-05T22:47:52.789+07:00,540128051995200200,-342005,-314373,-368559,-472833
1783266472807192336,2026-07-05T22:47:52.807+07:00,540128051995200200,-341949,-314342,-368533,-472884
1783266472825374154,2026-07-05T22:47:52.825+07:00,540128051995200200,-341890,-314298,-368444,-472863
1783266472843555972,2026-07-05T22:47:52.843+07:00,540128051995200200,-341799,-314132,-368361,-472868
1783266472861737790,2026-07-05T22:47:52.861+07:00,540128051995200200,-341679,-314082,-368325,-472850
1783266472879919608,2026-07-05T22:47:52.879+07:00,540128051995200200,-341591,-313980,-368242,-472887
1783266472898101426,2026-07-05T22:47:52.898+07:00,540128051995200200,-341487,-313811,-368157,-472862
1783266472916283244,2026-07-05T22:47:52.916+07:00,540128051995200200,-341385,-313771,-368078,-472846
1783266472934465062,2026-07-05T22:47:52.934+07:00,540128051995200200,-341317,-313666,-367975,-472861
1783266472952646880,2026-07-05T22:47:52.952+07:00,540128051995200200,-341223,-313439,-367856,-472866
1783266472970828698,2026-07-05T22:47:52.970+07:00,540128051995200200,-341051,-313321,-367738,-472849
1783266472989010516,2026-07-05T22:47:52.989+07:00,540128051995200200,-340953,-313225,-367668,-472867
1783266473007192334,2026-07-05T22:47:53.007+07:00,540128051995200200,-340879,-313058,-367592,-472868
1783266473025374152,2026-07-05T22:47:53.025+07:00,540128051995200200,-340753,-312936,-367499,-472908
1783266473043555970,2026-07-05T22:47:53.043+07:00,540128051995200200,-340590,-312763,-367378,-472866
1783266473061737788,2026-07-05T22:47:53.061+07:00,540128051995200200,-340464,-312601,-367297,-472841
1783266473079919606,2026-07-05T22:47:53.079+07:00,540128051995200200,-340302,-312432,-367157,-472815
1783266473098101424,2026-07-05T22:47:53.098+07:00,540128051995200200,-340199,-312289,-367040,-472862
1783266473116283242,2026-07-05T22:47:53.116+07:00,540128051995200200,-340090,-312105,-366951,-472785
1783266473134465060,2026-07-05T22:47:53.134+07:00,540128051995200200,-339948,-311969,-366850,-472748
1783266473152646878,2026-07-05T22:47:53.152+07:00,540128051995200200,-339802,-311830,-366747,-472805
1783266473170828696,2026-07-05T22:47:53.170+07:00,540128051995200200,-339644,-311685,-366631,-472830
1783266473189010514,2026-07-05T22:47:53.189+07:00,540128051995200200,-339533,-311575,-366523,-472869
1783266473207192332,2026-07-05T22:47:53.207+07:00,540128051995200200,-339401,-311376,-366455,-472823
1783266473225374150,2026-07-05T22:47:53.225+07:00,540128051995200200,-339278,-311166,-366332,-472877
1783266473243555968,2026-07-05T22:47:53.243+07:00,540128051995200200,-339152,-311062,-366242,-472823
1783266473261737786,2026-07-05T22:47:53.261+07:00,540128051995200200,-339005,-310896,-366091,-472814
1783266473279919604,2026-07-05T22:47:53.279+07:00,540128052759288534,-338984,-310913,-366122,-472893
1783266473298101422,2026-07-05T22:47:53.298+07:00,540128052759288534,-339150,-311020,-366162,-472879
1783266473316283240,2026-07-05T22:47:53.316+07:00,540128052759288534,-339514,-311338,-366459,-472898
1783266473334465058,2026-07-05T22:47:53.334+07:00,540128052759288534,-339850,-311657,-366665,-472883
1783266473352646876,2026-07-05T22:47:53.352+07:00,540128052759288534,-340225,-312067,-367004,-472836
1783266473370828694,2026-07-05T22:47:53.370+07:00,540128052759288534,-340646,-312551,-367345,-472845
1783266473389010512,2026-07-05T22:47:53.389+07:00,540128052759288534,-340904,-312875,-367565,-472806
1783266473407192330,2026-07-05T22:47:53.407+07:00,540128052759288534,-341248,-313180,-367866,-472873
1783266473425374148,2026-07-05T22:47:53.425+07:00,540128052759288534,-341454,-313411,-368052,-472876
1783266473443555966,2026-07-05T22:47:53.443+07:00,540128052759288534,-341567,-313659,-368113,-472878
1783266473461737784,2026-07-05T22:47:53.461+07:00,540128052759288534,-341696,-313785,-368299,-472817
1783266473479919602,2026-07-05T22:47:53.479+07:00,540128052759288534,-341865,-313983,-368453,-472860
1783266473498101420,2026-07-05T22:47:53.498+07:00,540128052759288534,-341876,-314008,-368499,-472871
1783266473516283238,2026-07-05T22:47:53.516+07:00,540128052759288534,-341893,-314036,-368527,-472868
1783266473534465056,2026-07-05T22:47:53.534+07:00,540128052759288534,-341802,-314021,-368502,-472791
1783266473552646874,2026-07-05T22:47:53.552+07:00,540128052759288534,-341843,-314011,-368512,-472883
1783266473570828692,2026-07-05T22:47:53.570+07:00,540128052759288534,-341761,-313956,-368489,-472842
1783266473589010510,2026-07-05T22:47:53.589+07:00,540128052759288534,-341808,-314019,-368493,-472863
1783266473607192328,2026-07-05T22:47:53.607+07:00,540128052759288534,-341778,-314011,-368468,-472864
1783266473625374146,2026-07-05T22:47:53.625+07:00,540128052759288534,-341841,-313991,-368480,-472853
1783266473643555964,2026-07-05T22:47:53.643+07:00,540128052759288534,-341785,-313948,-368482,-472818
1783266473661737782,2026-07-05T22:47:53.661+07:00,540128052759288534,-341761,-313992,-368446,-472864
1783266473679919600,2026-07-05T22:47:53.679+07:00,540128052759288534,-341680,-313905,-368387,-472884
1783266473698101418,2026-07-05T22:47:53.698+07:00,540128052759288534,-341665,-313874,-368378,-472844
1783266473716283236,2026-07-05T22:47:53.716+07:00,540128052759288534,-341527,-313744,-368275,-472811
1783266473734465054,2026-07-05T22:47:53.734+07:00,540128052759288534,-341461,-313666,-368283,-472858
1783266473752646872,2026-07-05T22:47:53.752+07:00,540128052759288534,-341350,-313544,-368191,-472844
1783266473770828690,2026-07-05T22:47:53.770+07:00,540128052759288534,-341331,-313473,-368121,-472825
1783266473789010508,2026-07-05T22:47:53.789+07:00,540128052759288534,-341219,-313306,-368047,-472847
1783266473807192326,2026-07-05T22:47:53.807+07:00,540128052759288534,-341045,-313216,-367883,-472781
1783266473825374144,2026-07-05T22:47:53.825+07:00,540128052759288534,-341002,-313103,-367813,-472886
1783266473843555962,2026-07-05T22:47:53.843+07:00,540128052759288534,-340901,-313001,-367738,-472876
1783266473861737780,2026-07-05T22:47:53.861+07:00,540128052759288534,-340735,-312833,-367668,-472850
1783266473879919598,2026-07-05T22:47:53.879+07:00,540128052759288534,-340639,-312733,-367548,-472831
1783266473898101416,2026-07-05T22:47:53.898+07:00,540128052759288534,-340559,-312533,-367480,-472861
1783266473916283234,2026-07-05T22:47:53.916+07:00,540128052759288534,-340468,-312459,-367369,-472876
1783266473934465052,2026-07-05T22:47:53.934+07:00,540128052759288534,-340332,-312317,-367242,-472867
1783266473952646870,2026-07-05T22:47:53.952+07:00,540128052759288534,-340248,-312151,-367191,-472896
1783266473970828688,2026-07-05T22:47:53.970+07:00,540128052759288534,-340128,-312017,-367132,-472876
1783266473989010506,2026-07-05T22:47:53.989+07:00,540128052759288534,-340065,-311946,-367012,-472861
1783266474007192324,2026-07-05T22:47:54.007+07:00,540128052759288534,-339907,-311770,-366897,-472873
1783266474025374142,2026-07-05T22:47:54.025+07:00,540128052759288534,-339725,-311622,-366842,-472886
1783266474043555960,2026-07-05T22:47:54.043+07:00,540128053432440833,-339630,-311499,-366749,-472857
1783266474061737778,2026-07-05T22:47:54.061+07:00,540128053432440833,-339482,-311370,-366585,-472828
1783266474079919596,2026-07-05T22:47:54.079+07:00,540128053432440833,-339372,-311215,-366502,-472878
1783266474098101414,2026-07-05T22:47:54.098+07:00,540128053432440833,-339244,-311020,-366382,-472887
1783266474116283232,2026-07-05T22:47:54.116+07:00,540128053432440833,-339129,-310864,-366259,-472845
1783266474134465050,2026-07-05T22:47:54.134+07:00,540128053432440833,-339009,-310738,-366251,-472792
1783266474152646868,2026-07-05T22:47:54.152+07:00,540128053432440833,-338937,-310572,-366142,-472768
1783266474170828686,2026-07-05T22:47:54.170+07:00,540128053432440833,-339006,-310741,-366209,-472845
1783266474189010504,2026-07-05T22:47:54.189+07:00,540128053432440833,-339268,-310972,-366429,-472862
1783266474207192322,2026-07-05T22:47:54.207+07:00,540128053432440833,-339650,-311345,-366665,-472802
1783266474225374140,2026-07-05T22:47:54.225+07:00,540128053432440833,-340138,-311860,-367116,-472831
1783266474243555958,2026-07-05T22:47:54.243+07:00,540128053432440833,-340511,-312250,-367396,-472807
1783266474261737776,2026-07-05T22:47:54.261+07:00,540128053432440833,-340845,-312642,-367714,-472853
1783266474279919594,2026-07-05T22:47:54.279+07:00,540128053432440833,-341179,-313005,-367965,-472875
1783266474298101412,2026-07-05T22:47:54.298+07:00,540128053432440833,-341375,-313287,-368182,-472886
1783266474316283230,2026-07-05T22:47:54.316+07:00,540128053432440833,-341571,-313461,-368328,-472857
1783266474334465048,2026-07-05T22:47:54.334+07:00,540128053432440833,-341749,-313685,-368472,-472797
1783266474352646866,2026-07-05T22:47:54.352+07:00,540128053432440833,-341885,-313864,-368594,-472835
1783266474370828684,2026-07-05T22:47:54.370+07:00,540128053432440833,-341938,-313977,-368665,-472864
1783266474389010502,2026-07-05T22:47:54.389+07:00,540128053432440833,-341966,-313996,-368712,-472869
1783266474407192320,2026-07-05T22:47:54.407+07:00,540128053432440833,-342012,-313998,-368708,-472907
1783266474425374138,2026-07-05T22:47:54.425+07:00,540128053432440833,-341982,-314048,-368719,-472903
1783266474443555956,2026-07-05T22:47:54.443+07:00,540128053432440833,-341915,-314120,-368726,-472862
1783266474461737774,2026-07-05T22:47:54.461+07:00,540128053432440833,-341943,-314089,-368702,-472856
1783266474479919592,2026-07-05T22:47:54.479+07:00,540128053432440833,-342006,-314026,-368734,-472861
1783266474498101410,2026-07-05T22:47:54.498+07:00,540128053432440833,-342028,-314030,-368730,-472860
1783266474516283228,2026-07-05T22:47:54.516+07:00,540128053432440833,-342083,-314134,-368737,-472892
1783266474534465046,2026-07-05T22:47:54.534+07:00,540128053432440833,-342039,-314050,-368724,-472839
1783266474552646864,2026-07-05T22:47:54.552+07:00,540128053432440833,-341996,-314038,-368734,-472896
1783266474570828682,2026-07-05T22:47:54.570+07:00,540128053432440833,-341906,-313940,-368594,-472907
1783266474589010500,2026-07-05T22:47:54.589+07:00,540128053432440833,-341835,-313936,-368584,-472904
1783266474607192318,2026-07-05T22:47:54.607+07:00,540128053432440833,-341774,-313794,-368545,-472892
1783266474625374136,2026-07-05T22:47:54.625+07:00,540128053432440833,-341727,-313737,-368462,-472922
1783266474643555954,2026-07-05T22:47:54.643+07:00,540128053432440833,-341617,-313630,-368453,-472886
1783266474661737772,2026-07-05T22:47:54.661+07:00,540128053432440833,-341500,-313536,-368325,-472854
1783266474679919590,2026-07-05T22:47:54.679+07:00,540128053432440833,-341489,-313434,-368197,-472907
1783266474698101408,2026-07-05T22:47:54.698+07:00,540128053432440833,-341392,-313328,-368139,-472827
1783266474716283226,2026-07-05T22:47:54.716+07:00,540128054196588665,-341260,-313214,-368052,-472846
1783266474734465044,2026-07-05T22:47:54.734+07:00,540128054196588665,-341182,-313134,-367949,-472882
1783266474752646862,2026-07-05T22:47:54.752+07:00,540128054196588665,-341061,-312914,-367872,-472860
1783266474770828680,2026-07-05T22:47:54.770+07:00,540128054196588665,-340950,-312732,-367741,-472859
1783266474789010498,2026-07-05T22:47:54.789+07:00,540128054196588665,-340811,-312631,-367676,-472861
1783266474807192316,2026-07-05T22:47:54.807+07:00,540128054196588665,-340668,-312456,-367526,-472833
1783266474825374134,2026-07-05T22:47:54.825+07:00,540128054196588665,-340638,-312396,-367537,-472878
1783266474843555952,2026-07-05T22:47:54.843+07:00,540128054196588665,-340536,-312206,-367297,-472852
1783266474861737770,2026-07-05T22:47:54.861+07:00,540128054196588665,-340348,-312144,-367301,-472899
1783266474879919588,2026-07-05T22:47:54.879+07:00,540128054196588665,-340214,-311967,-367149,-472824
1783266474898101406,2026-07-05T22:47:54.898+07:00,540128054196588665,-340128,-311861,-367093,-472865
1783266474916283224,2026-07-05T22:47:54.916+07:00,540128054196588665,-339959,-311692,-367007,-472890
1783266474934465042,2026-07-05T22:47:54.934+07:00,540128054196588665,-339855,-311543,-366885,-472891
1783266474952646860,2026-07-05T22:47:54.952+07:00,540128054196588665,-339692,-311397,-366727,-472857
1783266474970828678,2026-07-05T22:47:54.970+07:00,540128054196588665,-339584,-311214,-366610,-472842
1783266474989010496,2026-07-05T22:47:54.989+07:00,540128054196588665,-339478,-311062,-366556,-472894
1783266475007192314,2026-07-05T22:47:55.007+07:00,540128054196588665,-339513,-311095,-366495,-472842
1783266475025374132,2026-07-05T22:47:55.025+07:00,540128054196588665,-339800,-311402,-366730,-472867
1783266475043555950,2026-07-05T22:47:55.043+07:00,540128054196588665,-340139,-311748,-367000,-472864
1783266475061737768,2026-07-05T22:47:55.061+07:00,540128054196588665,-340611,-312192,-367313,-472909
1783266475079919586,2026-07-05T22:47:55.079+07:00,540128054196588665,-340977,-312622,-367627,-472856
1783266475098101404,2026-07-05T22:47:55.098+07:00,540128054196588665,-341332,-313025,-367882,-472887
1783266475116283222,2026-07-05T22:47:55.116+07:00,540128054196588665,-341574,-313321,-368199,-472901
1783266475134465040,2026-07-05T22:47:55.134+07:00,540128054196588665,-341844,-313652,-368401,-472895
1783266475152646858,2026-07-05T22:47:55.152+07:00,540128054196588665,-342026,-313897,-368565,-472956
1783266475170828676,2026-07-05T22:47:55.170+07:00,540128054196588665,-342226,-314098,-368733,-472909
1783266475189010494,2026-07-05T22:47:55.189+07:00,540128054196588665,-342364,-314243,-368881,-472921
1783266475207192312,2026-07-05T22:47:55.207+07:00,540128054196588665,-342377,-314336,-368866,-472789
1783266475225374130,2026-07-05T22:47:55.225+07:00,540128054196588665,-342421,-314401,-368921,-472825
1783266475243555948,2026-07-05T22:47:55.243+07:00,540128054196588665,-342382,-314352,-368947,-472833
