host_timestamp_ns,host_timestamp_iso,pmd_timestamp,ppg0,ppg1,ppg2,ambient
1783776395946689652,2026-07-11T20:26:35.946+07:00,837091597461437810,-344798,-376256,-392697,-472952
1783776395964871470,2026-07-11T20:26:35.964+07:00,837091597461437810,-344759,-376229,-392666,-472998
1783776395983053288,2026-07-11T20:26:35.983+07:00,837091597461437810,-344785,-376172,-392654,-472982
1783776396001235106,2026-07-11T20:26:36.001+07:00,837091597461437810,-344737,-376185,-392663,-472989
1783776396019416924,2026-07-11T20:26:36.019+07:00,837091597461437810,-344703,-376174,-392671,-472968
1783776396037598742,2026-07-11T20:26:36.037+07:00,837091597461437810,-344652,-376081,-392630,-472972
1783776396055780560,2026-07-11T20:26:36.055+07:00,837091597461437810,-344693,-376141,-392687,-473046
1783776396073962378,2026-07-11T20:26:36.073+07:00,837091597461437810,-344624,-376111,-392625,-472984
1783776396092144196,2026-07-11T20:26:36.092+07:00,837091597461437810,-344657,-376133,-392608,-473010
1783776396110326014,2026-07-11T20:26:36.110+07:00,837091597461437810,-344601,-376090,-392586,-472933
1783776396128507832,2026-07-11T20:26:36.128+07:00,837091597461437810,-344507,-376031,-392502,-472947
1783776396146689650,2026-07-11T20:26:36.146+07:00,837091597461437810,-344539,-376028,-392470,-472971
1783776396164871468,2026-07-11T20:26:36.164+07:00,837091597461437810,-344450,-376003,-392471,-472982
1783776396183053286,2026-07-11T20:26:36.183+07:00,837091597461437810,-344497,-376018,-392539,-472951
1783776396201235104,2026-07-11T20:26:36.201+07:00,837091597461437810,-344505,-376010,-392583,-472986
1783776396219416922,2026-07-11T20:26:36.219+07:00,837091597461437810,-344532,-376060,-392602,-473007
1783776396237598740,2026-07-11T20:26:36.237+07:00,837091597461437810,-344598,-376133,-392624,-472963
1783776396255780558,2026-07-11T20:26:36.255+07:00,837091597461437810,-344723,-376216,-392726,-472939
1783776396273962376,2026-07-11T20:26:36.273+07:00,837091597461437810,-344898,-376306,-392825,-473024
1783776396292144194,2026-07-11T20:26:36.292+07:00,837091597461437810,-344955,-376328,-392832,-472975
1783776396310326012,2026-07-11T20:26:36.310+07:00,837091597461437810,-344976,-376362,-392869,-472945
1783776396328507830,2026-07-11T20:26:36.328+07:00,837091597461437810,-345082,-376365,-392963,-472976
1783776396346689648,2026-07-11T20:26:36.346+07:00,837091597461437810,-345117,-376431,-392925,-473012
1783776396364871466,2026-07-11T20:26:36.364+07:00,837091597461437810,-345138,-376479,-392939,-473040
1783776396383053284,2026-07-11T20:26:36.383+07:00,837091597461437810,-345162,-376428,-392931,-473027
1783776396401235102,2026-07-11T20:26:36.401+07:00,837091597461437810,-345097,-376454,-392936,-473013
1783776396419416920,2026-07-11T20:26:36.419+07:00,837091597461437810,-345089,-376435,-392905,-472988
1783776396437598738,2026-07-11T20:26:36.437+07:00,837091597461437810,-345003,-376370,-392897,-472955
1783776396455780556,2026-07-11T20:26:36.455+07:00,837091597461437810,-345003,-376412,-392869,-473020
1783776396473962374,2026-07-11T20:26:36.473+07:00,837091597461437810,-345002,-376373,-392870,-473023
1783776396492144192,2026-07-11T20:26:36.492+07:00,837091597461437810,-345003,-376386,-392876,-472988
1783776396510326010,2026-07-11T20:26:36.510+07:00,837091597461437810,-345045,-376436,-392921,-473070
1783776396528507828,2026-07-11T20:26:36.528+07:00,837091597461437810,-345019,-376432,-392875,-473009
1783776396546689646,2026-07-11T20:26:36.546+07:00,837091597461437810,-344945,-376337,-392880,-472951
1783776396564871464,2026-07-11T20:26:36.564+07:00,837091597461437810,-344998,-376352,-392897,-472996
1783776396583053282,2026-07-11T20:26:36.583+07:00,837091597461437810,-345018,-376419,-392902,-472971
1783776396601235100,2026-07-11T20:26:36.601+07:00,837091597461437810,-345030,-376382,-392939,-472997
1783776396619416918,2026-07-11T20:26:36.619+07:00,837091597461437810,-345058,-376340,-392874,-473011
1783776396637598736,2026-07-11T20:26:36.637+07:00,837091597461437810,-344953,-376337,-392864,-473017
1783776396655780554,2026-07-11T20:26:36.655+07:00,837091597461437810,-344867,-376345,-392802,-472964
1783776396673962372,2026-07-11T20:26:36.673+07:00,837091597461437810,-344874,-376341,-392811,-472981
1783776396692144190,2026-07-11T20:26:36.692+07:00,837091597461437810,-344831,-376296,-392753,-473011
1783776396710326008,2026-07-11T20:26:36.710+07:00,837091597461437810,-344792,-376231,-392722,-472993
1783776396728507826,2026-07-11T20:26:36.728+07:00,837091597461437810,-344710,-376249,-392687,-473009
1783776396746689644,2026-07-11T20:26:36.746+07:00,837091597461437810,-344708,-376238,-392701,-472979
1783776396764871462,2026-07-11T20:26:36.764+07:00,837091597461437810,-344700,-376243,-392690,-472988
1783776396783053280,2026-07-11T20:26:36.783+07:00,837091598280276949,-344676,-376184,-392685,-472922
1783776396801235098,2026-07-11T20:26:36.801+07:00,837091598280276949,-344676,-376210,-392752,-473071
1783776396819416916,2026-07-11T20:26:36.819+07:00,837091598280276949,-344717,-376189,-392754,-472988
1783776396837598734,2026-07-11T20:26:36.837+07:00,837091598280276949,-344683,-376172,-392727,-472990
1783776396855780552,2026-07-11T20:26:36.855+07:00,837091598280276949,-344776,-376185,-392764,-472973
1783776396873962370,2026-07-11T20:26:36.873+07:00,837091598280276949,-344839,-376265,-392822,-472994
1783776396892144188,2026-07-11T20:26:36.892+07:00,837091598280276949,-344955,-376345,-392885,-472976
1783776396910326006,2026-07-11T20:26:36.910+07:00,837091598280276949,-345016,-376403,-392971,-472960
1783776396928507824,2026-07-11T20:26:36.928+07:00,837091598280276949,-345165,-376485,-393015,-472922
1783776396946689642,2026-07-11T20:26:36.946+07:00,837091598280276949,-345192,-376496,-393057,-472922
1783776396964871460,2026-07-11T20:26:36.964+07:00,837091598280276949,-345253,-376595,-393152,-473051
1783776396983053278,2026-07-11T20:26:36.983+07:00,837091598280276949,-345250,-376541,-393075,-473034
1783776397001235096,2026-07-11T20:26:37.001+07:00,837091598280276949,-345273,-376591,-393116,-473024
1783776397019416914,2026-07-11T20:26:37.019+07:00,837091598280276949,-345313,-376606,-393089,-472999
1783776397037598732,2026-07-11T20:26:37.037+07:00,837091598280276949,-345279,-376601,-393098,-472965
1783776397055780550,2026-07-11T20:26:37.055+07:00,837091598280276949,-345293,-376530,-393082,-472969
1783776397073962368,2026-07-11T20:26:37.073+07:00,837091598280276949,-345289,-376532,-393114,-473001
1783776397092144186,2026-07-11T20:26:37.092+07:00,837091598280276949,-345292,-376602,-393077,-473005
1783776397110326004,2026-07-11T20:26:37.110+07:00,837091598280276949,-345340,-376600,-393067,-472963
1783776397128507822,2026-07-11T20:26:37.128+07:00,837091598280276949,-345308,-376555,-393041,-472916
1783776397146689640,2026-07-11T20:26:37.146+07:00,837091598280276949,-345328,-376578,-393066,-473013
1783776397164871458,2026-07-11T20:26:37.164+07:00,837091598280276949,-345361,-376544,-393111,-473017
1783776397183053276,2026-07-11T20:26:37.183+07:00,837091598280276949,-345358,-376599,-393102,-472988
1783776397201235094,2026-07-11T20:26:37.201+07:00,837091598280276949,-345333,-376536,-393117,-472963
1783776397219416912,2026-07-11T20:26:37.219+07:00,837091598280276949,-345380,-376598,-393220,-473013
1783776397237598730,2026-07-11T20:26:37.237+07:00,837091598280276949,-345281,-376538,-393148,-472949
1783776397255780548,2026-07-11T20:26:37.255+07:00,837091598280276949,-345249,-376538,-393151,-473035
1783776397273962366,2026-07-11T20:26:37.273+07:00,837091598280276949,-345201,-376449,-393078,-472988
1783776397292144184,2026-07-11T20:26:37.292+07:00,837091598280276949,-345173,-376466,-393045,-472990
1783776397310326002,2026-07-11T20:26:37.310+07:00,837091598280276949,-345179,-376431,-393035,-472985
1783776397328507820,2026-07-11T20:26:37.328+07:00,837091598280276949,-345181,-376448,-393042,-472948
1783776397346689638,2026-07-11T20:26:37.346+07:00,837091598280276949,-345171,-376504,-393049,-472972
1783776397364871456,2026-07-11T20:26:37.364+07:00,837091598280276949,-345083,-376418,-393040,-472964
1783776397383053274,2026-07-11T20:26:37.383+07:00,837091598280276949,-345106,-376352,-392993,-472990
1783776397401235092,2026-07-11T20:26:37.401+07:00,837091598280276949,-345029,-376372,-393006,-472978
1783776397419416910,2026-07-11T20:26:37.419+07:00,837091598280276949,-345004,-376392,-392997,-472954
1783776397437598728,2026-07-11T20:26:37.437+07:00,837091598280276949,-345043,-376384,-392937,-473034
1783776397455780546,2026-07-11T20:26:37.455+07:00,837091598280276949,-345016,-376396,-392932,-472963
1783776397473962364,2026-07-11T20:26:37.473+07:00,837091598280276949,-345036,-376404,-392963,-472962
1783776397492144182,2026-07-11T20:26:37.492+07:00,837091598280276949,-345088,-376448,-393018,-472908
1783776397510326000,2026-07-11T20:26:37.510+07:00,837091598280276949,-345220,-376485,-393090,-472938
1783776397528507818,2026-07-11T20:26:37.528+07:00,837091598280276949,-345296,-376577,-393186,-472904
1783776397546689636,2026-07-11T20:26:37.546+07:00,837091598280276949,-345411,-376648,-393236,-472929
1783776397564871454,2026-07-11T20:26:37.564+07:00,837091598280276949,-345633,-376739,-393399,-472936
1783776397583053272,2026-07-11T20:26:37.583+07:00,837091598280276949,-345635,-376790,-393407,-473045
1783776397601235090,2026-07-11T20:26:37.601+07:00,837091599135533212,-345646,-376792,-393462,-472976
1783776397619416908,2026-07-11T20:26:37.619+07:00,837091599135533212,-345694,-376818,-393496,-473014
1783776397637598726,2026-07-11T20:26:37.637+07:00,837091599135533212,-345692,-376807,-393458,-472966
1783776397655780544,2026-07-11T20:26:37.655+07:00,837091599135533212,-345711,-376784,-393431,-472968
1783776397673962362,2026-07-11T20:26:37.673+07:00,837091599135533212,-345683,-376778,-393441,-472950
1783776397692144180,2026-07-11T20:26:37.692+07:00,837091599135533212,-345692,-376819,-393417,-472942
1783776397710325998,2026-07-11T20:26:37.710+07:00,837091599135533212,-345639,-376783,-393398,-472903
1783776397728507816,2026-07-11T20:26:37.728+07:00,837091599135533212,-345685,-376789,-393409,-472934
1783776397746689634,2026-07-11T20:26:37.746+07:00,837091599135533212,-345695,-376780,-393410,-472953
1783776397764871452,2026-07-11T20:26:37.764+07:00,837091599135533212,-345747,-376830,-393450,-473032
1783776397783053270,2026-07-11T20:26:37.783+07:00,837091599135533212,-345763,-376833,-393488,-473034
1783776397801235088,2026-07-11T20:26:37.801+07:00,837091599135533212,-345727,-376796,-393458,-473004
1783776397819416906,2026-07-11T20:26:37.819+07:00,837091599135533212,-345733,-376863,-393482,-473004
1783776397837598724,2026-07-11T20:26:37.837+07:00,837091599135533212,-345691,-376809,-393442,-472973
1783776397855780542,2026-07-11T20:26:37.855+07:00,837091599135533212,-345714,-376843,-393481,-472939
1783776397873962360,2026-07-11T20:26:37.873+07:00,837091599135533212,-345675,-376743,-393424,-472912
1783776397892144178,2026-07-11T20:26:37.892+07:00,837091599135533212,-345668,-376796,-393431,-472917
1783776397910325996,2026-07-11T20:26:37.910+07:00,837091599135533212,-345680,-376848,-393404,-472931
1783776397928507814,2026-07-11T20:26:37.928+07:00,837091599135533212,-345686,-376794,-393430,-472921
1783776397946689632,2026-07-11T20:26:37.946+07:00,837091599135533212,-345677,-376882,-393424,-472954
1783776397964871450,2026-07-11T20:26:37.964+07:00,837091599135533212,-345612,-376780,-393393,-472952
1783776397983053268,2026-07-11T20:26:37.983+07:00,837091599135533212,-345562,-376754,-393355,-472941
1783776398001235086,2026-07-11T20:26:38.001+07:00,837091599135533212,-345542,-376714,-393380,-472996
1783776398019416904,2026-07-11T20:26:38.019+07:00,837091599135533212,-345489,-376678,-393362,-472954
1783776398037598722,2026-07-11T20:26:38.037+07:00,837091599135533212,-345513,-376635,-393320,-472983
1783776398055780540,2026-07-11T20:26:38.055+07:00,837091599135533212,-345498,-376607,-393337,-473043
1783776398073962358,2026-07-11T20:26:38.073+07:00,837091599135533212,-345461,-376653,-393263,-472971
1783776398092144176,2026-07-11T20:26:38.092+07:00,837091599135533212,-345486,-376664,-393320,-473005
1783776398110325994,2026-07-11T20:26:38.110+07:00,837091599135533212,-345482,-376671,-393314,-472995
1783776398128507812,2026-07-11T20:26:38.128+07:00,837091599135533212,-345650,-376805,-393460,-472994
1783776398146689630,2026-07-11T20:26:38.146+07:00,837091599135533212,-345701,-376797,-393496,-473029
1783776398164871448,2026-07-11T20:26:38.164+07:00,837091599135533212,-345806,-376872,-393542,-473004
1783776398183053266,2026-07-11T20:26:38.183+07:00,837091599135533212,-345850,-376914,-393567,-472959
1783776398201235084,2026-07-11T20:26:38.201+07:00,837091599135533212,-345958,-376999,-393673,-473035
1783776398219416902,2026-07-11T20:26:38.219+07:00,837091599135533212,-346094,-377122,-393790,-472999
1783776398237598720,2026-07-11T20:26:38.237+07:00,837091599135533212,-346115,-377054,-393785,-472962
1783776398255780538,2026-07-11T20:26:38.255+07:00,837091599135533212,-346145,-377145,-393841,-472986
1783776398273962356,2026-07-11T20:26:38.273+07:00,837091599135533212,-346192,-377114,-393820,-473009
1783776398292144174,2026-07-11T20:26:38.292+07:00,837091599135533212,-346208,-377115,-393819,-472987
1783776398310325992,2026-07-11T20:26:38.310+07:00,837091599135533212,-346174,-377129,-393769,-472928
1783776398328507810,2026-07-11T20:26:38.328+07:00,837091599135533212,-346216,-377138,-393848,-472989
1783776398346689628,2026-07-11T20:26:38.346+07:00,837091599135533212,-346173,-377122,-393790,-472970
1783776398364871446,2026-07-11T20:26:38.364+07:00,837091599135533212,-346181,-377177,-393766,-472973
1783776398383053264,2026-07-11T20:26:38.383+07:00,837091599135533212,-346206,-377121,-393810,-473002
1783776398401235082,2026-07-11T20:26:38.401+07:00,837091599135533212,-346176,-377139,-393865,-472970
1783776398419416900,2026-07-11T20:26:38.419+07:00,837091599135533212,-346193,-377191,-393807,-473024
1783776398437598718,2026-07-11T20:26:38.437+07:00,837091599135533212,-346216,-377178,-393829,-473004
1783776398455780536,2026-07-11T20:26:38.455+07:00,837091599899780236,-346233,-377162,-393817,-472970
1783776398473962354,2026-07-11T20:26:38.473+07:00,837091599899780236,-346262,-377140,-393866,-472993
1783776398492144172,2026-07-11T20:26:38.492+07:00,837091599899780236,-346291,-377141,-393863,-472970
1783776398510325990,2026-07-11T20:26:38.510+07:00,837091599899780236,-346262,-377156,-393854,-472992
1783776398528507808,2026-07-11T20:26:38.528+07:00,837091599899780236,-346242,-377191,-393854,-473050
1783776398546689626,2026-07-11T20:26:38.546+07:00,837091599899780236,-346209,-377111,-393778,-472947
1783776398564871444,2026-07-11T20:26:38.564+07:00,837091599899780236,-346190,-377104,-393829,-472967
1783776398583053262,2026-07-11T20:26:38.583+07:00,837091599899780236,-346188,-377139,-393800,-472970
1783776398601235080,2026-07-11T20:26:38.601+07:00,837091599899780236,-346173,-377126,-393797,-472979
1783776398619416898,2026-07-11T20:26:38.619+07:00,837091599899780236,-346111,-377102,-393717,-472953
1783776398637598716,2026-07-11T20:26:38.637+07:00,837091599899780236,-346059,-377059,-393782,-472994
1783776398655780534,2026-07-11T20:26:38.655+07:00,837091599899780236,-346031,-377077,-393722,-472998
1783776398673962352,2026-07-11T20:26:38.673+07:00,837091599899780236,-346000,-377034,-393725,-473083
1783776398692144170,2026-07-11T20:26:38.692+07:00,837091599899780236,-345980,-376952,-393652,-472983
1783776398710325988,2026-07-11T20:26:38.710+07:00,837091599899780236,-345936,-376926,-393658,-473004
1783776398728507806,2026-07-11T20:26:38.728+07:00,837091599899780236,-345905,-376923,-393613,-473046
1783776398746689624,2026-07-11T20:26:38.746+07:00,837091599899780236,-345896,-376967,-393647,-473068
1783776398764871442,2026-07-11T20:26:38.764+07:00,837091599899780236,-345844,-376964,-393578,-472930
1783776398783053260,2026-07-11T20:26:38.783+07:00,837091599899780236,-345924,-376971,-393637,-472952
1783776398801235078,2026-07-11T20:26:38.801+07:00,837091599899780236,-345993,-377039,-393723,-472967
1783776398819416896,2026-07-11T20:26:38.819+07:00,837091599899780236,-346073,-377120,-393833,-472966
1783776398837598714,2026-07-11T20:26:38.837+07:00,837091599899780236,-346145,-377127,-393864,-472969
1783776398855780532,2026-07-11T20:26:38.855+07:00,837091599899780236,-346292,-377206,-393955,-472988
1783776398873962350,2026-07-11T20:26:38.873+07:00,837091599899780236,-346409,-377243,-394014,-473005
1783776398892144168,2026-07-11T20:26:38.892+07:00,837091599899780236,-346406,-377299,-394001,-472975
1783776398910325986,2026-07-11T20:26:38.910+07:00,837091599899780236,-346489,-377302,-394032,-473005
1783776398928507804,2026-07-11T20:26:38.928+07:00,837091599899780236,-346452,-377330,-394049,-473029
1783776398946689622,2026-07-11T20:26:38.946+07:00,837091599899780236,-346464,-377354,-394002,-472961
1783776398964871440,2026-07-11T20:26:38.964+07:00,837091599899780236,-346502,-377371,-394049,-472990
1783776398983053258,2026-07-11T20:26:38.983+07:00,837091599899780236,-346450,-377324,-394014,-472969
1783776399001235076,2026-07-11T20:26:39.001+07:00,837091599899780236,-346419,-377294,-393999,-472970
1783776399019416894,2026-07-11T20:26:39.019+07:00,837091599899780236,-346388,-377289,-393922,-472990
1783776399037598712,2026-07-11T20:26:39.037+07:00,837091599899780236,-346338,-377295,-393974,-472964
1783776399055780530,2026-07-11T20:26:39.055+07:00,837091599899780236,-346399,-377279,-393954,-472954
1783776399073962348,2026-07-11T20:26:39.073+07:00,837091599899780236,-346378,-377218,-393850,-472930
1783776399092144166,2026-07-11T20:26:39.092+07:00,837091599899780236,-346292,-377235,-393926,-472965
1783776399110325984,2026-07-11T20:26:39.110+07:00,837091599899780236,-346341,-377259,-393947,-473001
1783776399128507802,2026-07-11T20:26:39.128+07:00,837091599899780236,-346291,-377239,-393871,-472990
1783776399146689620,2026-07-11T20:26:39.146+07:00,837091599899780236,-346280,-377230,-393927,-472938
1783776399164871438,2026-07-11T20:26:39.164+07:00,837091599899780236,-346312,-377275,-393905,-472962
1783776399183053256,2026-07-11T20:26:39.183+07:00,837091599899780236,-346305,-377203,-393924,-472947
1783776399201235074,2026-07-11T20:26:39.201+07:00,837091599899780236,-346276,-377161,-393956,-472968
1783776399219416892,2026-07-11T20:26:39.219+07:00,837091600809613366,-346291,-377181,-393895,-472963
1783776399237598710,2026-07-11T20:26:39.237+07:00,837091600809613366,-346254,-377166,-393875,-472951
1783776399255780528,2026-07-11T20:26:39.255+07:00,837091600809613366,-346215,-377138,-393831,-472983
1783776399273962346,2026-07-11T20:26:39.273+07:00,837091600809613366,-346186,-377136,-393824,-472949
1783776399292144164,2026-07-11T20:26:39.292+07:00,837091600809613366,-346118,-377110,-393864,-472979
1783776399310325982,2026-07-11T20:26:39.310+07:00,837091600809613366,-346161,-377121,-393835,-472989
1783776399328507800,2026-07-11T20:26:39.328+07:00,837091600809613366,-346104,-377075,-393756,-472916
1783776399346689618,2026-07-11T20:26:39.346+07:00,837091600809613366,-346079,-377044,-393772,-472949
1783776399364871436,2026-07-11T20:26:39.364+07:00,837091600809613366,-346062,-377026,-393723,-473036
1783776399383053254,2026-07-11T20:26:39.383+07:00,837091600809613366,-346015,-377024,-393754,-473037
1783776399401235072,2026-07-11T20:26:39.401+07:00,837091600809613366,-345997,-376921,-393683,-472985
1783776399419416890,2026-07-11T20:26:39.419+07:00,837091600809613366,-345971,-376939,-393729,-472977
1783776399437598708,2026-07-11T20:26:39.437+07:00,837091600809613366,-345895,-376956,-393711,-472942
1783776399455780526,2026-07-11T20:26:39.455+07:00,837091600809613366,-345925,-376993,-393755,-472994
1783776399473962344,2026-07-11T20:26:39.473+07:00,837091600809613366,-346005,-376959,-393759,-473001
1783776399492144162,2026-07-11T20:26:39.492+07:00,837091600809613366,-346098,-376985,-393790,-472964
1783776399510325980,2026-07-11T20:26:39.510+07:00,837091600809613366,-346151,-377080,-393851,-472925
1783776399528507798,2026-07-11T20:26:39.528+07:00,837091600809613366,-346273,-377162,-393946,-472972
1783776399546689616,2026-07-11T20:26:39.546+07:00,837091600809613366,-346271,-377193,-394007,-472988
1783776399564871434,2026-07-11T20:26:39.564+07:00,837091600809613366,-346335,-377275,-394028,-472962
1783776399583053252,2026-07-11T20:26:39.583+07:00,837091600809613366,-346398,-377307,-394082,-472965
1783776399601235070,2026-07-11T20:26:39.601+07:00,837091600809613366,-346415,-377286,-394110,-472888
1783776399619416888,2026-07-11T20:26:39.619+07:00,837091600809613366,-346432,-377258,-394042,-472942
1783776399637598706,2026-07-11T20:26:39.637+07:00,837091600809613366,-346432,-377315,-394062,-472927
1783776399655780524,2026-07-11T20:26:39.655+07:00,837091600809613366,-346478,-377290,-394097,-472966
1783776399673962342,2026-07-11T20:26:39.673+07:00,837091600809613366,-346433,-377359,-394066,-472943
1783776399692144160,2026-07-11T20:26:39.692+07:00,837091600809613366,-346448,-377308,-394080,-472910
1783776399710325978,2026-07-11T20:26:39.710+07:00,837091600809613366,-346416,-377300,-394044,-472929
1783776399728507796,2026-07-11T20:26:39.728+07:00,837091600809613366,-346451,-377376,-394070,-472997
1783776399746689614,2026-07-11T20:26:39.746+07:00,837091600809613366,-346431,-377368,-394027,-472980
1783776399764871432,2026-07-11T20:26:39.764+07:00,837091600809613366,-346461,-377307,-394047,-472992
1783776399783053250,2026-07-11T20:26:39.783+07:00,837091600809613366,-346430,-377282,-393994,-473006
1783776399801235068,2026-07-11T20:26:39.801+07:00,837091600809613366,-346403,-377346,-394078,-472989
1783776399819416886,2026-07-11T20:26:39.819+07:00,837091600809613366,-346442,-377404,-394096,-473043
1783776399837598704,2026-07-11T20:26:39.837+07:00,837091600809613366,-346444,-377326,-394044,-472987
1783776399855780522,2026-07-11T20:26:39.855+07:00,837091600809613366,-346389,-377304,-394008,-472986
1783776399873962340,2026-07-11T20:26:39.873+07:00,837091600809613366,-346382,-377283,-394015,-472970
1783776399892144158,2026-07-11T20:26:39.892+07:00,837091600809613366,-346437,-377334,-394021,-472972
1783776399910325976,2026-07-11T20:26:39.910+07:00,837091600809613366,-346397,-377275,-394005,-473011
1783776399928507794,2026-07-11T20:26:39.928+07:00,837091600809613366,-346340,-377309,-393924,-472996
1783776399946689612,2026-07-11T20:26:39.946+07:00,837091600809613366,-346242,-377232,-393877,-472941
1783776399964871430,2026-07-11T20:26:39.964+07:00,837091600809613366,-346308,-377242,-393888,-472994
1783776399983053248,2026-07-11T20:26:39.983+07:00,837091600809613366,-346316,-377214,-393893,-472981
1783776400001235066,2026-07-11T20:26:40.001+07:00,837091600809613366,-346240,-377238,-393881,-472971
1783776400019416884,2026-07-11T20:26:40.019+07:00,837091600809613366,-346174,-377156,-393877,-472965
1783776400037598702,2026-07-11T20:26:40.037+07:00,837091600809613366,-346125,-377058,-393802,-472982
1783776400055780520,2026-07-11T20:26:40.055+07:00,837091600809613366,-346121,-377140,-393773,-472968
1783776400073962338,2026-07-11T20:26:40.073+07:00,837091600809613366,-346119,-377096,-393782,-472988
1783776400092144156,2026-07-11T20:26:40.092+07:00,837091600809613366,-346126,-377122,-393829,-472962
1783776400110325974,2026-07-11T20:26:40.110+07:00,837091600809613366,-346078,-377096,-393865,-472975
1783776400128507792,2026-07-11T20:26:40.128+07:00,837091601592091833,-346215,-377184,-393956,-472989
1783776400146689610,2026-07-11T20:26:40.146+07:00,837091601592091833,-346235,-377302,-394058,-472972
1783776400164871428,2026-07-11T20:26:40.164+07:00,837091601592091833,-346290,-377276,-394071,-472944
1783776400183053246,2026-07-11T20:26:40.183+07:00,837091601592091833,-346383,-377371,-394135,-473010
1783776400201235064,2026-07-11T20:26:40.201+07:00,837091601592091833,-346515,-377413,-394120,-473058
1783776400219416882,2026-07-11T20:26:40.219+07:00,837091601592091833,-346486,-377384,-394067,-473016
1783776400237598700,2026-07-11T20:26:40.237+07:00,837091601592091833,-346482,-377379,-394123,-472934
1783776400255780518,2026-07-11T20:26:40.255+07:00,837091601592091833,-346505,-377414,-394141,-472997
1783776400273962336,2026-07-11T20:26:40.273+07:00,837091601592091833,-346601,-377462,-394181,-473046
1783776400292144154,2026-07-11T20:26:40.292+07:00,837091601592091833,-346544,-377405,-394161,-472972
1783776400310325972,2026-07-11T20:26:40.310+07:00,837091601592091833,-346546,-377401,-394199,-472984
1783776400328507790,2026-07-11T20:26:40.328+07:00,837091601592091833,-346483,-377413,-394125,-473016
1783776400346689608,2026-07-11T20:26:40.346+07:00,837091601592091833,-346428,-377335,-394042,-472961
1783776400364871426,2026-07-11T20:26:40.364+07:00,837091601592091833,-346397,-377343,-394089,-472975
1783776400383053244,2026-07-11T20:26:40.383+07:00,837091601592091833,-346418,-377395,-394059,-472988
1783776400401235062,2026-07-11T20:26:40.401+07:00,837091601592091833,-346469,-377400,-394066,-472958
1783776400419416880,2026-07-11T20:26:40.419+07:00,837091601592091833,-346433,-377425,-394012,-472962
1783776400437598698,2026-07-11T20:26:40.437+07:00,837091601592091833,-346368,-377427,-394007,-472947
1783776400455780516,2026-07-11T20:26:40.455+07:00,837091601592091833,-346382,-377440,-394035,-473050
1783776400473962334,2026-07-11T20:26:40.473+07:00,837091601592091833,-346363,-377406,-394010,-472997
1783776400492144152,2026-07-11T20:26:40.492+07:00,837091601592091833,-346322,-377364,-393927,-472966
1783776400510325970,2026-07-11T20:26:40.510+07:00,837091601592091833,-346271,-377359,-393894,-472975
1783776400528507788,2026-07-11T20:26:40.528+07:00,837091601592091833,-346209,-377310,-393875,-472961
1783776400546689606,2026-07-11T20:26:40.546+07:00,837091601592091833,-346188,-377230,-393888,-473005
1783776400564871424,2026-07-11T20:26:40.564+07:00,837091601592091833,-346150,-377294,-393881,-473044
1783776400583053242,2026-07-11T20:26:40.583+07:00,837091601592091833,-346073,-377141,-393784,-472959
1783776400601235060,2026-07-11T20:26:40.601+07:00,837091601592091833,-345959,-377121,-393704,-472967
1783776400619416878,2026-07-11T20:26:40.619+07:00,837091601592091833,-345712,-377005,-393590,-472980
1783776400637598696,2026-07-11T20:26:40.637+07:00,837091601592091833,-345509,-376862,-393373,-472989
1783776400655780514,2026-07-11T20:26:40.655+07:00,837091601592091833,-345349,-376736,-393263,-473057
1783776400673962332,2026-07-11T20:26:40.673+07:00,837091601592091833,-345106,-376617,-393072,-473020
1783776400692144150,2026-07-11T20:26:40.692+07:00,837091601592091833,-344819,-376351,-392828,-472970
1783776400710325968,2026-07-11T20:26:40.710+07:00,837091601592091833,-344627,-376265,-392705,-472982
1783776400728507786,2026-07-11T20:26:40.728+07:00,837091601592091833,-344472,-376188,-392630,-473029
1783776400746689604,2026-07-11T20:26:40.746+07:00,837091601592091833,-344281,-376072,-392508,-473010
1783776400764871422,2026-07-11T20:26:40.764+07:00,837091601592091833,-344264,-376006,-392546,-472987
1783776400783053240,2026-07-11T20:26:40.783+07:00,837091601592091833,-344212,-375984,-392476,-472992
1783776400801235058,2026-07-11T20:26:40.801+07:00,837091601592091833,-344198,-375873,-392470,-472949
1783776400819416876,2026-07-11T20:26:40.819+07:00,837091601592091833,-344300,-376020,-392631,-472980
1783776400837598694,2026-07-11T20:26:40.837+07:00,837091601592091833,-344347,-376143,-392723,-472965
1783776400855780512,2026-07-11T20:26:40.855+07:00,837091601592091833,-344316,-376153,-392702,-472935
1783776400873962330,2026-07-11T20:26:40.873+07:00,837091601592091833,-344365,-376136,-392772,-472968
1783776400892144148,2026-07-11T20:26:40.892+07:00,837091601592091833,-344367,-376138,-392771,-472976
1783776400910325966,2026-07-11T20:26:40.910+07:00,837091602429165473,-344330,-376062,-392753,-472946
1783776400928507784,2026-07-11T20:26:40.928+07:00,837091602429165473,-344264,-376086,-392771,-472965
1783776400946689602,2026-07-11T20:26:40.946+07:00,837091602429165473,-344307,-376128,-392830,-473019
1783776400964871420,2026-07-11T20:26:40.964+07:00,837091602429165473,-344298,-376113,-392800,-472993
1783776400983053238,2026-07-11T20:26:40.983+07:00,837091602429165473,-344290,-376100,-392775,-473013
1783776401001235056,2026-07-11T20:26:41.001+07:00,837091602429165473,-344258,-376122,-392762,-473045
1783776401019416874,2026-07-11T20:26:41.019+07:00,837091602429165473,-344258,-376070,-392720,-473011
1783776401037598692,2026-07-11T20:26:41.037+07:00,837091602429165473,-344208,-375993,-392676,-472985
1783776401055780510,2026-07-11T20:26:41.055+07:00,837091602429165473,-344190,-375918,-392621,-472986
1783776401073962328,2026-07-11T20:26:41.073+07:00,837091602429165473,-344211,-375875,-392555,-473012
1783776401092144146,2026-07-11T20:26:41.092+07:00,837091602429165473,-344252,-375838,-392580,-473019
1783776401110325964,2026-07-11T20:26:41.110+07:00,837091602429165473,-344151,-375728,-392504,-472988
1783776401128507782,2026-07-11T20:26:41.128+07:00,837091602429165473,-344087,-375590,-392438,-473019
1783776401146689600,2026-07-11T20:26:41.146+07:00,837091602429165473,-343933,-375508,-392343,-473016
1783776401164871418,2026-07-11T20:26:41.164+07:00,837091602429165473,-343808,-375350,-392226,-472983
1783776401183053236,2026-07-11T20:26:41.183+07:00,837091602429165473,-343730,-375335,-392194,-473040
1783776401201235054,2026-07-11T20:26:41.201+07:00,837091602429165473,-343635,-375241,-392152,-473062
1783776401219416872,2026-07-11T20:26:41.219+07:00,837091602429165473,-343499,-375127,-392022,-473013
1783776401237598690,2026-07-11T20:26:41.237+07:00,837091602429165473,-343361,-375034,-391972,-472983
1783776401255780508,2026-07-11T20:26:41.255+07:00,837091602429165473,-343254,-374917,-391851,-472958
1783776401273962326,2026-07-11T20:26:41.273+07:00,837091602429165473,-343159,-374878,-391812,-472978
1783776401292144144,2026-07-11T20:26:41.292+07:00,837091602429165473,-343004,-374776,-391696,-472916
1783776401310325962,2026-07-11T20:26:41.310+07:00,837091602429165473,-342954,-374659,-391634,-472964
1783776401328507780,2026-07-11T20:26:41.328+07:00,837091602429165473,-342874,-374597,-391561,-473014
1783776401346689598,2026-07-11T20:26:41.346+07:00,837091602429165473,-342734,-374470,-391454,-472954
1783776401364871416,2026-07-11T20:26:41.364+07:00,837091602429165473,-342708,-374437,-391423,-473039
1783776401383053234,2026-07-11T20:26:41.383+07:00,837091602429165473,-342605,-374398,-391464,-472993
1783776401401235052,2026-07-11T20:26:41.401+07:00,837091602429165473,-342574,-374321,-391394,-472965
1783776401419416870,2026-07-11T20:26:41.419+07:00,837091602429165473,-342589,-374297,-391329,-472994
1783776401437598688,2026-07-11T20:26:41.437+07:00,837091602429165473,-342641,-374272,-391439,-472952
1783776401455780506,2026-07-11T20:26:41.455+07:00,837091602429165473,-342644,-374313,-391430,-473048
1783776401473962324,2026-07-11T20:26:41.473+07:00,837091602429165473,-342622,-374303,-391453,-472990
1783776401492144142,2026-07-11T20:26:41.492+07:00,837091602429165473,-342696,-374316,-391480,-472922
1783776401510325960,2026-07-11T20:26:41.510+07:00,837091602429165473,-342680,-374402,-391527,-472917
1783776401528507778,2026-07-11T20:26:41.528+07:00,837091602429165473,-342707,-374304,-391462,-472982
1783776401546689596,2026-07-11T20:26:41.546+07:00,837091602429165473,-342701,-374422,-391467,-472984
1783776401564871414,2026-07-11T20:26:41.564+07:00,837091602429165473,-342655,-374373,-391479,-472992
1783776401583053232,2026-07-11T20:26:41.583+07:00,837091602429165473,-342660,-374330,-391446,-473045
1783776401601235050,2026-07-11T20:26:41.601+07:00,837091602429165473,-342587,-374269,-391387,-473020
1783776401619416868,2026-07-11T20:26:41.619+07:00,837091602429165473,-342486,-374222,-391333,-472952
1783776401637598686,2026-07-11T20:26:41.637+07:00,837091602429165473,-342468,-374132,-391291,-473016
1783776401655780504,2026-07-11T20:26:41.655+07:00,837091602429165473,-342371,-374055,-391221,-472990
1783776401673962322,2026-07-11T20:26:41.673+07:00,837091602429165473,-342306,-373976,-391188,-472948
1783776401692144140,2026-07-11T20:26:41.692+07:00,837091602429165473,-342350,-373946,-391147,-473051
1783776401710325958,2026-07-11T20:26:41.710+07:00,837091602429165473,-342231,-373862,-391137,-472997
1783776401728507776,2026-07-11T20:26:41.728+07:00,837091602429165473,-342265,-373869,-391092,-473007
1783776401746689594,2026-07-11T20:26:41.746+07:00,837091603266220815,-342185,-373769,-391051,-472970
1783776401764871412,2026-07-11T20:26:41.764+07:00,837091603266220815,-342171,-373774,-391038,-473005
1783776401783053230,2026-07-11T20:26:41.783+07:00,837091603266220815,-342188,-373795,-391013,-473009
1783776401801235048,2026-07-11T20:26:41.801+07:00,837091603266220815,-342150,-373775,-390994,-473011
1783776401819416866,2026-07-11T20:26:41.819+07:00,837091603266220815,-342061,-373749,-391009,-472934
1783776401837598684,2026-07-11T20:26:41.837+07:00,837091603266220815,-342052,-373718,-390949,-473001
1783776401855780502,2026-07-11T20:26:41.855+07:00,837091603266220815,-341990,-373688,-390892,-472951
1783776401873962320,2026-07-11T20:26:41.873+07:00,837091603266220815,-341927,-373646,-390853,-473006
1783776401892144138,2026-07-11T20:26:41.892+07:00,837091603266220815,-341828,-373527,-390748,-472978
1783776401910325956,2026-07-11T20:26:41.910+07:00,837091603266220815,-341735,-373453,-390722,-473051
1783776401928507774,2026-07-11T20:26:41.928+07:00,837091603266220815,-341605,-373413,-390712,-473011
1783776401946689592,2026-07-11T20:26:41.946+07:00,837091603266220815,-341482,-373256,-390531,-472979
1783776401964871410,2026-07-11T20:26:41.964+07:00,837091603266220815,-341417,-373206,-390504,-473005
1783776401983053228,2026-07-11T20:26:41.983+07:00,837091603266220815,-341281,-373144,-390433,-473023
1783776402001235046,2026-07-11T20:26:42.001+07:00,837091603266220815,-341203,-373031,-390403,-473004
1783776402019416864,2026-07-11T20:26:42.019+07:00,837091603266220815,-341154,-372959,-390373,-472999
1783776402037598682,2026-07-11T20:26:42.037+07:00,837091603266220815,-341096,-372973,-390400,-473033
1783776402055780500,2026-07-11T20:26:42.055+07:00,837091603266220815,-341041,-372886,-390322,-473013
1783776402073962318,2026-07-11T20:26:42.073+07:00,837091603266220815,-341022,-372965,-390349,-473055
1783776402092144136,2026-07-11T20:26:42.092+07:00,837091603266220815,-341059,-372983,-390373,-473006
1783776402110325954,2026-07-11T20:26:42.110+07:00,837091603266220815,-341071,-372943,-390353,-472969
1783776402128507772,2026-07-11T20:26:42.128+07:00,837091603266220815,-341057,-372977,-390420,-472989
1783776402146689590,2026-07-11T20:26:42.146+07:00,837091603266220815,-341170,-372928,-390373,-472968
1783776402164871408,2026-07-11T20:26:42.164+07:00,837091603266220815,-341190,-373025,-390411,-473000
1783776402183053226,2026-07-11T20:26:42.183+07:00,837091603266220815,-341253,-373038,-390465,-473048
1783776402201235044,2026-07-11T20:26:42.201+07:00,837091603266220815,-341203,-373050,-390398,-473027
1783776402219416862,2026-07-11T20:26:42.219+07:00,837091603266220815,-341188,-373080,-390430,-473053
1783776402237598680,2026-07-11T20:26:42.237+07:00,837091603266220815,-341213,-373027,-390408,-473039
1783776402255780498,2026-07-11T20:26:42.255+07:00,837091603266220815,-341190,-373025,-390425,-472996
1783776402273962316,2026-07-11T20:26:42.273+07:00,837091603266220815,-341131,-373066,-390415,-472967
1783776402292144134,2026-07-11T20:26:42.292+07:00,837091603266220815,-341125,-373094,-390379,-473009
1783776402310325952,2026-07-11T20:26:42.310+07:00,837091603266220815,-341151,-373179,-390425,-473038
1783776402328507770,2026-07-11T20:26:42.328+07:00,837091603266220815,-341177,-373265,-390451,-473022
1783776402346689588,2026-07-11T20:26:42.346+07:00,837091603266220815,-341122,-373279,-390493,-472997
1783776402364871406,2026-07-11T20:26:42.364+07:00,837091603266220815,-341145,-373330,-390488,-473000
1783776402383053224,2026-07-11T20:26:42.383+07:00,837091603266220815,-341117,-373357,-390502,-472998
1783776402401235042,2026-07-11T20:26:42.401+07:00,837091603266220815,-341106,-373381,-390496,-472955
1783776402419416860,2026-07-11T20:26:42.419+07:00,837091603266220815,-341164,-373488,-390474,-472994
1783776402437598678,2026-07-11T20:26:42.437+07:00,837091603266220815,-341110,-373532,-390475,-472950
1783776402455780496,2026-07-11T20:26:42.455+07:00,837091603266220815,-341058,-373455,-390383,-472904
1783776402473962314,2026-07-11T20:26:42.473+07:00,837091603266220815,-341101,-373510,-390428,-472950
1783776402492144132,2026-07-11T20:26:42.492+07:00,837091603266220815,-341069,-373499,-390384,-472970
1783776402510325950,2026-07-11T20:26:42.510+07:00,837091603266220815,-341066,-373506,-390441,-472986
1783776402528507768,2026-07-11T20:26:42.528+07:00,837091603266220815,-341049,-373531,-390455,-473000
1783776402546689586,2026-07-11T20:26:42.546+07:00,837091603266220815,-341025,-373490,-390400,-472934
1783776402564871404,2026-07-11T20:26:42.564+07:00,837091603266220815,-341090,-373580,-390435,-472973
1783776402583053222,2026-07-11T20:26:42.583+07:00,837091604085171342,-341056,-373531,-390366,-473028
1783776402601235040,2026-07-11T20:26:42.601+07:00,837091604085171342,-340997,-373519,-390394,-472989
1783776402619416858,2026-07-11T20:26:42.619+07:00,837091604085171342,-341014,-373520,-390348,-473010
1783776402637598676,2026-07-11T20:26:42.637+07:00,837091604085171342,-341020,-373554,-390394,-473031
1783776402655780494,2026-07-11T20:26:42.655+07:00,837091604085171342,-340963,-373494,-390353,-472937
1783776402673962312,2026-07-11T20:26:42.673+07:00,837091604085171342,-341012,-373510,-390359,-472971
1783776402692144130,2026-07-11T20:26:42.692+07:00,837091604085171342,-340977,-373502,-390346,-472962
1783776402710325948,2026-07-11T20:26:42.710+07:00,837091604085171342,-340949,-373527,-390381,-472998
1783776402728507766,2026-07-11T20:26:42.728+07:00,837091604085171342,-340967,-373581,-390365,-472989
1783776402746689584,2026-07-11T20:26:42.746+07:00,837091604085171342,-341124,-373610,-390458,-473001
1783776402764871402,2026-07-11T20:26:42.764+07:00,837091604085171342,-341110,-373616,-390466,-472911
1783776402783053220,2026-07-11T20:26:42.783+07:00,837091604085171342,-341306,-373740,-390611,-472995
1783776402801235038,2026-07-11T20:26:42.801+07:00,837091604085171342,-341464,-373850,-390689,-472998
1783776402819416856,2026-07-11T20:26:42.819+07:00,837091604085171342,-341565,-373894,-390729,-473022
1783776402837598674,2026-07-11T20:26:42.837+07:00,837091604085171342,-341573,-373924,-390856,-472995
1783776402855780492,2026-07-11T20:26:42.855+07:00,837091604085171342,-341551,-373941,-390879,-472963
1783776402873962310,2026-07-11T20:26:42.873+07:00,837091604085171342,-341631,-374043,-390896,-472956
1783776402892144128,2026-07-11T20:26:42.892+07:00,837091604085171342,-341691,-373976,-390939,-472939
1783776402910325946,2026-07-11T20:26:42.910+07:00,837091604085171342,-341688,-374028,-390919,-472970
1783776402928507764,2026-07-11T20:26:42.928+07:00,837091604085171342,-341743,-374137,-390973,-472926
1783776402946689582,2026-07-11T20:26:42.946+07:00,837091604085171342,-341698,-374088,-390921,-472924
1783776402964871400,2026-07-11T20:26:42.964+07:00,837091604085171342,-341733,-374172,-390931,-472933
1783776402983053218,2026-07-11T20:26:42.983+07:00,837091604085171342,-341767,-374156,-390905,-472970
1783776403001235036,2026-07-11T20:26:43.001+07:00,837091604085171342,-341792,-374096,-390885,-472944
1783776403019416854,2026-07-11T20:26:43.019+07:00,837091604085171342,-341845,-374151,-390918,-472979
1783776403037598672,2026-07-11T20:26:43.037+07:00,837091604085171342,-341833,-374117,-390898,-472931
1783776403055780490,2026-07-11T20:26:43.055+07:00,837091604085171342,-341844,-374215,-391012,-472975
1783776403073962308,2026-07-11T20:26:43.073+07:00,837091604085171342,-341884,-374183,-390953,-472976
1783776403092144126,2026-07-11T20:26:43.092+07:00,837091604085171342,-341874,-374215,-390899,-472965
1783776403110325944,2026-07-11T20:26:43.110+07:00,837091604085171342,-341905,-374239,-390890,-472948
1783776403128507762,2026-07-11T20:26:43.128+07:00,837091604085171342,-341855,-374219,-390859,-472972
1783776403146689580,2026-07-11T20:26:43.146+07:00,837091604085171342,-341914,-374228,-390867,-472967
1783776403164871398,2026-07-11T20:26:43.164+07:00,837091604085171342,-341935,-374203,-390813,-472975
1783776403183053216,2026-07-11T20:26:43.183+07:00,837091604085171342,-341929,-374171,-390861,-473026
1783776403201235034,2026-07-11T20:26:43.201+07:00,837091604085171342,-341860,-374152,-390877,-472978
1783776403219416852,2026-07-11T20:26:43.219+07:00,837091604085171342,-341813,-374155,-390858,-472912
1783776403237598670,2026-07-11T20:26:43.237+07:00,837091604085171342,-341844,-374177,-390816,-472956
1783776403255780488,2026-07-11T20:26:43.255+07:00,837091604085171342,-341851,-374188,-390800,-473023
1783776403273962306,2026-07-11T20:26:43.273+07:00,837091604085171342,-341735,-374123,-390805,-472968
1783776403292144124,2026-07-11T20:26:43.292+07:00,837091604085171342,-341755,-374101,-390796,-472973
1783776403310325942,2026-07-11T20:26:43.310+07:00,837091604085171342,-341693,-374047,-390701,-472929
1783776403328507760,2026-07-11T20:26:43.328+07:00,837091604085171342,-341705,-373989,-390707,-472885
1783776403346689578,2026-07-11T20:26:43.346+07:00,837091604085171342,-341742,-374037,-390695,-472938
1783776403364871396,2026-07-11T20:26:43.364+07:00,837091604085171342,-341861,-374102,-390795,-472992
1783776403383053214,2026-07-11T20:26:43.383+07:00,837091604085171342,-341872,-374217,-390868,-472947
1783776403401235032,2026-07-11T20:26:43.401+07:00,837091604940523743,-342015,-374225,-390893,-472934
1783776403419416850,2026-07-11T20:26:43.419+07:00,837091604940523743,-342048,-374349,-390962,-472936
1783776403437598668,2026-07-11T20:26:43.437+07:00,837091604940523743,-342125,-374395,-391031,-473005
1783776403455780486,2026-07-11T20:26:43.455+07:00,837091604940523743,-342246,-374452,-391122,-472947
1783776403473962304,2026-07-11T20:26:43.473+07:00,837091604940523743,-342339,-374485,-391179,-472924
1783776403492144122,2026-07-11T20:26:43.492+07:00,837091604940523743,-342403,-374545,-391173,-472919
1783776403510325940,2026-07-11T20:26:43.510+07:00,837091604940523743,-342465,-374546,-391226,-472971
1783776403528507758,2026-07-11T20:26:43.528+07:00,837091604940523743,-342398,-374480,-391181,-472868
1783776403546689576,2026-07-11T20:26:43.546+07:00,837091604940523743,-342410,-374490,-391219,-472960
1783776403564871394,2026-07-11T20:26:43.564+07:00,837091604940523743,-342440,-374518,-391259,-472947
1783776403583053212,2026-07-11T20:26:43.583+07:00,837091604940523743,-342467,-374547,-391295,-472969
1783776403601235030,2026-07-11T20:26:43.601+07:00,837091604940523743,-342461,-374547,-391293,-473010
1783776403619416848,2026-07-11T20:26:43.619+07:00,837091604940523743,-342535,-374555,-391280,-472994
1783776403637598666,2026-07-11T20:26:43.637+07:00,837091604940523743,-342477,-374571,-391236,-472926
1783776403655780484,2026-07-11T20:26:43.655+07:00,837091604940523743,-342528,-374600,-391269,-472981
1783776403673962302,2026-07-11T20:26:43.673+07:00,837091604940523743,-342550,-374598,-391263,-472956
1783776403692144120,2026-07-11T20:26:43.692+07:00,837091604940523743,-342538,-374577,-391282,-472970
1783776403710325938,2026-07-11T20:26:43.710+07:00,837091604940523743,-342587,-374616,-391277,-472935
1783776403728507756,2026-07-11T20:26:43.728+07:00,837091604940523743,-342615,-374556,-391263,-472939
1783776403746689574,2026-07-11T20:26:43.746+07:00,837091604940523743,-342596,-374627,-391230,-472920
1783776403764871392,2026-07-11T20:26:43.764+07:00,837091604940523743,-342659,-374654,-391284,-472981
1783776403783053210,2026-07-11T20:26:43.783+07:00,837091604940523743,-342631,-374641,-391297,-472952
1783776403801235028,2026-07-11T20:26:43.801+07:00,837091604940523743,-342587,-374636,-391336,-472971
1783776403819416846,2026-07-11T20:26:43.819+07:00,837091604940523743,-342638,-374648,-391341,-472927
1783776403837598664,2026-07-11T20:26:43.837+07:00,837091604940523743,-342640,-374695,-391353,-472999
1783776403855780482,2026-07-11T20:26:43.855+07:00,837091604940523743,-342638,-374688,-391316,-472973
1783776403873962300,2026-07-11T20:26:43.873+07:00,837091604940523743,-342604,-374702,-391346,-472997
1783776403892144118,2026-07-11T20:26:43.892+07:00,837091604940523743,-342657,-374685,-391333,-472984
1783776403910325936,2026-07-11T20:26:43.910+07:00,837091604940523743,-342591,-374676,-391348,-473018
1783776403928507754,2026-07-11T20:26:43.928+07:00,837091604940523743,-342539,-374661,-391316,-472985
1783776403946689572,2026-07-11T20:26:43.946+07:00,837091604940523743,-342544,-374628,-391277,-472890
1783776403964871390,2026-07-11T20:26:43.964+07:00,837091604940523743,-342611,-374729,-391342,-472978
1783776403983053208,2026-07-11T20:26:43.983+07:00,837091604940523743,-342689,-374705,-391358,-472941
1783776404001235026,2026-07-11T20:26:44.001+07:00,837091604940523743,-342786,-374757,-391472,-472941
1783776404019416844,2026-07-11T20:26:44.019+07:00,837091604940523743,-342882,-374904,-391567,-472942
1783776404037598662,2026-07-11T20:26:44.037+07:00,837091604940523743,-342993,-374929,-391649,-472916
1783776404055780480,2026-07-11T20:26:44.055+07:00,837091604940523743,-343068,-375039,-391703,-472954
1783776404073962298,2026-07-11T20:26:44.073+07:00,837091604940523743,-343196,-375074,-391729,-472958
1783776404092144116,2026-07-11T20:26:44.092+07:00,837091604940523743,-343260,-375080,-391759,-472938
1783776404110325934,2026-07-11T20:26:44.110+07:00,837091604940523743,-343334,-375170,-391887,-472987
1783776404128507752,2026-07-11T20:26:44.128+07:00,837091604940523743,-343372,-375193,-391841,-472954
1783776404146689570,2026-07-11T20:26:44.146+07:00,837091604940523743,-343352,-375165,-391846,-472919
1783776404164871388,2026-07-11T20:26:44.164+07:00,837091604940523743,-343406,-375187,-391856,-472936
1783776404183053206,2026-07-11T20:26:44.183+07:00,837091604940523743,-343374,-375213,-391887,-472947
1783776404201235024,2026-07-11T20:26:44.201+07:00,837091604940523743,-343390,-375194,-391854,-472936
1783776404219416842,2026-07-11T20:26:44.219+07:00,837091604940523743,-343462,-375186,-391831,-472972
1783776404237598660,2026-07-11T20:26:44.237+07:00,837091604940523743,-343455,-375247,-391887,-472999
1783776404255780478,2026-07-11T20:26:44.255+07:00,837091605814092339,-343427,-375255,-391837,-472945
1783776404273962296,2026-07-11T20:26:44.273+07:00,837091605814092339,-343439,-375227,-391866,-472931
1783776404292144114,2026-07-11T20:26:44.292+07:00,837091605814092339,-343426,-375247,-391884,-473002
1783776404310325932,2026-07-11T20:26:44.310+07:00,837091605814092339,-343471,-375297,-391885,-472963
1783776404328507750,2026-07-11T20:26:44.328+07:00,837091605814092339,-343535,-375297,-391894,-473019
1783776404346689568,2026-07-11T20:26:44.346+07:00,837091605814092339,-343530,-375271,-391892,-472972
1783776404364871386,2026-07-11T20:26:44.364+07:00,837091605814092339,-343473,-375293,-391916,-472932
1783776404383053204,2026-07-11T20:26:44.383+07:00,837091605814092339,-343482,-375269,-391875,-472948
1783776404401235022,2026-07-11T20:26:44.401+07:00,837091605814092339,-343496,-375275,-391902,-472936
1783776404419416840,2026-07-11T20:26:44.419+07:00,837091605814092339,-343477,-375264,-391874,-472937
1783776404437598658,2026-07-11T20:26:44.437+07:00,837091605814092339,-343455,-375239,-391881,-472939
1783776404455780476,2026-07-11T20:26:44.455+07:00,837091605814092339,-343437,-375258,-391874,-472955
1783776404473962294,2026-07-11T20:26:44.473+07:00,837091605814092339,-343502,-375352,-391847,-472993
1783776404492144112,2026-07-11T20:26:44.492+07:00,837091605814092339,-343386,-375263,-391846,-472949
1783776404510325930,2026-07-11T20:26:44.510+07:00,837091605814092339,-343406,-375282,-391848,-472945
1783776404528507748,2026-07-11T20:26:44.528+07:00,837091605814092339,-343371,-375226,-391775,-472928
1783776404546689566,2026-07-11T20:26:44.546+07:00,837091605814092339,-343334,-375212,-391797,-472949
1783776404564871384,2026-07-11T20:26:44.564+07:00,837091605814092339,-343287,-375174,-391780,-472883
1783776404583053202,2026-07-11T20:26:44.583+07:00,837091605814092339,-343362,-375194,-391792,-472964
1783776404601235020,2026-07-11T20:26:44.601+07:00,837091605814092339,-343393,-375265,-391873,-472971
1783776404619416838,2026-07-11T20:26:44.619+07:00,837091605814092339,-343479,-375303,-391926,-472999
1783776404637598656,2026-07-11T20:26:44.637+07:00,837091605814092339,-343580,-375360,-391949,-472969
1783776404655780474,2026-07-11T20:26:44.655+07:00,837091605814092339,-343688,-375444,-392106,-473013
1783776404673962292,2026-07-11T20:26:44.673+07:00,837091605814092339,-343789,-375554,-392114,-473002
1783776404692144110,2026-07-11T20:26:44.692+07:00,837091605814092339,-343814,-375543,-392108,-473004
1783776404710325928,2026-07-11T20:26:44.710+07:00,837091605814092339,-343838,-375576,-392105,-472944
1783776404728507746,2026-07-11T20:26:44.728+07:00,837091605814092339,-343943,-375595,-392168,-473035
1783776404746689564,2026-07-11T20:26:44.746+07:00,837091605814092339,-343912,-375601,-392151,-472984
1783776404764871382,2026-07-11T20:26:44.764+07:00,837091605814092339,-343836,-375548,-392118,-472954
1783776404783053200,2026-07-11T20:26:44.783+07:00,837091605814092339,-343889,-375607,-392112,-473000
1783776404801235018,2026-07-11T20:26:44.801+07:00,837091605814092339,-343868,-375529,-392069,-472983
1783776404819416836,2026-07-11T20:26:44.819+07:00,837091605814092339,-343890,-375603,-392085,-472995
1783776404837598654,2026-07-11T20:26:44.837+07:00,837091605814092339,-343840,-375600,-392090,-472941
1783776404855780472,2026-07-11T20:26:44.855+07:00,837091605814092339,-343827,-375572,-392114,-472956
1783776404873962290,2026-07-11T20:26:44.873+07:00,837091605814092339,-343839,-375601,-392072,-472924
1783776404892144108,2026-07-11T20:26:44.892+07:00,837091605814092339,-343774,-375526,-392051,-472915
1783776404910325926,2026-07-11T20:26:44.910+07:00,837091605814092339,-343797,-375507,-392004,-472975
1783776404928507744,2026-07-11T20:26:44.928+07:00,837091605814092339,-343809,-375499,-392026,-472919
1783776404946689562,2026-07-11T20:26:44.946+07:00,837091605814092339,-343763,-375501,-391976,-472909
1783776404964871380,2026-07-11T20:26:44.964+07:00,837091605814092339,-343816,-375533,-392059,-472953
1783776404983053198,2026-07-11T20:26:44.983+07:00,837091605814092339,-343773,-375554,-392032,-472982
1783776405001235016,2026-07-11T20:26:45.001+07:00,837091605814092339,-343706,-375495,-391999,-472979
1783776405019416834,2026-07-11T20:26:45.019+07:00,837091605814092339,-343732,-375510,-391943,-472965
1783776405037598652,2026-07-11T20:26:45.037+07:00,837091605814092339,-343689,-375480,-391884,-473003
1783776405055780470,2026-07-11T20:26:45.055+07:00,837091605814092339,-343688,-375498,-391936,-472996
1783776405073962288,2026-07-11T20:26:45.073+07:00,837091605814092339,-343653,-375434,-391905,-472886
1783776405092144106,2026-07-11T20:26:45.092+07:00,837091605814092339,-343667,-375494,-391929,-472929
1783776405110325924,2026-07-11T20:26:45.110+07:00,837091605814092339,-343609,-375380,-391866,-472952
1783776405128507742,2026-07-11T20:26:45.128+07:00,837091606614768689,-343581,-375386,-391870,-472942
1783776405146689560,2026-07-11T20:26:45.146+07:00,837091606614768689,-343522,-375339,-391851,-472946
1783776405164871378,2026-07-11T20:26:45.164+07:00,837091606614768689,-343459,-375283,-391765,-472973
1783776405183053196,2026-07-11T20:26:45.183+07:00,837091606614768689,-343490,-375379,-391767,-472995
1783776405201235014,2026-07-11T20:26:45.201+07:00,837091606614768689,-343451,-375345,-391841,-472994
1783776405219416832,2026-07-11T20:26:45.219+07:00,837091606614768689,-343519,-375348,-391821,-472980
1783776405237598650,2026-07-11T20:26:45.237+07:00,837091606614768689,-343534,-375343,-391841,-472983
1783776405255780468,2026-07-11T20:26:45.255+07:00,837091606614768689,-343665,-375449,-391969,-472985
1783776405273962286,2026-07-11T20:26:45.273+07:00,837091606614768689,-343751,-375489,-392014,-472947
1783776405292144104,2026-07-11T20:26:45.292+07:00,837091606614768689,-343785,-375505,-391999,-472995
1783776405310325922,2026-07-11T20:26:45.310+07:00,837091606614768689,-343802,-375600,-392044,-472955
1783776405328507740,2026-07-11T20:26:45.328+07:00,837091606614768689,-343914,-375546,-392123,-472976
1783776405346689558,2026-07-11T20:26:45.346+07:00,837091606614768689,-343916,-375571,-392049,-472967
1783776405364871376,2026-07-11T20:26:45.364+07:00,837091606614768689,-343924,-375593,-392053,-472976
1783776405383053194,2026-07-11T20:26:45.383+07:00,837091606614768689,-343910,-375574,-392007,-472971
1783776405401235012,2026-07-11T20:26:45.401+07:00,837091606614768689,-343852,-375520,-391969,-472922
1783776405419416830,2026-07-11T20:26:45.419+07:00,837091606614768689,-343888,-375573,-392034,-473000
1783776405437598648,2026-07-11T20:26:45.437+07:00,837091606614768689,-343851,-375520,-391980,-472989
1783776405455780466,2026-07-11T20:26:45.455+07:00,837091606614768689,-343852,-375529,-391967,-472989
1783776405473962284,2026-07-11T20:26:45.473+07:00,837091606614768689,-343840,-375529,-391986,-473006
1783776405492144102,2026-07-11T20:26:45.492+07:00,837091606614768689,-343869,-375477,-391996,-472993
1783776405510325920,2026-07-11T20:26:45.510+07:00,837091606614768689,-343866,-375484,-391981,-472998
1783776405528507738,2026-07-11T20:26:45.528+07:00,837091606614768689,-343878,-375536,-391966,-472949
1783776405546689556,2026-07-11T20:26:45.546+07:00,837091606614768689,-343843,-375485,-391947,-472959
1783776405564871374,2026-07-11T20:26:45.564+07:00,837091606614768689,-343797,-375429,-391911,-472970
1783776405583053192,2026-07-11T20:26:45.583+07:00,837091606614768689,-343810,-375471,-391909,-472992
1783776405601235010,2026-07-11T20:26:45.601+07:00,837091606614768689,-343766,-375449,-391872,-472946
1783776405619416828,2026-07-11T20:26:45.619+07:00,837091606614768689,-343729,-375386,-391895,-472975
1783776405637598646,2026-07-11T20:26:45.637+07:00,837091606614768689,-343695,-375367,-391864,-472995
1783776405655780464,2026-07-11T20:26:45.655+07:00,837091606614768689,-343647,-375396,-391870,-472956
1783776405673962282,2026-07-11T20:26:45.673+07:00,837091606614768689,-343669,-375406,-391855,-472970
1783776405692144100,2026-07-11T20:26:45.692+07:00,837091606614768689,-343613,-375253,-391780,-472945
1783776405710325918,2026-07-11T20:26:45.710+07:00,837091606614768689,-343645,-375327,-391773,-472963
1783776405728507736,2026-07-11T20:26:45.728+07:00,837091606614768689,-343552,-375262,-391732,-472954
1783776405746689554,2026-07-11T20:26:45.746+07:00,837091606614768689,-343485,-375285,-391741,-472980
1783776405764871372,2026-07-11T20:26:45.764+07:00,837091606614768689,-343456,-375232,-391718,-473027
1783776405783053190,2026-07-11T20:26:45.783+07:00,837091606614768689,-343472,-375174,-391611,-472949
1783776405801235008,2026-07-11T20:26:45.801+07:00,837091606614768689,-343409,-375127,-391596,-473031
1783776405819416826,2026-07-11T20:26:45.819+07:00,837091606614768689,-343330,-375097,-391594,-472997
1783776405837598644,2026-07-11T20:26:45.837+07:00,837091606614768689,-343281,-375070,-391600,-472941
1783776405855780462,2026-07-11T20:26:45.855+07:00,837091606614768689,-343293,-375115,-391508,-472982
1783776405873962280,2026-07-11T20:26:45.873+07:00,837091606614768689,-343280,-375037,-391489,-472888
1783776405892144098,2026-07-11T20:26:45.892+07:00,837091606614768689,-343221,-375017,-391526,-472893
1783776405910325916,2026-07-11T20:26:45.910+07:00,837091606614768689,-343294,-375135,-391585,-472973
1783776405928507734,2026-07-11T20:26:45.928+07:00,837091607470069206,-343280,-375156,-391634,-472938
1783776405946689552,2026-07-11T20:26:45.946+07:00,837091607470069206,-343445,-375171,-391708,-472972
1783776405964871370,2026-07-11T20:26:45.964+07:00,837091607470069206,-343499,-375235,-391765,-473000
1783776405983053188,2026-07-11T20:26:45.983+07:00,837091607470069206,-343489,-375199,-391810,-472905
1783776406001235006,2026-07-11T20:26:46.001+07:00,837091607470069206,-343581,-375329,-391867,-473039
1783776406019416824,2026-07-11T20:26:46.019+07:00,837091607470069206,-343578,-375289,-391793,-472995
1783776406037598642,2026-07-11T20:26:46.037+07:00,837091607470069206,-343641,-375312,-391888,-473001
1783776406055780460,2026-07-11T20:26:46.055+07:00,837091607470069206,-343578,-375314,-391800,-472942
1783776406073962278,2026-07-11T20:26:46.073+07:00,837091607470069206,-343571,-375297,-391806,-472944
1783776406092144096,2026-07-11T20:26:46.092+07:00,837091607470069206,-343551,-375242,-391786,-472992
1783776406110325914,2026-07-11T20:26:46.110+07:00,837091607470069206,-343564,-375258,-391775,-472982
1783776406128507732,2026-07-11T20:26:46.128+07:00,837091607470069206,-343529,-375231,-391821,-473031
1783776406146689550,2026-07-11T20:26:46.146+07:00,837091607470069206,-343499,-375209,-391694,-472975
1783776406164871368,2026-07-11T20:26:46.164+07:00,837091607470069206,-343478,-375178,-391613,-472959
1783776406183053186,2026-07-11T20:26:46.183+07:00,837091607470069206,-343494,-375199,-391679,-472976
1783776406201235004,2026-07-11T20:26:46.201+07:00,837091607470069206,-343505,-375173,-391659,-472937
1783776406219416822,2026-07-11T20:26:46.219+07:00,837091607470069206,-343450,-375141,-391680,-473011
1783776406237598640,2026-07-11T20:26:46.237+07:00,837091607470069206,-343376,-375131,-391614,-472970
1783776406255780458,2026-07-11T20:26:46.255+07:00,837091607470069206,-343364,-375122,-391609,-472950
1783776406273962276,2026-07-11T20:26:46.273+07:00,837091607470069206,-343440,-375089,-391616,-472993
1783776406292144094,2026-07-11T20:26:46.292+07:00,837091607470069206,-343390,-375088,-391630,-472961
1783776406310325912,2026-07-11T20:26:46.310+07:00,837091607470069206,-343301,-375010,-391521,-472970
1783776406328507730,2026-07-11T20:26:46.328+07:00,837091607470069206,-343318,-375015,-391567,-472985
1783776406346689548,2026-07-11T20:26:46.346+07:00,837091607470069206,-343261,-374983,-391543,-472919
1783776406364871366,2026-07-11T20:26:46.364+07:00,837091607470069206,-343244,-374988,-391479,-472934
1783776406383053184,2026-07-11T20:26:46.383+07:00,837091607470069206,-343172,-374954,-391497,-472947
1783776406401235002,2026-07-11T20:26:46.401+07:00,837091607470069206,-343107,-374872,-391456,-472958
1783776406419416820,2026-07-11T20:26:46.419+07:00,837091607470069206,-343046,-374809,-391412,-472948
1783776406437598638,2026-07-11T20:26:46.437+07:00,837091607470069206,-343024,-374857,-391420,-472971
1783776406455780456,2026-07-11T20:26:46.455+07:00,837091607470069206,-343037,-374814,-391427,-472947
1783776406473962274,2026-07-11T20:26:46.473+07:00,837091607470069206,-343001,-374808,-391437,-472973
1783776406492144092,2026-07-11T20:26:46.492+07:00,837091607470069206,-342963,-374719,-391394,-472971
1783776406510325910,2026-07-11T20:26:46.510+07:00,837091607470069206,-342895,-374746,-391352,-472980
1783776406528507728,2026-07-11T20:26:46.528+07:00,837091607470069206,-342834,-374655,-391288,-472969
1783776406546689546,2026-07-11T20:26:46.546+07:00,837091607470069206,-342808,-374730,-391222,-472978
1783776406564871364,2026-07-11T20:26:46.564+07:00,837091607470069206,-342727,-374696,-391202,-472905
1783776406583053182,2026-07-11T20:26:46.583+07:00,837091607470069206,-342728,-374647,-391237,-472955
1783776406601235000,2026-07-11T20:26:46.601+07:00,837091607470069206,-342830,-374665,-391260,-472979
1783776406619416818,2026-07-11T20:26:46.619+07:00,837091607470069206,-342868,-374663,-391303,-472993
1783776406637598636,2026-07-11T20:26:46.637+07:00,837091607470069206,-342831,-374696,-391331,-472966
1783776406655780454,2026-07-11T20:26:46.655+07:00,837091607470069206,-342908,-374690,-391329,-472901
1783776406673962272,2026-07-11T20:26:46.673+07:00,837091607470069206,-342981,-374795,-391505,-473014
1783776406692144090,2026-07-11T20:26:46.692+07:00,837091607470069206,-342955,-374709,-391446,-472960
1783776406710325908,2026-07-11T20:26:46.710+07:00,837091607470069206,-343022,-374771,-391452,-472950
1783776406728507726,2026-07-11T20:26:46.728+07:00,837091607470069206,-342997,-374801,-391418,-472917
1783776406746689544,2026-07-11T20:26:46.746+07:00,837091607470069206,-342991,-374714,-391402,-472924
1783776406764871362,2026-07-11T20:26:46.764+07:00,837091607470069206,-342946,-374702,-391403,-472970
1783776406783053180,2026-07-11T20:26:46.783+07:00,837091608343567614,-342928,-374674,-391383,-472952
1783776406801234998,2026-07-11T20:26:46.801+07:00,837091608343567614,-342928,-374621,-391344,-472900
1783776406819416816,2026-07-11T20:26:46.819+07:00,837091608343567614,-342828,-374598,-391337,-472926
1783776406837598634,2026-07-11T20:26:46.837+07:00,837091608343567614,-342871,-374597,-391323,-472963
1783776406855780452,2026-07-11T20:26:46.855+07:00,837091608343567614,-342758,-374601,-391265,-472959
1783776406873962270,2026-07-11T20:26:46.873+07:00,837091608343567614,-342797,-374508,-391306,-472968
1783776406892144088,2026-07-11T20:26:46.892+07:00,837091608343567614,-342696,-374486,-391257,-472907
1783776406910325906,2026-07-11T20:26:46.910+07:00,837091608343567614,-342724,-374515,-391271,-472926
1783776406928507724,2026-07-11T20:26:46.928+07:00,837091608343567614,-342728,-374524,-391283,-472960
1783776406946689542,2026-07-11T20:26:46.946+07:00,837091608343567614,-342694,-374498,-391274,-472975
1783776406964871360,2026-07-11T20:26:46.964+07:00,837091608343567614,-342757,-374500,-391263,-472958
1783776406983053178,2026-07-11T20:26:46.983+07:00,837091608343567614,-342701,-374501,-391256,-472992
1783776407001234996,2026-07-11T20:26:47.001+07:00,837091608343567614,-342643,-374408,-391260,-472977
1783776407019416814,2026-07-11T20:26:47.019+07:00,837091608343567614,-342643,-374411,-391226,-472947
1783776407037598632,2026-07-11T20:26:47.037+07:00,837091608343567614,-342501,-374394,-391178,-472882
1783776407055780450,2026-07-11T20:26:47.055+07:00,837091608343567614,-342502,-374388,-391165,-472898
1783776407073962268,2026-07-11T20:26:47.073+07:00,837091608343567614,-342406,-374329,-391113,-472950
1783776407092144086,2026-07-11T20:26:47.092+07:00,837091608343567614,-342430,-374321,-391079,-472982
1783776407110325904,2026-07-11T20:26:47.110+07:00,837091608343567614,-342401,-374316,-391056,-472917
1783776407128507722,2026-07-11T20:26:47.128+07:00,837091608343567614,-342300,-374194,-391011,-472916
1783776407146689540,2026-07-11T20:26:47.146+07:00,837091608343567614,-342236,-374186,-390963,-472910
1783776407164871358,2026-07-11T20:26:47.164+07:00,837091608343567614,-342274,-374136,-390981,-472896
1783776407183053176,2026-07-11T20:26:47.183+07:00,837091608343567614,-342247,-374186,-390979,-472967
1783776407201234994,2026-07-11T20:26:47.201+07:00,837091608343567614,-342180,-374079,-390983,-472956
1783776407219416812,2026-07-11T20:26:47.219+07:00,837091608343567614,-342161,-374050,-390966,-472934
1783776407237598630,2026-07-11T20:26:47.237+07:00,837091608343567614,-342137,-374039,-390908,-472917
1783776407255780448,2026-07-11T20:26:47.255+07:00,837091608343567614,-342069,-374085,-390956,-472920
1783776407273962266,2026-07-11T20:26:47.273+07:00,837091608343567614,-342117,-374087,-390960,-472929
1783776407292144084,2026-07-11T20:26:47.292+07:00,837091608343567614,-342170,-374128,-391073,-472998
1783776407310325902,2026-07-11T20:26:47.310+07:00,837091608343567614,-342161,-374100,-391021,-472988
1783776407328507720,2026-07-11T20:26:47.328+07:00,837091608343567614,-342222,-374159,-391096,-472980
1783776407346689538,2026-07-11T20:26:47.346+07:00,837091608343567614,-342334,-374187,-391147,-472950
1783776407364871356,2026-07-11T20:26:47.364+07:00,837091608343567614,-342338,-374188,-391226,-472905
1783776407383053174,2026-07-11T20:26:47.383+07:00,837091608343567614,-342408,-374255,-391241,-472954
1783776407401234992,2026-07-11T20:26:47.401+07:00,837091608343567614,-342383,-374232,-391214,-472968
1783776407419416810,2026-07-11T20:26:47.419+07:00,837091608343567614,-342377,-374192,-391187,-472953
1783776407437598628,2026-07-11T20:26:47.437+07:00,837091608343567614,-342367,-374180,-391216,-472964
1783776407455780446,2026-07-11T20:26:47.455+07:00,837091608343567614,-342330,-374107,-391157,-472934
1783776407473962264,2026-07-11T20:26:47.473+07:00,837091608343567614,-342350,-374166,-391201,-472933
1783776407492144082,2026-07-11T20:26:47.492+07:00,837091608343567614,-342338,-374172,-391233,-472997
1783776407510325900,2026-07-11T20:26:47.510+07:00,837091608343567614,-342242,-374091,-391149,-472972
1783776407528507718,2026-07-11T20:26:47.528+07:00,837091608343567614,-342216,-374095,-391129,-473001
1783776407546689536,2026-07-11T20:26:47.546+07:00,837091608343567614,-342189,-374073,-391133,-472967
1783776407564871354,2026-07-11T20:26:47.564+07:00,837091608343567614,-342216,-374077,-391171,-472939
1783776407583053172,2026-07-11T20:26:47.583+07:00,837091608343567614,-342193,-374061,-391201,-472964
1783776407601234990,2026-07-11T20:26:47.601+07:00,837091608343567614,-342080,-373983,-391123,-472927
1783776407619416808,2026-07-11T20:26:47.619+07:00,837091608343567614,-342123,-374024,-391214,-472971
1783776407637598626,2026-07-11T20:26:47.637+07:00,837091608343567614,-342109,-374005,-391124,-472990
1783776407655780444,2026-07-11T20:26:47.655+07:00,837091609253483144,-342084,-373952,-391103,-472959
1783776407673962262,2026-07-11T20:26:47.673+07:00,837091609253483144,-342046,-374025,-391162,-472981
1783776407692144080,2026-07-11T20:26:47.692+07:00,837091609253483144,-342059,-374009,-391156,-472959
1783776407710325898,2026-07-11T20:26:47.710+07:00,837091609253483144,-342022,-373973,-391101,-472998
1783776407728507716,2026-07-11T20:26:47.728+07:00,837091609253483144,-341982,-373965,-391131,-472903
1783776407746689534,2026-07-11T20:26:47.746+07:00,837091609253483144,-341962,-373947,-391114,-472975
1783776407764871352,2026-07-11T20:26:47.764+07:00,837091609253483144,-341971,-373880,-391085,-472932
1783776407783053170,2026-07-11T20:26:47.783+07:00,837091609253483144,-341904,-373870,-391011,-472946
1783776407801234988,2026-07-11T20:26:47.801+07:00,837091609253483144,-341952,-373913,-391107,-473021
1783776407819416806,2026-07-11T20:26:47.819+07:00,837091609253483144,-341867,-373829,-391022,-472965
1783776407837598624,2026-07-11T20:26:47.837+07:00,837091609253483144,-341836,-373794,-391019,-472997
1783776407855780442,2026-07-11T20:26:47.855+07:00,837091609253483144,-341795,-373747,-390998,-472975
1783776407873962260,2026-07-11T20:26:47.873+07:00,837091609253483144,-341755,-373699,-390965,-472960
1783776407892144078,2026-07-11T20:26:47.892+07:00,837091609253483144,-341737,-373701,-390919,-472989
1783776407910325896,2026-07-11T20:26:47.910+07:00,837091609253483144,-341708,-373717,-390943,-473001
1783776407928507714,2026-07-11T20:26:47.928+07:00,837091609253483144,-341672,-373622,-390909,-472947
1783776407946689532,2026-07-11T20:26:47.946+07:00,837091609253483144,-341693,-373681,-390978,-472961
1783776407964871350,2026-07-11T20:26:47.964+07:00,837091609253483144,-341720,-373730,-391012,-472983
1783776407983053168,2026-07-11T20:26:47.983+07:00,837091609253483144,-341822,-373796,-391129,-473044
1783776408001234986,2026-07-11T20:26:48.001+07:00,837091609253483144,-341856,-373755,-391167,-472971
1783776408019416804,2026-07-11T20:26:48.019+07:00,837091609253483144,-341920,-373835,-391198,-472956
1783776408037598622,2026-07-11T20:26:48.037+07:00,837091609253483144,-341925,-373849,-391230,-472939
1783776408055780440,2026-07-11T20:26:48.055+07:00,837091609253483144,-341958,-373842,-391231,-472905
1783776408073962258,2026-07-11T20:26:48.073+07:00,837091609253483144,-342023,-373864,-391255,-472956
1783776408092144076,2026-07-11T20:26:48.092+07:00,837091609253483144,-342043,-373866,-391253,-472941
1783776408110325894,2026-07-11T20:26:48.110+07:00,837091609253483144,-341993,-373867,-391344,-472948
1783776408128507712,2026-07-11T20:26:48.128+07:00,837091609253483144,-341988,-373917,-391312,-472953
1783776408146689530,2026-07-11T20:26:48.146+07:00,837091609253483144,-341952,-373895,-391305,-472949
1783776408164871348,2026-07-11T20:26:48.164+07:00,837091609253483144,-341952,-373791,-391286,-472971
1783776408183053166,2026-07-11T20:26:48.183+07:00,837091609253483144,-341999,-373849,-391277,-472998
1783776408201234984,2026-07-11T20:26:48.201+07:00,837091609253483144,-341938,-373804,-391243,-472972
1783776408219416802,2026-07-11T20:26:48.219+07:00,837091609253483144,-341845,-373762,-391240,-472942
1783776408237598620,2026-07-11T20:26:48.237+07:00,837091609253483144,-341921,-373757,-391249,-472930
1783776408255780438,2026-07-11T20:26:48.255+07:00,837091609253483144,-341931,-373827,-391288,-472947
1783776408273962256,2026-07-11T20:26:48.273+07:00,837091609253483144,-341870,-373751,-391220,-472952
1783776408292144074,2026-07-11T20:26:48.292+07:00,837091609253483144,-341904,-373741,-391226,-472981
1783776408310325892,2026-07-11T20:26:48.310+07:00,837091609253483144,-341939,-373789,-391196,-472981
1783776408328507710,2026-07-11T20:26:48.328+07:00,837091609253483144,-341817,-373676,-391166,-472930
1783776408346689528,2026-07-11T20:26:48.346+07:00,837091609253483144,-341838,-373672,-391208,-472949
1783776408364871346,2026-07-11T20:26:48.364+07:00,837091609253483144,-341823,-373689,-391185,-472956
1783776408383053164,2026-07-11T20:26:48.383+07:00,837091609253483144,-341806,-373648,-391178,-472976
1783776408401234982,2026-07-11T20:26:48.401+07:00,837091609253483144,-341713,-373607,-391146,-472932
1783776408419416800,2026-07-11T20:26:48.419+07:00,837091609253483144,-341711,-373590,-391164,-472963
1783776408437598618,2026-07-11T20:26:48.437+07:00,837091609253483144,-341686,-373593,-391119,-472926
1783776408455780436,2026-07-11T20:26:48.455+07:00,837091609253483144,-341702,-373577,-391139,-472967
1783776408473962254,2026-07-11T20:26:48.473+07:00,837091609253483144,-341683,-373640,-391150,-472987
1783776408492144072,2026-07-11T20:26:48.492+07:00,837091609253483144,-341589,-373537,-391131,-472958
1783776408510325890,2026-07-11T20:26:48.510+07:00,837091609253483144,-341622,-373520,-391130,-472965
1783776408528507708,2026-07-11T20:26:48.528+07:00,837091609253483144,-341572,-373514,-391081,-473004
1783776408546689526,2026-07-11T20:26:48.546+07:00,837091609253483144,-341540,-373444,-391053,-472971
1783776408564871344,2026-07-11T20:26:48.564+07:00,837091610090503386,-341461,-373432,-391024,-472911
1783776408583053162,2026-07-11T20:26:48.583+07:00,837091610090503386,-341533,-373436,-391065,-472952
1783776408601234980,2026-07-11T20:26:48.601+07:00,837091610090503386,-341547,-373493,-391067,-472949
1783776408619416798,2026-07-11T20:26:48.619+07:00,837091610090503386,-341699,-373567,-391171,-472980
1783776408637598616,2026-07-11T20:26:48.637+07:00,837091610090503386,-341724,-373574,-391250,-472927
1783776408655780434,2026-07-11T20:26:48.655+07:00,837091610090503386,-341791,-373605,-391361,-472927
1783776408673962252,2026-07-11T20:26:48.673+07:00,837091610090503386,-341822,-373641,-391429,-472965
1783776408692144070,2026-07-11T20:26:48.692+07:00,837091610090503386,-341868,-373671,-391433,-472911
1783776408710325888,2026-07-11T20:26:48.710+07:00,837091610090503386,-341858,-373667,-391396,-472930
1783776408728507706,2026-07-11T20:26:48.728+07:00,837091610090503386,-341941,-373744,-391412,-472975
1783776408746689524,2026-07-11T20:26:48.746+07:00,837091610090503386,-341974,-373743,-391470,-472967
1783776408764871342,2026-07-11T20:26:48.764+07:00,837091610090503386,-341973,-373708,-391418,-472933
1783776408783053160,2026-07-11T20:26:48.783+07:00,837091610090503386,-342022,-373744,-391482,-472999
1783776408801234978,2026-07-11T20:26:48.801+07:00,837091610090503386,-341988,-373752,-391426,-472960
1783776408819416796,2026-07-11T20:26:48.819+07:00,837091610090503386,-341928,-373793,-391447,-472979
1783776408837598614,2026-07-11T20:26:48.837+07:00,837091610090503386,-341931,-373745,-391353,-472939
1783776408855780432,2026-07-11T20:26:48.855+07:00,837091610090503386,-341939,-373711,-391420,-472969
1783776408873962250,2026-07-11T20:26:48.873+07:00,837091610090503386,-341886,-373728,-391435,-472951
1783776408892144068,2026-07-11T20:26:48.892+07:00,837091610090503386,-341838,-373682,-391388,-472962
1783776408910325886,2026-07-11T20:26:48.910+07:00,837091610090503386,-341850,-373701,-391459,-472960
1783776408928507704,2026-07-11T20:26:48.928+07:00,837091610090503386,-341877,-373692,-391436,-472971
1783776408946689522,2026-07-11T20:26:48.946+07:00,837091610090503386,-341861,-373629,-391439,-472987
1783776408964871340,2026-07-11T20:26:48.964+07:00,837091610090503386,-341855,-373660,-391410,-473014
1783776408983053158,2026-07-11T20:26:48.983+07:00,837091610090503386,-341807,-373668,-391419,-473014
1783776409001234976,2026-07-11T20:26:49.001+07:00,837091610090503386,-341789,-373621,-391391,-473007
1783776409019416794,2026-07-11T20:26:49.019+07:00,837091610090503386,-341710,-373540,-391304,-472915
1783776409037598612,2026-07-11T20:26:49.037+07:00,837091610090503386,-341730,-373600,-391363,-472948
1783776409055780430,2026-07-11T20:26:49.055+07:00,837091610090503386,-341701,-373574,-391349,-473035
1783776409073962248,2026-07-11T20:26:49.073+07:00,837091610090503386,-341654,-373509,-391275,-472988
1783776409092144066,2026-07-11T20:26:49.092+07:00,837091610090503386,-341625,-373540,-391272,-472922
1783776409110325884,2026-07-11T20:26:49.110+07:00,837091610090503386,-341629,-373550,-391280,-472942
1783776409128507702,2026-07-11T20:26:49.128+07:00,837091610090503386,-341622,-373505,-391288,-473012
1783776409146689520,2026-07-11T20:26:49.146+07:00,837091610090503386,-341616,-373509,-391265,-472986
1783776409164871338,2026-07-11T20:26:49.164+07:00,837091610090503386,-341574,-373482,-391198,-472947
1783776409183053156,2026-07-11T20:26:49.183+07:00,837091610090503386,-341547,-373435,-391202,-472912
1783776409201234974,2026-07-11T20:26:49.201+07:00,837091610090503386,-341577,-373449,-391238,-472966
1783776409219416792,2026-07-11T20:26:49.219+07:00,837091610090503386,-341488,-373438,-391205,-472950
1783776409237598610,2026-07-11T20:26:49.237+07:00,837091610090503386,-341548,-373513,-391315,-472920
1783776409255780428,2026-07-11T20:26:49.255+07:00,837091610090503386,-341662,-373527,-391369,-472935
1783776409273962246,2026-07-11T20:26:49.273+07:00,837091610090503386,-341845,-373635,-391495,-472967
1783776409292144064,2026-07-11T20:26:49.292+07:00,837091610090503386,-341928,-373680,-391558,-473003
1783776409310325882,2026-07-11T20:26:49.310+07:00,837091610090503386,-341996,-373804,-391645,-473013
1783776409328507700,2026-07-11T20:26:49.328+07:00,837091610090503386,-342073,-373793,-391708,-472954
1783776409346689518,2026-07-11T20:26:49.346+07:00,837091610090503386,-342124,-373782,-391772,-472997
1783776409364871336,2026-07-11T20:26:49.364+07:00,837091610090503386,-342200,-373846,-391787,-473005
1783776409383053154,2026-07-11T20:26:49.383+07:00,837091610090503386,-342252,-373815,-391771,-472950
1783776409401234972,2026-07-11T20:26:49.401+07:00,837091610873068829,-342264,-373912,-391828,-472966
1783776409419416790,2026-07-11T20:26:49.419+07:00,837091610873068829,-342277,-373899,-391813,-472956
1783776409437598608,2026-07-11T20:26:49.437+07:00,837091610873068829,-342261,-373846,-391796,-472954
1783776409455780426,2026-07-11T20:26:49.455+07:00,837091610873068829,-342316,-373898,-391832,-472982
1783776409473962244,2026-07-11T20:26:49.473+07:00,837091610873068829,-342282,-373940,-391881,-472941
1783776409492144062,2026-07-11T20:26:49.492+07:00,837091610873068829,-342301,-373952,-391915,-473007
1783776409510325880,2026-07-11T20:26:49.510+07:00,837091610873068829,-342272,-373989,-391812,-472968
1783776409528507698,2026-07-11T20:26:49.528+07:00,837091610873068829,-342301,-373938,-391841,-472992
1783776409546689516,2026-07-11T20:26:49.546+07:00,837091610873068829,-342393,-374002,-391911,-472952
1783776409564871334,2026-07-11T20:26:49.564+07:00,837091610873068829,-342444,-373940,-391915,-472962
1783776409583053152,2026-07-11T20:26:49.583+07:00,837091610873068829,-342478,-373968,-391937,-472934
1783776409601234970,2026-07-11T20:26:49.601+07:00,837091610873068829,-342499,-374037,-391973,-472961
1783776409619416788,2026-07-11T20:26:49.619+07:00,837091610873068829,-342451,-374075,-391993,-472916
1783776409637598606,2026-07-11T20:26:49.637+07:00,837091610873068829,-342591,-374197,-392010,-472970
1783776409655780424,2026-07-11T20:26:49.655+07:00,837091610873068829,-342661,-374210,-391940,-472981
1783776409673962242,2026-07-11T20:26:49.673+07:00,837091610873068829,-342609,-374155,-391923,-472961
1783776409692144060,2026-07-11T20:26:49.692+07:00,837091610873068829,-342622,-374244,-391933,-472978
1783776409710325878,2026-07-11T20:26:49.710+07:00,837091610873068829,-342612,-374274,-391869,-472982
1783776409728507696,2026-07-11T20:26:49.728+07:00,837091610873068829,-342663,-374270,-391883,-472965
1783776409746689514,2026-07-11T20:26:49.746+07:00,837091610873068829,-342739,-374327,-391942,-472986
1783776409764871332,2026-07-11T20:26:49.764+07:00,837091610873068829,-342765,-374289,-391959,-472972
1783776409783053150,2026-07-11T20:26:49.783+07:00,837091610873068829,-342712,-374373,-391986,-473015
1783776409801234968,2026-07-11T20:26:49.801+07:00,837091610873068829,-342699,-374277,-391869,-472994
1783776409819416786,2026-07-11T20:26:49.819+07:00,837091610873068829,-342643,-374367,-391899,-472949
1783776409837598604,2026-07-11T20:26:49.837+07:00,837091610873068829,-342715,-374378,-391918,-472934
1783776409855780422,2026-07-11T20:26:49.855+07:00,837091610873068829,-342871,-374462,-392023,-472963
1783776409873962240,2026-07-11T20:26:49.873+07:00,837091610873068829,-342964,-374446,-392075,-472958
1783776409892144058,2026-07-11T20:26:49.892+07:00,837091610873068829,-343089,-374535,-392179,-472986
1783776409910325876,2026-07-11T20:26:49.910+07:00,837091610873068829,-343161,-374593,-392338,-472969
1783776409928507694,2026-07-11T20:26:49.928+07:00,837091610873068829,-343243,-374624,-392462,-473015
1783776409946689512,2026-07-11T20:26:49.946+07:00,837091610873068829,-343116,-374658,-392470,-472959
1783776409964871330,2026-07-11T20:26:49.964+07:00,837091610873068829,-343089,-374668,-392540,-472936
1783776409983053148,2026-07-11T20:26:49.983+07:00,837091610873068829,-343120,-374604,-392497,-472960
1783776410001234966,2026-07-11T20:26:50.001+07:00,837091610873068829,-343038,-374538,-392544,-472999
1783776410019416784,2026-07-11T20:26:50.019+07:00,837091610873068829,-343021,-374389,-392410,-473004
1783776410037598602,2026-07-11T20:26:50.037+07:00,837091610873068829,-342970,-374144,-392241,-472970
1783776410055780420,2026-07-11T20:26:50.055+07:00,837091610873068829,-342893,-374007,-392147,-473029
1783776410073962238,2026-07-11T20:26:50.073+07:00,837091610873068829,-342940,-373897,-392073,-473015
1783776410092144056,2026-07-11T20:26:50.092+07:00,837091610873068829,-342983,-373800,-392034,-473047
1783776410110325874,2026-07-11T20:26:50.110+07:00,837091610873068829,-342999,-373637,-391844,-472998
1783776410128507692,2026-07-11T20:26:50.128+07:00,837091610873068829,-343220,-373567,-391809,-473041
1783776410146689510,2026-07-11T20:26:50.146+07:00,837091610873068829,-343395,-373499,-391794,-472937
1783776410164871328,2026-07-11T20:26:50.164+07:00,837091610873068829,-343490,-373480,-391716,-472959
1783776410183053146,2026-07-11T20:26:50.183+07:00,837091611637346361,-343634,-373573,-391656,-472985
1783776410201234964,2026-07-11T20:26:50.201+07:00,837091611637346361,-343736,-373578,-391645,-473010
1783776410219416782,2026-07-11T20:26:50.219+07:00,837091611637346361,-343751,-373589,-391536,-472953
1783776410237598600,2026-07-11T20:26:50.237+07:00,837091611637346361,-343799,-373642,-391527,-473007
1783776410255780418,2026-07-11T20:26:50.255+07:00,837091611637346361,-343895,-373580,-391396,-473019
1783776410273962236,2026-07-11T20:26:50.273+07:00,837091611637346361,-343959,-373588,-391351,-473047
1783776410292144054,2026-07-11T20:26:50.292+07:00,837091611637346361,-343986,-373547,-391212,-473036
1783776410310325872,2026-07-11T20:26:50.310+07:00,837091611637346361,-344060,-373508,-391144,-473109
1783776410328507690,2026-07-11T20:26:50.328+07:00,837091611637346361,-344007,-373457,-390993,-473061
1783776410346689508,2026-07-11T20:26:50.346+07:00,837091611637346361,-343974,-373357,-390781,-473017
1783776410364871326,2026-07-11T20:26:50.364+07:00,837091611637346361,-343938,-373274,-390718,-472982
1783776410383053144,2026-07-11T20:26:50.383+07:00,837091611637346361,-343961,-373181,-390673,-473044
1783776410401234962,2026-07-11T20:26:50.401+07:00,837091611637346361,-343842,-373008,-390556,-472999
1783776410419416780,2026-07-11T20:26:50.419+07:00,837091611637346361,-343655,-372857,-390559,-473005
1783776410437598598,2026-07-11T20:26:50.437+07:00,837091611637346361,-343578,-372844,-390559,-473053
1783776410455780416,2026-07-11T20:26:50.455+07:00,837091611637346361,-343445,-372745,-390496,-473055
1783776410473962234,2026-07-11T20:26:50.473+07:00,837091611637346361,-343396,-372691,-390493,-472970
1783776410492144052,2026-07-11T20:26:50.492+07:00,837091611637346361,-343454,-372705,-390601,-473024
1783776410510325870,2026-07-11T20:26:50.510+07:00,837091611637346361,-343398,-372716,-390720,-473002
1783776410528507688,2026-07-11T20:26:50.528+07:00,837091611637346361,-343432,-372790,-390819,-473027
1783776410546689506,2026-07-11T20:26:50.546+07:00,837091611637346361,-343345,-372900,-390922,-472930
1783776410564871324,2026-07-11T20:26:50.564+07:00,837091611637346361,-343389,-372974,-390991,-473003
1783776410583053142,2026-07-11T20:26:50.583+07:00,837091611637346361,-343258,-372950,-391013,-472987
1783776410601234960,2026-07-11T20:26:50.601+07:00,837091611637346361,-343264,-372973,-391114,-473013
1783776410619416778,2026-07-11T20:26:50.619+07:00,837091611637346361,-343253,-372976,-391107,-473023
1783776410637598596,2026-07-11T20:26:50.637+07:00,837091611637346361,-343196,-373071,-391147,-473045
1783776410655780414,2026-07-11T20:26:50.655+07:00,837091611637346361,-343066,-373045,-391055,-473011
1783776410673962232,2026-07-11T20:26:50.673+07:00,837091611637346361,-342984,-372982,-391107,-472975
1783776410692144050,2026-07-11T20:26:50.692+07:00,837091611637346361,-342919,-373106,-391114,-472958
1783776410710325868,2026-07-11T20:26:50.710+07:00,837091611637346361,-342820,-373008,-391149,-472988
1783776410728507686,2026-07-11T20:26:50.728+07:00,837091611637346361,-342829,-373053,-391129,-472977
1783776410746689504,2026-07-11T20:26:50.746+07:00,837091611637346361,-342898,-373081,-391179,-473088
1783776410764871322,2026-07-11T20:26:50.764+07:00,837091611637346361,-342849,-373029,-391128,-473021
1783776410783053140,2026-07-11T20:26:50.783+07:00,837091611637346361,-342875,-373110,-391163,-472987
1783776410801234958,2026-07-11T20:26:50.801+07:00,837091611637346361,-342896,-373087,-391098,-472982
1783776410819416776,2026-07-11T20:26:50.819+07:00,837091611637346361,-343034,-373145,-391148,-473018
1783776410837598594,2026-07-11T20:26:50.837+07:00,837091611637346361,-342983,-373176,-391148,-473012
1783776410855780412,2026-07-11T20:26:50.855+07:00,837091611637346361,-343016,-373201,-391126,-473014
1783776410873962230,2026-07-11T20:26:50.873+07:00,837091611637346361,-343047,-373144,-391081,-472992
1783776410892144048,2026-07-11T20:26:50.892+07:00,837091611637346361,-343107,-373116,-391039,-472987
1783776410910325866,2026-07-11T20:26:50.910+07:00,837091611637346361,-343202,-373171,-391077,-473016
1783776410928507684,2026-07-11T20:26:50.928+07:00,837091611637346361,-343151,-373083,-391030,-472947
1783776410946689502,2026-07-11T20:26:50.946+07:00,837091612401706293,-343286,-373168,-391119,-472975
1783776410964871320,2026-07-11T20:26:50.964+07:00,837091612401706293,-343260,-373197,-391102,-473002
1783776410983053138,2026-07-11T20:26:50.983+07:00,837091612401706293,-343320,-373228,-391071,-473017
1783776411001234956,2026-07-11T20:26:51.001+07:00,837091612401706293,-343355,-373205,-391001,-473013
1783776411019416774,2026-07-11T20:26:51.019+07:00,837091612401706293,-343297,-373240,-391018,-472969
1783776411037598592,2026-07-11T20:26:51.037+07:00,837091612401706293,-343388,-373309,-391032,-472978
1783776411055780410,2026-07-11T20:26:51.055+07:00,837091612401706293,-343434,-373344,-391078,-472982
1783776411073962228,2026-07-11T20:26:51.073+07:00,837091612401706293,-343539,-373439,-391141,-472997
1783776411092144046,2026-07-11T20:26:51.092+07:00,837091612401706293,-343735,-373548,-391285,-473031
1783776411110325864,2026-07-11T20:26:51.110+07:00,837091612401706293,-343844,-373700,-391310,-473006
1783776411128507682,2026-07-11T20:26:51.128+07:00,837091612401706293,-344023,-373813,-391385,-472997
1783776411146689500,2026-07-11T20:26:51.146+07:00,837091612401706293,-344223,-374002,-391531,-472997
1783776411164871318,2026-07-11T20:26:51.164+07:00,837091612401706293,-344418,-374096,-391591,-473024
1783776411183053136,2026-07-11T20:26:51.183+07:00,837091612401706293,-344525,-374117,-391659,-473009
1783776411201234954,2026-07-11T20:26:51.201+07:00,837091612401706293,-344646,-374255,-391646,-473000
1783776411219416772,2026-07-11T20:26:51.219+07:00,837091612401706293,-344665,-374327,-391673,-472970
1783776411237598590,2026-07-11T20:26:51.237+07:00,837091612401706293,-344805,-374415,-391745,-472986
1783776411255780408,2026-07-11T20:26:51.255+07:00,837091612401706293,-344885,-374503,-391822,-473036
1783776411273962226,2026-07-11T20:26:51.273+07:00,837091612401706293,-344906,-374525,-391782,-472977
1783776411292144044,2026-07-11T20:26:51.292+07:00,837091612401706293,-344906,-374569,-391827,-472947
1783776411310325862,2026-07-11T20:26:51.310+07:00,837091612401706293,-344866,-374595,-391836,-472977
1783776411328507680,2026-07-11T20:26:51.328+07:00,837091612401706293,-344996,-374634,-391848,-473036
1783776411346689498,2026-07-11T20:26:51.346+07:00,837091612401706293,-345008,-374594,-391904,-473021
1783776411364871316,2026-07-11T20:26:51.364+07:00,837091612401706293,-345008,-374678,-391911,-473036
1783776411383053134,2026-07-11T20:26:51.383+07:00,837091612401706293,-345001,-374717,-391915,-472982
1783776411401234952,2026-07-11T20:26:51.401+07:00,837091612401706293,-344952,-374739,-391971,-472971
1783776411419416770,2026-07-11T20:26:51.419+07:00,837091612401706293,-344982,-374757,-391959,-473020
1783776411437598588,2026-07-11T20:26:51.437+07:00,837091612401706293,-344986,-374836,-392040,-473014
1783776411455780406,2026-07-11T20:26:51.455+07:00,837091612401706293,-344969,-374856,-391989,-472983
1783776411473962224,2026-07-11T20:26:51.473+07:00,837091612401706293,-344952,-374810,-392010,-472971
1783776411492144042,2026-07-11T20:26:51.492+07:00,837091612401706293,-344940,-374847,-391967,-472973
1783776411510325860,2026-07-11T20:26:51.510+07:00,837091612401706293,-344845,-374862,-391963,-472950
1783776411528507678,2026-07-11T20:26:51.528+07:00,837091612401706293,-344905,-374868,-391972,-472992
1783776411546689496,2026-07-11T20:26:51.546+07:00,837091612401706293,-344909,-374959,-392004,-472953
1783776411564871314,2026-07-11T20:26:51.564+07:00,837091612401706293,-344935,-374965,-392051,-473029
1783776411583053132,2026-07-11T20:26:51.583+07:00,837091612401706293,-344879,-374970,-392027,-473001
1783776411601234950,2026-07-11T20:26:51.601+07:00,837091612401706293,-344882,-374922,-391946,-472956
1783776411619416768,2026-07-11T20:26:51.619+07:00,837091612401706293,-344889,-374958,-391950,-472976
1783776411637598586,2026-07-11T20:26:51.637+07:00,837091612401706293,-344865,-374979,-391989,-472961
1783776411655780404,2026-07-11T20:26:51.655+07:00,837091612401706293,-344918,-374971,-392000,-472975
1783776411673962222,2026-07-11T20:26:51.673+07:00,837091612401706293,-344934,-375029,-392017,-472969
1783776411692144040,2026-07-11T20:26:51.692+07:00,837091612401706293,-345050,-375097,-392066,-472941
1783776411710325858,2026-07-11T20:26:51.710+07:00,837091613166037231,-345179,-375241,-392201,-472963
1783776411728507676,2026-07-11T20:26:51.728+07:00,837091613166037231,-345425,-375414,-392402,-473031
1783776411746689494,2026-07-11T20:26:51.746+07:00,837091613166037231,-345611,-375578,-392466,-472986
1783776411764871312,2026-07-11T20:26:51.764+07:00,837091613166037231,-345734,-375627,-392538,-472958
1783776411783053130,2026-07-11T20:26:51.783+07:00,837091613166037231,-345987,-375812,-392654,-473036
1783776411801234948,2026-07-11T20:26:51.801+07:00,837091613166037231,-346139,-375895,-392720,-473051
1783776411819416766,2026-07-11T20:26:51.819+07:00,837091613166037231,-346264,-375977,-392782,-473007
1783776411837598584,2026-07-11T20:26:51.837+07:00,837091613166037231,-346525,-376052,-392839,-473036
1783776411855780402,2026-07-11T20:26:51.855+07:00,837091613166037231,-346635,-376158,-392878,-473053
1783776411873962220,2026-07-11T20:26:51.873+07:00,837091613166037231,-346811,-376199,-392863,-472998
1783776411892144038,2026-07-11T20:26:51.892+07:00,837091613166037231,-346895,-376180,-392851,-473024
1783776411910325856,2026-07-11T20:26:51.910+07:00,837091613166037231,-347065,-376307,-392878,-473026
1783776411928507674,2026-07-11T20:26:51.928+07:00,837091613166037231,-347137,-376339,-392885,-472989
1783776411946689492,2026-07-11T20:26:51.946+07:00,837091613166037231,-347184,-376320,-392861,-472963
1783776411964871310,2026-07-11T20:26:51.964+07:00,837091613166037231,-347227,-376347,-392851,-472955
1783776411983053128,2026-07-11T20:26:51.983+07:00,837091613166037231,-347288,-376450,-392841,-472986
1783776412001234946,2026-07-11T20:26:52.001+07:00,837091613166037231,-347416,-376492,-392974,-473015
1783776412019416764,2026-07-11T20:26:52.019+07:00,837091613166037231,-347423,-376515,-392912,-473000
1783776412037598582,2026-07-11T20:26:52.037+07:00,837091613166037231,-347435,-376538,-392931,-472921
1783776412055780400,2026-07-11T20:26:52.055+07:00,837091613166037231,-347506,-376623,-392925,-472975
1783776412073962218,2026-07-11T20:26:52.073+07:00,837091613166037231,-347570,-376666,-392959,-472960
1783776412092144036,2026-07-11T20:26:52.092+07:00,837091613166037231,-347540,-376660,-392929,-472994
1783776412110325854,2026-07-11T20:26:52.110+07:00,837091613166037231,-347603,-376729,-392914,-472975
1783776412128507672,2026-07-11T20:26:52.128+07:00,837091613166037231,-347642,-376721,-392916,-472975
1783776412146689490,2026-07-11T20:26:52.146+07:00,837091613166037231,-347702,-376736,-392901,-473046
1783776412164871308,2026-07-11T20:26:52.164+07:00,837091613166037231,-347693,-376750,-392825,-472960
1783776412183053126,2026-07-11T20:26:52.183+07:00,837091613166037231,-347748,-376735,-392863,-473006
1783776412201234944,2026-07-11T20:26:52.201+07:00,837091613166037231,-347805,-376756,-392890,-473034
1783776412219416762,2026-07-11T20:26:52.219+07:00,837091613166037231,-347751,-376738,-392804,-472973
1783776412237598580,2026-07-11T20:26:52.237+07:00,837091613166037231,-347840,-376653,-392750,-472969
1783776412255780398,2026-07-11T20:26:52.255+07:00,837091613166037231,-347830,-376643,-392713,-472976
1783776412273962216,2026-07-11T20:26:52.273+07:00,837091613166037231,-347903,-376694,-392802,-472986
1783776412292144034,2026-07-11T20:26:52.292+07:00,837091613166037231,-347931,-376653,-392794,-472943
1783776412310325852,2026-07-11T20:26:52.310+07:00,837091613166037231,-348072,-376816,-392891,-473088
1783776412328507670,2026-07-11T20:26:52.328+07:00,837091613166037231,-348187,-376874,-392958,-473021
1783776412346689488,2026-07-11T20:26:52.346+07:00,837091613166037231,-348400,-376937,-393028,-472994
1783776412364871306,2026-07-11T20:26:52.364+07:00,837091613166037231,-348627,-377122,-393143,-473024
1783776412383053124,2026-07-11T20:26:52.383+07:00,837091613166037231,-348835,-377246,-393238,-473007
1783776412401234942,2026-07-11T20:26:52.401+07:00,837091613166037231,-348973,-377300,-393288,-472992
1783776412419416760,2026-07-11T20:26:52.419+07:00,837091613166037231,-349120,-377451,-393314,-472998
1783776412437598578,2026-07-11T20:26:52.437+07:00,837091613166037231,-349164,-377455,-393391,-473010
1783776412455780396,2026-07-11T20:26:52.455+07:00,837091613166037231,-349273,-377463,-393421,-473004
1783776412473962214,2026-07-11T20:26:52.473+07:00,837091613984941982,-349258,-377530,-393437,-473046
1783776412492144032,2026-07-11T20:26:52.492+07:00,837091613984941982,-349252,-377528,-393437,-472994
1783776412510325850,2026-07-11T20:26:52.510+07:00,837091613984941982,-349260,-377530,-393419,-472993
1783776412528507668,2026-07-11T20:26:52.528+07:00,837091613984941982,-349355,-377534,-393442,-473019
1783776412546689486,2026-07-11T20:26:52.546+07:00,837091613984941982,-349251,-377556,-393419,-472959
1783776412564871304,2026-07-11T20:26:52.564+07:00,837091613984941982,-349241,-377605,-393447,-473006
1783776412583053122,2026-07-11T20:26:52.583+07:00,837091613984941982,-349248,-377591,-393454,-472989
1783776412601234940,2026-07-11T20:26:52.601+07:00,837091613984941982,-349276,-377621,-393457,-472978
1783776412619416758,2026-07-11T20:26:52.619+07:00,837091613984941982,-349282,-377710,-393454,-473043
1783776412637598576,2026-07-11T20:26:52.637+07:00,837091613984941982,-349235,-377703,-393449,-473014
1783776412655780394,2026-07-11T20:26:52.655+07:00,837091613984941982,-349253,-377681,-393494,-472994
1783776412673962212,2026-07-11T20:26:52.673+07:00,837091613984941982,-349264,-377692,-393534,-473012
1783776412692144030,2026-07-11T20:26:52.692+07:00,837091613984941982,-349221,-377661,-393493,-473026
1783776412710325848,2026-07-11T20:26:52.710+07:00,837091613984941982,-349115,-377709,-393511,-472955
1783776412728507666,2026-07-11T20:26:52.728+07:00,837091613984941982,-349072,-377749,-393517,-472994
1783776412746689484,2026-07-11T20:26:52.746+07:00,837091613984941982,-349000,-377732,-393425,-472978
1783776412764871302,2026-07-11T20:26:52.764+07:00,837091613984941982,-348946,-377691,-393478,-472990
1783776412783053120,2026-07-11T20:26:52.783+07:00,837091613984941982,-348961,-377699,-393448,-472953
1783776412801234938,2026-07-11T20:26:52.801+07:00,837091613984941982,-348931,-377625,-393408,-472966
1783776412819416756,2026-07-11T20:26:52.819+07:00,837091613984941982,-348938,-377682,-393391,-473029
1783776412837598574,2026-07-11T20:26:52.837+07:00,837091613984941982,-348960,-377637,-393362,-473022
1783776412855780392,2026-07-11T20:26:52.855+07:00,837091613984941982,-348982,-377685,-393299,-473005
1783776412873962210,2026-07-11T20:26:52.873+07:00,837091613984941982,-349028,-377652,-393297,-473047
1783776412892144028,2026-07-11T20:26:52.892+07:00,837091613984941982,-349010,-377658,-393303,-472998
1783776412910325846,2026-07-11T20:26:52.910+07:00,837091613984941982,-349079,-377686,-393317,-473029
1783776412928507664,2026-07-11T20:26:52.928+07:00,837091613984941982,-349070,-377662,-393298,-472990
1783776412946689482,2026-07-11T20:26:52.946+07:00,837091613984941982,-349178,-377761,-393380,-473024
1783776412964871300,2026-07-11T20:26:52.964+07:00,837091613984941982,-349276,-377797,-393440,-472999
1783776412983053118,2026-07-11T20:26:52.983+07:00,837091613984941982,-349453,-377898,-393495,-473044
1783776413001234936,2026-07-11T20:26:53.001+07:00,837091613984941982,-349616,-378000,-393604,-473006
1783776413019416754,2026-07-11T20:26:53.019+07:00,837091613984941982,-349793,-378086,-393746,-473002
1783776413037598572,2026-07-11T20:26:53.037+07:00,837091613984941982,-349930,-378159,-393737,-473044
1783776413055780390,2026-07-11T20:26:53.055+07:00,837091613984941982,-350092,-378279,-393749,-472990
1783776413073962208,2026-07-11T20:26:53.073+07:00,837091613984941982,-350247,-378306,-393815,-473034
1783776413092144026,2026-07-11T20:26:53.092+07:00,837091613984941982,-350374,-378378,-393864,-473026
1783776413110325844,2026-07-11T20:26:53.110+07:00,837091613984941982,-350544,-378417,-393870,-473010
1783776413128507662,2026-07-11T20:26:53.128+07:00,837091613984941982,-350654,-378506,-393898,-473024
1783776413146689480,2026-07-11T20:26:53.146+07:00,837091613984941982,-350768,-378497,-393876,-472953
1783776413164871298,2026-07-11T20:26:53.164+07:00,837091613984941982,-350834,-378505,-393866,-472968
1783776413183053116,2026-07-11T20:26:53.183+07:00,837091613984941982,-350971,-378588,-393835,-472988
1783776413201234934,2026-07-11T20:26:53.201+07:00,837091613984941982,-350979,-378525,-393783,-473000
1783776413219416752,2026-07-11T20:26:53.219+07:00,837091613984941982,-351083,-378583,-393831,-473002
1783776413237598570,2026-07-11T20:26:53.237+07:00,837091613984941982,-351147,-378630,-393851,-473032
1783776413255780388,2026-07-11T20:26:53.255+07:00,837091613984941982,-351191,-378587,-393798,-472948
1783776413273962206,2026-07-11T20:26:53.273+07:00,837091613984941982,-351248,-378632,-393852,-472953
1783776413292144024,2026-07-11T20:26:53.292+07:00,837091614822197214,-351266,-378540,-393801,-473028
1783776413310325842,2026-07-11T20:26:53.310+07:00,837091614822197214,-351252,-378602,-393812,-473061
1783776413328507660,2026-07-11T20:26:53.328+07:00,837091614822197214,-351287,-378638,-393767,-472999
1783776413346689478,2026-07-11T20:26:53.346+07:00,837091614822197214,-351307,-378623,-393828,-473088
1783776413364871296,2026-07-11T20:26:53.364+07:00,837091614822197214,-351273,-378610,-393793,-473057
1783776413383053114,2026-07-11T20:26:53.383+07:00,837091614822197214,-351231,-378554,-393752,-473003
1783776413401234932,2026-07-11T20:26:53.401+07:00,837091614822197214,-351173,-378566,-393742,-472978
1783776413419416750,2026-07-11T20:26:53.419+07:00,837091614822197214,-351202,-378521,-393749,-473074
1783776413437598568,2026-07-11T20:26:53.437+07:00,837091614822197214,-351143,-378518,-393718,-473032
1783776413455780386,2026-07-11T20:26:53.455+07:00,837091614822197214,-351122,-378542,-393737,-472999
1783776413473962204,2026-07-11T20:26:53.473+07:00,837091614822197214,-351122,-378504,-393699,-473024
1783776413492144022,2026-07-11T20:26:53.492+07:00,837091614822197214,-351058,-378478,-393695,-472950
1783776413510325840,2026-07-11T20:26:53.510+07:00,837091614822197214,-351082,-378535,-393666,-473035
1783776413528507658,2026-07-11T20:26:53.528+07:00,837091614822197214,-350965,-378471,-393627,-473016
1783776413546689476,2026-07-11T20:26:53.546+07:00,837091614822197214,-351016,-378511,-393614,-472960
1783776413564871294,2026-07-11T20:26:53.564+07:00,837091614822197214,-351039,-378551,-393666,-472980
1783776413583053112,2026-07-11T20:26:53.583+07:00,837091614822197214,-351159,-378591,-393759,-473004
1783776413601234930,2026-07-11T20:26:53.601+07:00,837091614822197214,-351276,-378672,-393807,-473052
1783776413619416748,2026-07-11T20:26:53.619+07:00,837091614822197214,-351327,-378739,-393854,-473009
1783776413637598566,2026-07-11T20:26:53.637+07:00,837091614822197214,-351431,-378849,-393922,-473087
1783776413655780384,2026-07-11T20:26:53.655+07:00,837091614822197214,-351464,-378807,-393943,-472990
1783776413673962202,2026-07-11T20:26:53.673+07:00,837091614822197214,-351520,-378892,-393995,-473047
1783776413692144020,2026-07-11T20:26:53.692+07:00,837091614822197214,-351505,-378875,-393988,-473035
1783776413710325838,2026-07-11T20:26:53.710+07:00,837091614822197214,-351531,-378903,-394028,-473038
1783776413728507656,2026-07-11T20:26:53.728+07:00,837091614822197214,-351573,-378927,-394034,-473058
1783776413746689474,2026-07-11T20:26:53.746+07:00,837091614822197214,-351541,-378934,-394056,-473043
1783776413764871292,2026-07-11T20:26:53.764+07:00,837091614822197214,-351567,-378929,-394017,-473013
1783776413783053110,2026-07-11T20:26:53.783+07:00,837091614822197214,-351499,-378937,-393915,-473071
1783776413801234928,2026-07-11T20:26:53.801+07:00,837091614822197214,-351464,-378885,-393907,-472998
1783776413819416746,2026-07-11T20:26:53.819+07:00,837091614822197214,-351503,-378879,-393920,-472968
1783776413837598564,2026-07-11T20:26:53.837+07:00,837091614822197214,-351487,-378864,-393944,-472987
1783776413855780382,2026-07-11T20:26:53.855+07:00,837091614822197214,-351519,-378833,-393887,-472989
1783776413873962200,2026-07-11T20:26:53.873+07:00,837091614822197214,-351610,-378932,-393938,-473029
1783776413892144018,2026-07-11T20:26:53.892+07:00,837091614822197214,-351527,-378819,-393790,-473003
1783776413910325836,2026-07-11T20:26:53.910+07:00,837091614822197214,-351604,-378865,-393833,-472990
1783776413928507654,2026-07-11T20:26:53.928+07:00,837091614822197214,-351629,-378846,-393852,-473050
1783776413946689472,2026-07-11T20:26:53.946+07:00,837091614822197214,-351544,-378754,-393751,-472987
1783776413964871290,2026-07-11T20:26:53.964+07:00,837091614822197214,-351533,-378825,-393775,-473016
1783776413983053108,2026-07-11T20:26:53.983+07:00,837091614822197214,-351400,-378783,-393678,-473009
1783776414001234926,2026-07-11T20:26:54.001+07:00,837091614822197214,-351476,-378770,-393703,-472999
1783776414019416744,2026-07-11T20:26:54.019+07:00,837091614822197214,-351466,-378766,-393660,-472992
1783776414037598562,2026-07-11T20:26:54.037+07:00,837091614822197214,-351415,-378764,-393672,-473036
1783776414055780380,2026-07-11T20:26:54.055+07:00,837091614822197214,-351363,-378705,-393651,-473026
1783776414073962198,2026-07-11T20:26:54.073+07:00,837091614822197214,-351314,-378611,-393578,-472984
1783776414092144016,2026-07-11T20:26:54.092+07:00,837091614822197214,-351275,-378574,-393546,-473030
1783776414110325834,2026-07-11T20:26:54.110+07:00,837091614822197214,-351241,-378553,-393470,-472967
1783776414128507652,2026-07-11T20:26:54.128+07:00,837091615641239297,-351263,-378551,-393457,-472949
1783776414146689470,2026-07-11T20:26:54.146+07:00,837091615641239297,-351263,-378575,-393414,-472985
1783776414164871288,2026-07-11T20:26:54.164+07:00,837091615641239297,-351203,-378542,-393447,-473005
1783776414183053106,2026-07-11T20:26:54.183+07:00,837091615641239297,-351236,-378540,-393483,-472997
1783776414201234924,2026-07-11T20:26:54.201+07:00,837091615641239297,-351320,-378581,-393539,-473063
1783776414219416742,2026-07-11T20:26:54.219+07:00,837091615641239297,-351476,-378674,-393602,-473060
1783776414237598560,2026-07-11T20:26:54.237+07:00,837091615641239297,-351600,-378706,-393590,-473048
1783776414255780378,2026-07-11T20:26:54.255+07:00,837091615641239297,-351664,-378693,-393619,-473012
1783776414273962196,2026-07-11T20:26:54.273+07:00,837091615641239297,-351785,-378855,-393638,-473003
1783776414292144014,2026-07-11T20:26:54.292+07:00,837091615641239297,-351799,-378813,-393607,-472994
1783776414310325832,2026-07-11T20:26:54.310+07:00,837091615641239297,-351831,-378801,-393632,-473048
1783776414328507650,2026-07-11T20:26:54.328+07:00,837091615641239297,-351924,-378807,-393669,-473065
1783776414346689468,2026-07-11T20:26:54.346+07:00,837091615641239297,-351977,-378846,-393605,-473020
1783776414364871286,2026-07-11T20:26:54.364+07:00,837091615641239297,-351956,-378803,-393594,-473041
1783776414383053104,2026-07-11T20:26:54.383+07:00,837091615641239297,-351935,-378783,-393546,-473036
1783776414401234922,2026-07-11T20:26:54.401+07:00,837091615641239297,-352022,-378756,-393470,-473029
1783776414419416740,2026-07-11T20:26:54.419+07:00,837091615641239297,-352039,-378777,-393487,-473021
1783776414437598558,2026-07-11T20:26:54.437+07:00,837091615641239297,-352030,-378791,-393423,-473010
1783776414455780376,2026-07-11T20:26:54.455+07:00,837091615641239297,-352082,-378797,-393396,-473062
1783776414473962194,2026-07-11T20:26:54.473+07:00,837091615641239297,-352089,-378719,-393405,-473065
1783776414492144012,2026-07-11T20:26:54.492+07:00,837091615641239297,-352119,-378774,-393306,-473011
1783776414510325830,2026-07-11T20:26:54.510+07:00,837091615641239297,-352095,-378699,-393282,-473022
1783776414528507648,2026-07-11T20:26:54.528+07:00,837091615641239297,-352193,-378718,-393278,-473035
1783776414546689466,2026-07-11T20:26:54.546+07:00,837091615641239297,-352173,-378665,-393240,-473033
1783776414564871284,2026-07-11T20:26:54.564+07:00,837091615641239297,-352102,-378624,-393211,-473078
1783776414583053102,2026-07-11T20:26:54.583+07:00,837091615641239297,-352155,-378566,-393162,-473021
1783776414601234920,2026-07-11T20:26:54.601+07:00,837091615641239297,-352168,-378543,-393091,-473063
1783776414619416738,2026-07-11T20:26:54.619+07:00,837091615641239297,-352165,-378521,-393023,-473043
1783776414637598556,2026-07-11T20:26:54.637+07:00,837091615641239297,-352180,-378417,-392940,-473034
1783776414655780374,2026-07-11T20:26:54.655+07:00,837091615641239297,-352198,-378467,-392942,-473026
1783776414673962192,2026-07-11T20:26:54.673+07:00,837091615641239297,-352167,-378429,-392896,-473047
1783776414692144010,2026-07-11T20:26:54.692+07:00,837091615641239297,-352141,-378372,-392820,-472968
1783776414710325828,2026-07-11T20:26:54.710+07:00,837091615641239297,-352123,-378314,-392725,-472969
1783776414728507646,2026-07-11T20:26:54.728+07:00,837091615641239297,-352118,-378316,-392758,-472975
1783776414746689464,2026-07-11T20:26:54.746+07:00,837091615641239297,-352068,-378193,-392654,-472949
1783776414764871282,2026-07-11T20:26:54.764+07:00,837091615641239297,-352045,-378216,-392590,-473022
1783776414783053100,2026-07-11T20:26:54.783+07:00,837091615641239297,-352033,-378153,-392568,-473030
1783776414801234918,2026-07-11T20:26:54.801+07:00,837091615641239297,-351963,-378129,-392484,-473047
1783776414819416736,2026-07-11T20:26:54.819+07:00,837091615641239297,-351975,-378114,-392514,-472984
1783776414837598554,2026-07-11T20:26:54.837+07:00,837091615641239297,-352017,-378143,-392546,-472998
1783776414855780372,2026-07-11T20:26:54.855+07:00,837091615641239297,-352056,-378119,-392557,-472990
1783776414873962190,2026-07-11T20:26:54.873+07:00,837091615641239297,-352104,-378150,-392586,-472949
1783776414892144008,2026-07-11T20:26:54.892+07:00,837091615641239297,-352268,-378206,-392638,-472990
1783776414910325826,2026-07-11T20:26:54.910+07:00,837091615641239297,-352318,-378251,-392656,-472994
1783776414928507644,2026-07-11T20:26:54.928+07:00,837091615641239297,-352328,-378220,-392618,-473010
1783776414946689462,2026-07-11T20:26:54.946+07:00,837091616460281380,-352326,-378227,-392642,-473001
1783776414964871280,2026-07-11T20:26:54.964+07:00,837091616460281380,-352362,-378257,-392633,-472939
1783776414983053098,2026-07-11T20:26:54.983+07:00,837091616460281380,-352356,-378251,-392681,-473015
1783776415001234916,2026-07-11T20:26:55.001+07:00,837091616460281380,-352301,-378206,-392656,-473024
1783776415019416734,2026-07-11T20:26:55.019+07:00,837091616460281380,-352294,-378211,-392598,-473035
1783776415037598552,2026-07-11T20:26:55.037+07:00,837091616460281380,-352295,-378165,-392526,-473015
1783776415055780370,2026-07-11T20:26:55.055+07:00,837091616460281380,-352212,-378132,-392436,-472962
1783776415073962188,2026-07-11T20:26:55.073+07:00,837091616460281380,-352180,-378116,-392403,-473054
1783776415092144006,2026-07-11T20:26:55.092+07:00,837091616460281380,-352181,-378092,-392392,-473026
1783776415110325824,2026-07-11T20:26:55.110+07:00,837091616460281380,-352166,-378093,-392438,-473068
1783776415128507642,2026-07-11T20:26:55.128+07:00,837091616460281380,-352074,-378003,-392381,-472969
1783776415146689460,2026-07-11T20:26:55.146+07:00,837091616460281380,-352105,-378009,-392361,-473009
1783776415164871278,2026-07-11T20:26:55.164+07:00,837091616460281380,-352040,-377992,-392359,-472973
1783776415183053096,2026-07-11T20:26:55.183+07:00,837091616460281380,-352015,-377880,-392390,-472998
1783776415201234914,2026-07-11T20:26:55.201+07:00,837091616460281380,-351947,-377872,-392287,-473040
1783776415219416732,2026-07-11T20:26:55.219+07:00,837091616460281380,-351892,-377869,-392313,-473058
1783776415237598550,2026-07-11T20:26:55.237+07:00,837091616460281380,-351858,-377814,-392357,-473046
1783776415255780368,2026-07-11T20:26:55.255+07:00,837091616460281380,-351807,-377805,-392263,-473027
1783776415273962186,2026-07-11T20:26:55.273+07:00,837091616460281380,-351748,-377777,-392227,-473030
1783776415292144004,2026-07-11T20:26:55.292+07:00,837091616460281380,-351719,-377726,-392207,-473038
1783776415310325822,2026-07-11T20:26:55.310+07:00,837091616460281380,-351598,-377727,-392156,-472983
1783776415328507640,2026-07-11T20:26:55.328+07:00,837091616460281380,-351488,-377647,-392113,-473015
1783776415346689458,2026-07-11T20:26:55.346+07:00,837091616460281380,-351502,-377656,-392208,-473018
1783776415364871276,2026-07-11T20:26:55.364+07:00,837091616460281380,-351405,-377575,-392082,-472965
1783776415383053094,2026-07-11T20:26:55.383+07:00,837091616460281380,-351366,-377529,-392026,-472972
1783776415401234912,2026-07-11T20:26:55.401+07:00,837091616460281380,-351308,-377519,-391990,-472971
1783776415419416730,2026-07-11T20:26:55.419+07:00,837091616460281380,-351200,-377468,-391915,-472964
1783776415437598548,2026-07-11T20:26:55.437+07:00,837091616460281380,-351176,-377418,-391898,-473024
1783776415455780366,2026-07-11T20:26:55.455+07:00,837091616460281380,-351141,-377434,-391897,-472998
1783776415473962184,2026-07-11T20:26:55.473+07:00,837091616460281380,-351183,-377450,-391954,-473050
1783776415492144002,2026-07-11T20:26:55.492+07:00,837091616460281380,-351209,-377487,-391952,-473032
1783776415510325820,2026-07-11T20:26:55.510+07:00,837091616460281380,-351255,-377502,-392033,-473053
1783776415528507638,2026-07-11T20:26:55.528+07:00,837091616460281380,-351327,-377545,-392053,-473067
1783776415546689456,2026-07-11T20:26:55.546+07:00,837091616460281380,-351389,-377619,-392189,-473052
1783776415564871274,2026-07-11T20:26:55.564+07:00,837091616460281380,-351419,-377728,-392227,-473029
1783776415583053092,2026-07-11T20:26:55.583+07:00,837091616460281380,-351471,-377703,-392279,-473052
1783776415601234910,2026-07-11T20:26:55.601+07:00,837091616460281380,-351444,-377654,-392247,-472941
1783776415619416728,2026-07-11T20:26:55.619+07:00,837091616460281380,-351436,-377676,-392211,-472934
1783776415637598546,2026-07-11T20:26:55.637+07:00,837091616460281380,-351495,-377676,-392321,-473005
1783776415655780364,2026-07-11T20:26:55.655+07:00,837091616460281380,-351509,-377694,-392233,-472988
1783776415673962182,2026-07-11T20:26:55.673+07:00,837091616460281380,-351447,-377728,-392270,-472972
1783776415692144000,2026-07-11T20:26:55.692+07:00,837091616460281380,-351497,-377750,-392306,-473002
1783776415710325818,2026-07-11T20:26:55.710+07:00,837091616460281380,-351514,-377719,-392257,-472966
1783776415728507636,2026-07-11T20:26:55.728+07:00,837091616460281380,-351405,-377726,-392225,-473002
1783776415746689454,2026-07-11T20:26:55.746+07:00,837091616460281380,-351430,-377667,-392201,-473015
1783776415764871272,2026-07-11T20:26:55.764+07:00,837091617261092010,-351391,-377693,-392170,-472981
1783776415783053090,2026-07-11T20:26:55.783+07:00,837091617261092010,-351425,-377696,-392216,-473001
1783776415801234908,2026-07-11T20:26:55.801+07:00,837091617261092010,-351300,-377684,-392186,-473033
1783776415819416726,2026-07-11T20:26:55.819+07:00,837091617261092010,-351243,-377684,-392192,-472963
1783776415837598544,2026-07-11T20:26:55.837+07:00,837091617261092010,-351161,-377614,-392213,-473000
1783776415855780362,2026-07-11T20:26:55.855+07:00,837091617261092010,-351017,-377597,-392124,-472968
1783776415873962180,2026-07-11T20:26:55.873+07:00,837091617261092010,-350920,-377575,-392146,-473033
1783776415892143998,2026-07-11T20:26:55.892+07:00,837091617261092010,-350830,-377586,-392212,-473062
1783776415910325816,2026-07-11T20:26:55.910+07:00,837091617261092010,-350688,-377508,-392212,-473058
1783776415928507634,2026-07-11T20:26:55.928+07:00,837091617261092010,-350575,-377506,-392231,-473041
1783776415946689452,2026-07-11T20:26:55.946+07:00,837091617261092010,-350524,-377508,-392253,-473022
1783776415964871270,2026-07-11T20:26:55.964+07:00,837091617261092010,-350455,-377478,-392143,-473004
1783776415983053088,2026-07-11T20:26:55.983+07:00,837091617261092010,-350497,-377586,-392122,-473040
1783776416001234906,2026-07-11T20:26:56.001+07:00,837091617261092010,-350368,-377719,-392016,-472986
1783776416019416724,2026-07-11T20:26:56.019+07:00,837091617261092010,-350254,-377861,-391988,-473000
1783776416037598542,2026-07-11T20:26:56.037+07:00,837091617261092010,-350012,-377806,-391843,-472966
1783776416055780360,2026-07-11T20:26:56.055+07:00,837091617261092010,-349815,-377679,-391780,-472996
1783776416073962178,2026-07-11T20:26:56.073+07:00,837091617261092010,-349650,-377555,-391811,-473011
1783776416092143996,2026-07-11T20:26:56.092+07:00,837091617261092010,-349391,-377452,-391766,-472985
1783776416110325814,2026-07-11T20:26:56.110+07:00,837091617261092010,-349196,-377367,-391724,-472964
1783776416128507632,2026-07-11T20:26:56.128+07:00,837091617261092010,-349140,-377321,-391718,-472980
1783776416146689450,2026-07-11T20:26:56.146+07:00,837091617261092010,-349089,-377401,-391782,-472969
1783776416164871268,2026-07-11T20:26:56.164+07:00,837091617261092010,-349007,-377437,-391816,-472934
1783776416183053086,2026-07-11T20:26:56.183+07:00,837091617261092010,-349021,-377481,-391895,-472997
1783776416201234904,2026-07-11T20:26:56.201+07:00,837091617261092010,-349004,-377459,-391925,-472950
1783776416219416722,2026-07-11T20:26:56.219+07:00,837091617261092010,-349079,-377529,-391990,-473022
1783776416237598540,2026-07-11T20:26:56.237+07:00,837091617261092010,-349107,-377601,-392014,-472962
1783776416255780358,2026-07-11T20:26:56.255+07:00,837091617261092010,-349112,-377652,-392040,-472960
1783776416273962176,2026-07-11T20:26:56.273+07:00,837091617261092010,-349076,-377611,-392065,-472952
1783776416292143994,2026-07-11T20:26:56.292+07:00,837091617261092010,-349109,-377689,-392131,-473028
1783776416310325812,2026-07-11T20:26:56.310+07:00,837091617261092010,-349052,-377687,-392112,-473064
1783776416328507630,2026-07-11T20:26:56.328+07:00,837091617261092010,-349040,-377669,-392163,-473000
1783776416346689448,2026-07-11T20:26:56.346+07:00,837091617261092010,-348985,-377652,-392121,-472945
1783776416364871266,2026-07-11T20:26:56.364+07:00,837091617261092010,-348939,-377695,-392142,-472953
1783776416383053084,2026-07-11T20:26:56.383+07:00,837091617261092010,-348890,-377715,-392133,-472935
1783776416401234902,2026-07-11T20:26:56.401+07:00,837091617261092010,-348809,-377679,-392091,-472916
1783776416419416720,2026-07-11T20:26:56.419+07:00,837091617261092010,-348833,-377649,-392108,-472954
1783776416437598538,2026-07-11T20:26:56.437+07:00,837091617261092010,-348833,-377735,-392135,-472944
1783776416455780356,2026-07-11T20:26:56.455+07:00,837091617261092010,-348867,-377745,-392150,-472985
1783776416473962174,2026-07-11T20:26:56.473+07:00,837091617261092010,-348814,-377749,-392172,-472870
1783776416492143992,2026-07-11T20:26:56.492+07:00,837091617261092010,-348769,-377703,-392120,-472929
1783776416510325810,2026-07-11T20:26:56.510+07:00,837091617261092010,-348720,-377719,-392138,-472936
1783776416528507628,2026-07-11T20:26:56.528+07:00,837091617261092010,-348777,-377754,-392263,-473013
1783776416546689446,2026-07-11T20:26:56.546+07:00,837091617261092010,-348756,-377742,-392227,-472963
1783776416564871264,2026-07-11T20:26:56.564+07:00,837091618043732223,-348687,-377735,-392203,-472986
1783776416583053082,2026-07-11T20:26:56.583+07:00,837091618043732223,-348656,-377677,-392229,-472952
1783776416601234900,2026-07-11T20:26:56.601+07:00,837091618043732223,-348651,-377730,-392274,-472993
1783776416619416718,2026-07-11T20:26:56.619+07:00,837091618043732223,-348583,-377808,-392273,-472971
1783776416637598536,2026-07-11T20:26:56.637+07:00,837091618043732223,-348624,-377737,-392259,-472939
1783776416655780354,2026-07-11T20:26:56.655+07:00,837091618043732223,-348624,-377740,-392269,-473013
1783776416673962172,2026-07-11T20:26:56.673+07:00,837091618043732223,-348613,-377719,-392222,-473007
1783776416692143990,2026-07-11T20:26:56.692+07:00,837091618043732223,-348616,-377656,-392221,-472970
1783776416710325808,2026-07-11T20:26:56.710+07:00,837091618043732223,-348617,-377643,-392258,-472962
1783776416728507626,2026-07-11T20:26:56.728+07:00,837091618043732223,-348468,-377623,-392245,-472966
1783776416746689444,2026-07-11T20:26:56.746+07:00,837091618043732223,-348514,-377655,-392227,-472949
1783776416764871262,2026-07-11T20:26:56.764+07:00,837091618043732223,-348521,-377744,-392292,-472944
1783776416783053080,2026-07-11T20:26:56.783+07:00,837091618043732223,-348611,-377778,-392406,-472961
1783776416801234898,2026-07-11T20:26:56.801+07:00,837091618043732223,-348735,-377835,-392469,-472936
1783776416819416716,2026-07-11T20:26:56.819+07:00,837091618043732223,-348785,-377905,-392459,-472960
1783776416837598534,2026-07-11T20:26:56.837+07:00,837091618043732223,-348983,-377950,-392520,-472969
1783776416855780352,2026-07-11T20:26:56.855+07:00,837091618043732223,-349048,-378005,-392581,-472980
1783776416873962170,2026-07-11T20:26:56.873+07:00,837091618043732223,-349090,-378114,-392636,-472966
1783776416892143988,2026-07-11T20:26:56.892+07:00,837091618043732223,-349090,-378113,-392663,-472883
1783776416910325806,2026-07-11T20:26:56.910+07:00,837091618043732223,-349120,-378159,-392732,-472936
1783776416928507624,2026-07-11T20:26:56.928+07:00,837091618043732223,-349246,-378154,-392764,-472934
1783776416946689442,2026-07-11T20:26:56.946+07:00,837091618043732223,-349240,-378225,-392769,-472915
1783776416964871260,2026-07-11T20:26:56.964+07:00,837091618043732223,-349268,-378245,-392854,-472969
1783776416983053078,2026-07-11T20:26:56.983+07:00,837091618043732223,-349246,-378236,-392818,-472922
1783776417001234896,2026-07-11T20:26:57.001+07:00,837091618043732223,-349279,-378275,-392895,-472936
1783776417019416714,2026-07-11T20:26:57.019+07:00,837091618043732223,-349276,-378224,-392886,-472952
1783776417037598532,2026-07-11T20:26:57.037+07:00,837091618043732223,-349329,-378236,-392875,-472937
1783776417055780350,2026-07-11T20:26:57.055+07:00,837091618043732223,-349355,-378330,-392932,-472989
1783776417073962168,2026-07-11T20:26:57.073+07:00,837091618043732223,-349374,-378321,-392919,-472913
1783776417092143986,2026-07-11T20:26:57.092+07:00,837091618043732223,-349409,-378384,-392988,-472942
1783776417110325804,2026-07-11T20:26:57.110+07:00,837091618043732223,-349429,-378355,-392935,-472900
1783776417128507622,2026-07-11T20:26:57.128+07:00,837091618043732223,-349453,-378408,-392954,-472955
1783776417146689440,2026-07-11T20:26:57.146+07:00,837091618043732223,-349440,-378377,-393029,-472938
1783776417164871258,2026-07-11T20:26:57.164+07:00,837091618043732223,-349451,-378417,-393032,-472968
1783776417183053076,2026-07-11T20:26:57.183+07:00,837091618043732223,-349464,-378442,-393012,-472970
1783776417201234894,2026-07-11T20:26:57.201+07:00,837091618043732223,-349494,-378420,-393050,-472939
1783776417219416712,2026-07-11T20:26:57.219+07:00,837091618043732223,-349511,-378473,-393077,-472922
1783776417237598530,2026-07-11T20:26:57.237+07:00,837091618043732223,-349464,-378409,-393093,-472950
1783776417255780348,2026-07-11T20:26:57.255+07:00,837091618043732223,-349500,-378401,-393025,-472939
1783776417273962166,2026-07-11T20:26:57.273+07:00,837091618043732223,-349495,-378484,-393055,-472898
1783776417292143984,2026-07-11T20:26:57.292+07:00,837091618043732223,-349471,-378481,-393086,-472939
