host_timestamp_ns,host_timestamp_iso,pmd_timestamp,ppg0,ppg1,ppg2,ambient
1783776104055025843,2026-07-11T20:21:44.055+07:00,837091308043533146,-337013,-370979,-388934,-473021
1783776104073207661,2026-07-11T20:21:44.073+07:00,837091308043533146,-336922,-370948,-388801,-472995
1783776104091389479,2026-07-11T20:21:44.091+07:00,837091308043533146,-336920,-370932,-388825,-473068
1783776104109571297,2026-07-11T20:21:44.109+07:00,837091308043533146,-336845,-370946,-388800,-472998
1783776104127753115,2026-07-11T20:21:44.127+07:00,837091308043533146,-336863,-370958,-388804,-473045
1783776104145934933,2026-07-11T20:21:44.145+07:00,837091308043533146,-336744,-370848,-388731,-473045
1783776104164116751,2026-07-11T20:21:44.164+07:00,837091308043533146,-336772,-370857,-388772,-473017
1783776104182298569,2026-07-11T20:21:44.182+07:00,837091308043533146,-336750,-370866,-388755,-472982
1783776104200480387,2026-07-11T20:21:44.200+07:00,837091308043533146,-336859,-370996,-388861,-472959
1783776104218662205,2026-07-11T20:21:44.218+07:00,837091308043533146,-336966,-371087,-388976,-473044
1783776104236844023,2026-07-11T20:21:44.236+07:00,837091308043533146,-337083,-371160,-388997,-473030
1783776104255025841,2026-07-11T20:21:44.255+07:00,837091308043533146,-337216,-371234,-389087,-473037
1783776104273207659,2026-07-11T20:21:44.273+07:00,837091308043533146,-337247,-371289,-389144,-473012
1783776104291389477,2026-07-11T20:21:44.291+07:00,837091308043533146,-337341,-371305,-389143,-473010
1783776104309571295,2026-07-11T20:21:44.309+07:00,837091308043533146,-337308,-371295,-389137,-472937
1783776104327753113,2026-07-11T20:21:44.327+07:00,837091308043533146,-337418,-371338,-389162,-473010
1783776104345934931,2026-07-11T20:21:44.345+07:00,837091308043533146,-337334,-371379,-389187,-473032
1783776104364116749,2026-07-11T20:21:44.364+07:00,837091308043533146,-337372,-371356,-389172,-473044
1783776104382298567,2026-07-11T20:21:44.382+07:00,837091308043533146,-337380,-371275,-389178,-473033
1783776104400480385,2026-07-11T20:21:44.400+07:00,837091308043533146,-337382,-371289,-389130,-473031
1783776104418662203,2026-07-11T20:21:44.418+07:00,837091308043533146,-337405,-371272,-389136,-473055
1783776104436844021,2026-07-11T20:21:44.436+07:00,837091308043533146,-337341,-371298,-389151,-473009
1783776104455025839,2026-07-11T20:21:44.455+07:00,837091308043533146,-337305,-371258,-389177,-472997
1783776104473207657,2026-07-11T20:21:44.473+07:00,837091308043533146,-337332,-371313,-389183,-473024
1783776104491389475,2026-07-11T20:21:44.491+07:00,837091308043533146,-337302,-371297,-389155,-472954
1783776104509571293,2026-07-11T20:21:44.509+07:00,837091308043533146,-337374,-371267,-389156,-473050
1783776104527753111,2026-07-11T20:21:44.527+07:00,837091308043533146,-337285,-371238,-389165,-472938
1783776104545934929,2026-07-11T20:21:44.545+07:00,837091308043533146,-337357,-371366,-389233,-473010
1783776104564116747,2026-07-11T20:21:44.564+07:00,837091308043533146,-337353,-371334,-389217,-472980
1783776104582298565,2026-07-11T20:21:44.582+07:00,837091308043533146,-337342,-371382,-389194,-473011
1783776104600480383,2026-07-11T20:21:44.600+07:00,837091308043533146,-337294,-371301,-389200,-472970
1783776104618662201,2026-07-11T20:21:44.618+07:00,837091308043533146,-337285,-371317,-389183,-473016
1783776104636844019,2026-07-11T20:21:44.636+07:00,837091308043533146,-337314,-371339,-389152,-472986
1783776104655025837,2026-07-11T20:21:44.655+07:00,837091308043533146,-337309,-371318,-389140,-472967
1783776104673207655,2026-07-11T20:21:44.673+07:00,837091308043533146,-337205,-371255,-389075,-473005
1783776104691389473,2026-07-11T20:21:44.691+07:00,837091308043533146,-337095,-371223,-389025,-472992
1783776104709571291,2026-07-11T20:21:44.709+07:00,837091308043533146,-337113,-371195,-388984,-473004
1783776104727753109,2026-07-11T20:21:44.727+07:00,837091308043533146,-337041,-371138,-388965,-473000
1783776104745934927,2026-07-11T20:21:44.745+07:00,837091308043533146,-337057,-371163,-388990,-472996
1783776104764116745,2026-07-11T20:21:44.764+07:00,837091308043533146,-337036,-371096,-388980,-473007
1783776104782298563,2026-07-11T20:21:44.782+07:00,837091308043533146,-336957,-371041,-388934,-472995
1783776104800480381,2026-07-11T20:21:44.800+07:00,837091308043533146,-336957,-371066,-388911,-472996
1783776104818662199,2026-07-11T20:21:44.818+07:00,837091308807908336,-336899,-371022,-388852,-473040
1783776104836844017,2026-07-11T20:21:44.836+07:00,837091308807908336,-336850,-370995,-388821,-472986
1783776104855025835,2026-07-11T20:21:44.855+07:00,837091308807908336,-336797,-371010,-388764,-472980
1783776104873207653,2026-07-11T20:21:44.873+07:00,837091308807908336,-336731,-370989,-388779,-473000
1783776104891389471,2026-07-11T20:21:44.891+07:00,837091308807908336,-336726,-370969,-388801,-473004
1783776104909571289,2026-07-11T20:21:44.909+07:00,837091308807908336,-336808,-370961,-388823,-473040
1783776104927753107,2026-07-11T20:21:44.927+07:00,837091308807908336,-336874,-371027,-388904,-473037
1783776104945934925,2026-07-11T20:21:44.945+07:00,837091308807908336,-337009,-371137,-389041,-473027
1783776104964116743,2026-07-11T20:21:44.964+07:00,837091308807908336,-337152,-371232,-389100,-473020
1783776104982298561,2026-07-11T20:21:44.982+07:00,837091308807908336,-337177,-371319,-389183,-473010
1783776105000480379,2026-07-11T20:21:45.000+07:00,837091308807908336,-337241,-371345,-389158,-473005
1783776105018662197,2026-07-11T20:21:45.018+07:00,837091308807908336,-337296,-371419,-389167,-473055
1783776105036844015,2026-07-11T20:21:45.036+07:00,837091308807908336,-337360,-371433,-389154,-473031
1783776105055025833,2026-07-11T20:21:45.055+07:00,837091308807908336,-337308,-371355,-389155,-473037
1783776105073207651,2026-07-11T20:21:45.073+07:00,837091308807908336,-337328,-371383,-389143,-472994
1783776105091389469,2026-07-11T20:21:45.091+07:00,837091308807908336,-337317,-371358,-389189,-473032
1783776105109571287,2026-07-11T20:21:45.109+07:00,837091308807908336,-337269,-371341,-389172,-473005
1783776105127753105,2026-07-11T20:21:45.127+07:00,837091308807908336,-337209,-371325,-389103,-473015
1783776105145934923,2026-07-11T20:21:45.145+07:00,837091308807908336,-337169,-371311,-389071,-472973
1783776105164116741,2026-07-11T20:21:45.164+07:00,837091308807908336,-337205,-371297,-389128,-472985
1783776105182298559,2026-07-11T20:21:45.182+07:00,837091308807908336,-337298,-371331,-389069,-473050
1783776105200480377,2026-07-11T20:21:45.200+07:00,837091308807908336,-337166,-371295,-389036,-473045
1783776105218662195,2026-07-11T20:21:45.218+07:00,837091308807908336,-337211,-371292,-389070,-473039
1783776105236844013,2026-07-11T20:21:45.236+07:00,837091308807908336,-337154,-371298,-389023,-473052
1783776105255025831,2026-07-11T20:21:45.255+07:00,837091308807908336,-337169,-371324,-389052,-473040
1783776105273207649,2026-07-11T20:21:45.273+07:00,837091308807908336,-337161,-371330,-389037,-473053
1783776105291389467,2026-07-11T20:21:45.291+07:00,837091308807908336,-337210,-371339,-389103,-473039
1783776105309571285,2026-07-11T20:21:45.309+07:00,837091308807908336,-337107,-371255,-389048,-472996
1783776105327753103,2026-07-11T20:21:45.327+07:00,837091308807908336,-337125,-371292,-389049,-473004
1783776105345934921,2026-07-11T20:21:45.345+07:00,837091308807908336,-337117,-371260,-389008,-472999
1783776105364116739,2026-07-11T20:21:45.364+07:00,837091308807908336,-337018,-371169,-388970,-473044
1783776105382298557,2026-07-11T20:21:45.382+07:00,837091308807908336,-337009,-371076,-388912,-472978
1783776105400480375,2026-07-11T20:21:45.400+07:00,837091308807908336,-337049,-371120,-388950,-473051
1783776105418662193,2026-07-11T20:21:45.418+07:00,837091308807908336,-336942,-371091,-388871,-472997
1783776105436844011,2026-07-11T20:21:45.436+07:00,837091308807908336,-336850,-370983,-388792,-473010
1783776105455025829,2026-07-11T20:21:45.455+07:00,837091308807908336,-336837,-370996,-388811,-473015
1783776105473207647,2026-07-11T20:21:45.473+07:00,837091308807908336,-336847,-371011,-388782,-473013
1783776105491389465,2026-07-11T20:21:45.491+07:00,837091308807908336,-336744,-370939,-388732,-473020
1783776105509571283,2026-07-11T20:21:45.509+07:00,837091308807908336,-336687,-370929,-388733,-473073
1783776105527753101,2026-07-11T20:21:45.527+07:00,837091308807908336,-336648,-370880,-388692,-473045
1783776105545934919,2026-07-11T20:21:45.545+07:00,837091308807908336,-336543,-370891,-388644,-473057
1783776105564116737,2026-07-11T20:21:45.564+07:00,837091308807908336,-336495,-370816,-388656,-473063
1783776105582298555,2026-07-11T20:21:45.582+07:00,837091309572253008,-336453,-370815,-388591,-473090
1783776105600480373,2026-07-11T20:21:45.600+07:00,837091309572253008,-336416,-370733,-388544,-473002
1783776105618662191,2026-07-11T20:21:45.618+07:00,837091309572253008,-336379,-370743,-388548,-473078
1783776105636844009,2026-07-11T20:21:45.636+07:00,837091309572253008,-336358,-370713,-388534,-473040
1783776105655025827,2026-07-11T20:21:45.655+07:00,837091309572253008,-336418,-370803,-388560,-473060
1783776105673207645,2026-07-11T20:21:45.673+07:00,837091309572253008,-336556,-370852,-388638,-472996
1783776105691389463,2026-07-11T20:21:45.691+07:00,837091309572253008,-336581,-370852,-388678,-472993
1783776105709571281,2026-07-11T20:21:45.709+07:00,837091309572253008,-336741,-370933,-388751,-472970
1783776105727753099,2026-07-11T20:21:45.727+07:00,837091309572253008,-336772,-370987,-388799,-472976
1783776105745934917,2026-07-11T20:21:45.745+07:00,837091309572253008,-336743,-371005,-388793,-472984
1783776105764116735,2026-07-11T20:21:45.764+07:00,837091309572253008,-336812,-371084,-388827,-472986
1783776105782298553,2026-07-11T20:21:45.782+07:00,837091309572253008,-336855,-371082,-388886,-473021
1783776105800480371,2026-07-11T20:21:45.800+07:00,837091309572253008,-336804,-370984,-388818,-472979
1783776105818662189,2026-07-11T20:21:45.818+07:00,837091309572253008,-336870,-371047,-388900,-473049
1783776105836844007,2026-07-11T20:21:45.836+07:00,837091309572253008,-336801,-370981,-388767,-473018
1783776105855025825,2026-07-11T20:21:45.855+07:00,837091309572253008,-336720,-370932,-388748,-473001
1783776105873207643,2026-07-11T20:21:45.873+07:00,837091309572253008,-336765,-370944,-388760,-473028
1783776105891389461,2026-07-11T20:21:45.891+07:00,837091309572253008,-336637,-370888,-388696,-473011
1783776105909571279,2026-07-11T20:21:45.909+07:00,837091309572253008,-336590,-370928,-388654,-473022
1783776105927753097,2026-07-11T20:21:45.927+07:00,837091309572253008,-336566,-370966,-388663,-473005
1783776105945934915,2026-07-11T20:21:45.945+07:00,837091309572253008,-336572,-370907,-388653,-473001
1783776105964116733,2026-07-11T20:21:45.964+07:00,837091309572253008,-336617,-370944,-388694,-473031
1783776105982298551,2026-07-11T20:21:45.982+07:00,837091309572253008,-336635,-370933,-388757,-472996
1783776106000480369,2026-07-11T20:21:46.000+07:00,837091309572253008,-336657,-370901,-388704,-473005
1783776106018662187,2026-07-11T20:21:46.018+07:00,837091309572253008,-336603,-370867,-388609,-472973
1783776106036844005,2026-07-11T20:21:46.036+07:00,837091309572253008,-336527,-370850,-388640,-472949
1783776106055025823,2026-07-11T20:21:46.055+07:00,837091309572253008,-336503,-370755,-388597,-472959
1783776106073207641,2026-07-11T20:21:46.073+07:00,837091309572253008,-336516,-370822,-388587,-472946
1783776106091389459,2026-07-11T20:21:46.091+07:00,837091309572253008,-336461,-370763,-388561,-472986
1783776106109571277,2026-07-11T20:21:46.109+07:00,837091309572253008,-336485,-370794,-388581,-473026
1783776106127753095,2026-07-11T20:21:46.127+07:00,837091309572253008,-336357,-370762,-388510,-472994
1783776106145934913,2026-07-11T20:21:46.145+07:00,837091309572253008,-336291,-370757,-388438,-472958
1783776106164116731,2026-07-11T20:21:46.164+07:00,837091309572253008,-336234,-370705,-388405,-472953
1783776106182298549,2026-07-11T20:21:46.182+07:00,837091309572253008,-336216,-370671,-388356,-472996
1783776106200480367,2026-07-11T20:21:46.200+07:00,837091309572253008,-336157,-370550,-388307,-472978
1783776106218662185,2026-07-11T20:21:46.218+07:00,837091309572253008,-336117,-370579,-388292,-472984
1783776106236844003,2026-07-11T20:21:46.236+07:00,837091309572253008,-336117,-370526,-388265,-473009
1783776106255025821,2026-07-11T20:21:46.255+07:00,837091309572253008,-336033,-370499,-388255,-473024
1783776106273207639,2026-07-11T20:21:46.273+07:00,837091309572253008,-335964,-370487,-388234,-473041
1783776106291389457,2026-07-11T20:21:46.291+07:00,837091309572253008,-335983,-370470,-388218,-473020
1783776106309571275,2026-07-11T20:21:46.309+07:00,837091309572253008,-335891,-370424,-388168,-473061
1783776106327753093,2026-07-11T20:21:46.327+07:00,837091309572253008,-335758,-370267,-388040,-472975
1783776106345934911,2026-07-11T20:21:46.345+07:00,837091310354871859,-335770,-370294,-388066,-473027
1783776106364116729,2026-07-11T20:21:46.364+07:00,837091310354871859,-335687,-370325,-388024,-472995
1783776106382298547,2026-07-11T20:21:46.382+07:00,837091310354871859,-335691,-370342,-388062,-473038
1783776106400480365,2026-07-11T20:21:46.400+07:00,837091310354871859,-335810,-370433,-388155,-473097
1783776106418662183,2026-07-11T20:21:46.418+07:00,837091310354871859,-335808,-370399,-388146,-473044
1783776106436844001,2026-07-11T20:21:46.436+07:00,837091310354871859,-335830,-370415,-388154,-472992
1783776106455025819,2026-07-11T20:21:46.455+07:00,837091310354871859,-335965,-370495,-388252,-473017
1783776106473207637,2026-07-11T20:21:46.473+07:00,837091310354871859,-336040,-370542,-388332,-473041
1783776106491389455,2026-07-11T20:21:46.491+07:00,837091310354871859,-336112,-370554,-388359,-473037
1783776106509571273,2026-07-11T20:21:46.509+07:00,837091310354871859,-336187,-370567,-388376,-473053
1783776106527753091,2026-07-11T20:21:46.527+07:00,837091310354871859,-336182,-370537,-388403,-473083
1783776106545934909,2026-07-11T20:21:46.545+07:00,837091310354871859,-336085,-370495,-388301,-473019
1783776106564116727,2026-07-11T20:21:46.564+07:00,837091310354871859,-336102,-370518,-388297,-472996
1783776106582298545,2026-07-11T20:21:46.582+07:00,837091310354871859,-336061,-370477,-388341,-473007
1783776106600480363,2026-07-11T20:21:46.600+07:00,837091310354871859,-336004,-370492,-388245,-473085
1783776106618662181,2026-07-11T20:21:46.618+07:00,837091310354871859,-335973,-370441,-388258,-473081
1783776106636843999,2026-07-11T20:21:46.636+07:00,837091310354871859,-335932,-370414,-388176,-473013
1783776106655025817,2026-07-11T20:21:46.655+07:00,837091310354871859,-335913,-370387,-388150,-473033
1783776106673207635,2026-07-11T20:21:46.673+07:00,837091310354871859,-335927,-370368,-388183,-472987
1783776106691389453,2026-07-11T20:21:46.691+07:00,837091310354871859,-335819,-370374,-388194,-472980
1783776106709571271,2026-07-11T20:21:46.709+07:00,837091310354871859,-335885,-370386,-388193,-473028
1783776106727753089,2026-07-11T20:21:46.727+07:00,837091310354871859,-335908,-370416,-388194,-473001
1783776106745934907,2026-07-11T20:21:46.745+07:00,837091310354871859,-335876,-370406,-388191,-473043
1783776106764116725,2026-07-11T20:21:46.764+07:00,837091310354871859,-335829,-370364,-388157,-473040
1783776106782298543,2026-07-11T20:21:46.782+07:00,837091310354871859,-335844,-370375,-388103,-473068
1783776106800480361,2026-07-11T20:21:46.800+07:00,837091310354871859,-335735,-370330,-388081,-472980
1783776106818662179,2026-07-11T20:21:46.818+07:00,837091310354871859,-335759,-370374,-388132,-473029
1783776106836843997,2026-07-11T20:21:46.836+07:00,837091310354871859,-335729,-370364,-388124,-472971
1783776106855025815,2026-07-11T20:21:46.855+07:00,837091310354871859,-335671,-370246,-388035,-473031
1783776106873207633,2026-07-11T20:21:46.873+07:00,837091310354871859,-335678,-370242,-388027,-473048
1783776106891389451,2026-07-11T20:21:46.891+07:00,837091310354871859,-335598,-370246,-388014,-473004
1783776106909571269,2026-07-11T20:21:46.909+07:00,837091310354871859,-335523,-370147,-387886,-472962
1783776106927753087,2026-07-11T20:21:46.927+07:00,837091310354871859,-335472,-370107,-387844,-473016
1783776106945934905,2026-07-11T20:21:46.945+07:00,837091310354871859,-335454,-370114,-387873,-473011
1783776106964116723,2026-07-11T20:21:46.964+07:00,837091310354871859,-335410,-370083,-387865,-473046
1783776106982298541,2026-07-11T20:21:46.982+07:00,837091310354871859,-335278,-370028,-387827,-473045
1783776107000480359,2026-07-11T20:21:47.000+07:00,837091310354871859,-335304,-369978,-387844,-473014
1783776107018662177,2026-07-11T20:21:47.018+07:00,837091310354871859,-335255,-369947,-387745,-472982
1783776107036843995,2026-07-11T20:21:47.036+07:00,837091310354871859,-335203,-369892,-387698,-473036
1783776107055025813,2026-07-11T20:21:47.055+07:00,837091310354871859,-335180,-369979,-387734,-473055
1783776107073207631,2026-07-11T20:21:47.073+07:00,837091310354871859,-335124,-369861,-387647,-473045
1783776107091389449,2026-07-11T20:21:47.091+07:00,837091310354871859,-335039,-369803,-387606,-473049
1783776107109571267,2026-07-11T20:21:47.109+07:00,837091310354871859,-334931,-369779,-387573,-472985
1783776107127753085,2026-07-11T20:21:47.127+07:00,837091311210242564,-334969,-369757,-387615,-473002
1783776107145934903,2026-07-11T20:21:47.145+07:00,837091311210242564,-335003,-369787,-387654,-473023
1783776107164116721,2026-07-11T20:21:47.164+07:00,837091311210242564,-335119,-369878,-387746,-473053
1783776107182298539,2026-07-11T20:21:47.182+07:00,837091311210242564,-335157,-369892,-387766,-472985
1783776107200480357,2026-07-11T20:21:47.200+07:00,837091311210242564,-335180,-369918,-387770,-472968
1783776107218662175,2026-07-11T20:21:47.218+07:00,837091311210242564,-335333,-369977,-387884,-473022
1783776107236843993,2026-07-11T20:21:47.236+07:00,837091311210242564,-335430,-370045,-387931,-473030
1783776107255025811,2026-07-11T20:21:47.255+07:00,837091311210242564,-335444,-370057,-387951,-473064
1783776107273207629,2026-07-11T20:21:47.273+07:00,837091311210242564,-335446,-370073,-387897,-473013
1783776107291389447,2026-07-11T20:21:47.291+07:00,837091311210242564,-335437,-370043,-387885,-473048
1783776107309571265,2026-07-11T20:21:47.309+07:00,837091311210242564,-335453,-370024,-387929,-472998
1783776107327753083,2026-07-11T20:21:47.327+07:00,837091311210242564,-335444,-370044,-387861,-473071
1783776107345934901,2026-07-11T20:21:47.345+07:00,837091311210242564,-335389,-369991,-387894,-473032
1783776107364116719,2026-07-11T20:21:47.364+07:00,837091311210242564,-335358,-369971,-387848,-473029
1783776107382298537,2026-07-11T20:21:47.382+07:00,837091311210242564,-335296,-369960,-387817,-473011
1783776107400480355,2026-07-11T20:21:47.400+07:00,837091311210242564,-335330,-369964,-387806,-473052
1783776107418662173,2026-07-11T20:21:47.418+07:00,837091311210242564,-335270,-369929,-387763,-472972
1783776107436843991,2026-07-11T20:21:47.436+07:00,837091311210242564,-335283,-369953,-387758,-473087
1783776107455025809,2026-07-11T20:21:47.455+07:00,837091311210242564,-335230,-369975,-387796,-473041
1783776107473207627,2026-07-11T20:21:47.473+07:00,837091311210242564,-335292,-369904,-387763,-473017
1783776107491389445,2026-07-11T20:21:47.491+07:00,837091311210242564,-335329,-370010,-387822,-473024
1783776107509571263,2026-07-11T20:21:47.509+07:00,837091311210242564,-335286,-369898,-387820,-472947
1783776107527753081,2026-07-11T20:21:47.527+07:00,837091311210242564,-335255,-369914,-387766,-473035
1783776107545934899,2026-07-11T20:21:47.545+07:00,837091311210242564,-335217,-369895,-387767,-473075
1783776107564116717,2026-07-11T20:21:47.564+07:00,837091311210242564,-335202,-369936,-387754,-472999
1783776107582298535,2026-07-11T20:21:47.582+07:00,837091311210242564,-335125,-369858,-387704,-472951
1783776107600480353,2026-07-11T20:21:47.600+07:00,837091311210242564,-335089,-369820,-387693,-472956
1783776107618662171,2026-07-11T20:21:47.618+07:00,837091311210242564,-335105,-369782,-387670,-472982
1783776107636843989,2026-07-11T20:21:47.636+07:00,837091311210242564,-335061,-369801,-387597,-472995
1783776107655025807,2026-07-11T20:21:47.655+07:00,837091311210242564,-335014,-369721,-387622,-473041
1783776107673207625,2026-07-11T20:21:47.673+07:00,837091311210242564,-335009,-369727,-387574,-473000
1783776107691389443,2026-07-11T20:21:47.691+07:00,837091311210242564,-334963,-369699,-387612,-472979
1783776107709571261,2026-07-11T20:21:47.709+07:00,837091311210242564,-334910,-369632,-387527,-472973
1783776107727753079,2026-07-11T20:21:47.727+07:00,837091311210242564,-334857,-369614,-387499,-472962
1783776107745934897,2026-07-11T20:21:47.745+07:00,837091311210242564,-334861,-369577,-387499,-473004
1783776107764116715,2026-07-11T20:21:47.764+07:00,837091311210242564,-334765,-369589,-387444,-473005
1783776107782298533,2026-07-11T20:21:47.782+07:00,837091311210242564,-334735,-369583,-387395,-472943
1783776107800480351,2026-07-11T20:21:47.800+07:00,837091311210242564,-334641,-369497,-387358,-473005
1783776107818662169,2026-07-11T20:21:47.818+07:00,837091311210242564,-334657,-369434,-387311,-473028
1783776107836843987,2026-07-11T20:21:47.836+07:00,837091311210242564,-334625,-369398,-387290,-472984
1783776107855025805,2026-07-11T20:21:47.855+07:00,837091311210242564,-334641,-369503,-387377,-473023
1783776107873207623,2026-07-11T20:21:47.873+07:00,837091311210242564,-334708,-369485,-387456,-473002
1783776107891389441,2026-07-11T20:21:47.891+07:00,837091311210242564,-334718,-369586,-387530,-472963
1783776107909571259,2026-07-11T20:21:47.909+07:00,837091311210242564,-334905,-369641,-387551,-473011
1783776107927753077,2026-07-11T20:21:47.927+07:00,837091311210242564,-334940,-369663,-387571,-472990
1783776107945934895,2026-07-11T20:21:47.945+07:00,837091311210242564,-335020,-369706,-387669,-472982
1783776107964116713,2026-07-11T20:21:47.964+07:00,837091311210242564,-335012,-369750,-387623,-472994
1783776107982298531,2026-07-11T20:21:47.982+07:00,837091312011065410,-335130,-369759,-387675,-472990
1783776108000480349,2026-07-11T20:21:48.000+07:00,837091312011065410,-335080,-369721,-387718,-472977
1783776108018662167,2026-07-11T20:21:48.018+07:00,837091312011065410,-335051,-369751,-387689,-472952
1783776108036843985,2026-07-11T20:21:48.036+07:00,837091312011065410,-335049,-369745,-387648,-472968
1783776108055025803,2026-07-11T20:21:48.055+07:00,837091312011065410,-335032,-369728,-387605,-472971
1783776108073207621,2026-07-11T20:21:48.073+07:00,837091312011065410,-334949,-369663,-387562,-472972
1783776108091389439,2026-07-11T20:21:48.091+07:00,837091312011065410,-334997,-369702,-387629,-473041
1783776108109571257,2026-07-11T20:21:48.109+07:00,837091312011065410,-334989,-369697,-387607,-473050
1783776108127753075,2026-07-11T20:21:48.127+07:00,837091312011065410,-335010,-369652,-387601,-473002
1783776108145934893,2026-07-11T20:21:48.145+07:00,837091312011065410,-335047,-369667,-387647,-473016
1783776108164116711,2026-07-11T20:21:48.164+07:00,837091312011065410,-335035,-369688,-387704,-473007
1783776108182298529,2026-07-11T20:21:48.182+07:00,837091312011065410,-335099,-369761,-387725,-473028
1783776108200480347,2026-07-11T20:21:48.200+07:00,837091312011065410,-335082,-369803,-387697,-473012
1783776108218662165,2026-07-11T20:21:48.218+07:00,837091312011065410,-335146,-369813,-387725,-473033
1783776108236843983,2026-07-11T20:21:48.236+07:00,837091312011065410,-335139,-369861,-387774,-473018
1783776108255025801,2026-07-11T20:21:48.255+07:00,837091312011065410,-335147,-369878,-387800,-473067
1783776108273207619,2026-07-11T20:21:48.273+07:00,837091312011065410,-335210,-369907,-387847,-473044
1783776108291389437,2026-07-11T20:21:48.291+07:00,837091312011065410,-335240,-369912,-387823,-473004
1783776108309571255,2026-07-11T20:21:48.309+07:00,837091312011065410,-335214,-369854,-387840,-472949
1783776108327753073,2026-07-11T20:21:48.327+07:00,837091312011065410,-335172,-369841,-387807,-472997
1783776108345934891,2026-07-11T20:21:48.345+07:00,837091312011065410,-335141,-369781,-387769,-472984
1783776108364116709,2026-07-11T20:21:48.364+07:00,837091312011065410,-335066,-369709,-387701,-472968
1783776108382298527,2026-07-11T20:21:48.382+07:00,837091312011065410,-334981,-369720,-387628,-473078
1783776108400480345,2026-07-11T20:21:48.400+07:00,837091312011065410,-334871,-369690,-387528,-472972
1783776108418662163,2026-07-11T20:21:48.418+07:00,837091312011065410,-334820,-369555,-387461,-472999
1783776108436843981,2026-07-11T20:21:48.436+07:00,837091312011065410,-334741,-369557,-387377,-473028
1783776108455025799,2026-07-11T20:21:48.455+07:00,837091312011065410,-334701,-369427,-387347,-473032
1783776108473207617,2026-07-11T20:21:48.473+07:00,837091312011065410,-334567,-369297,-387215,-473013
1783776108491389435,2026-07-11T20:21:48.491+07:00,837091312011065410,-334515,-369238,-387194,-472985
1783776108509571253,2026-07-11T20:21:48.509+07:00,837091312011065410,-334425,-369146,-387141,-473006
1783776108527753071,2026-07-11T20:21:48.527+07:00,837091312011065410,-334391,-369142,-387138,-472952
1783776108545934889,2026-07-11T20:21:48.545+07:00,837091312011065410,-334513,-369162,-387191,-473014
1783776108564116707,2026-07-11T20:21:48.564+07:00,837091312011065410,-334611,-369276,-387358,-472968
1783776108582298525,2026-07-11T20:21:48.582+07:00,837091312011065410,-334731,-369340,-387427,-472972
1783776108600480343,2026-07-11T20:21:48.600+07:00,837091312011065410,-334849,-369434,-387511,-472989
1783776108618662161,2026-07-11T20:21:48.618+07:00,837091312011065410,-334863,-369465,-387514,-472990
1783776108636843979,2026-07-11T20:21:48.636+07:00,837091312011065410,-334960,-369539,-387561,-472994
1783776108655025797,2026-07-11T20:21:48.655+07:00,837091312011065410,-335039,-369554,-387580,-473000
1783776108673207615,2026-07-11T20:21:48.673+07:00,837091312011065410,-335104,-369576,-387643,-473009
1783776108691389433,2026-07-11T20:21:48.691+07:00,837091312011065410,-335178,-369648,-387647,-473026
1783776108709571251,2026-07-11T20:21:48.709+07:00,837091312011065410,-335222,-369699,-387778,-473045
1783776108727753069,2026-07-11T20:21:48.727+07:00,837091312011065410,-335230,-369718,-387793,-473002
1783776108745934887,2026-07-11T20:21:48.745+07:00,837091312011065410,-335250,-369747,-387860,-472972
1783776108764116705,2026-07-11T20:21:48.764+07:00,837091312011065410,-335293,-369781,-387947,-473002
1783776108782298523,2026-07-11T20:21:48.782+07:00,837091312848198562,-335351,-369813,-387920,-472989
1783776108800480341,2026-07-11T20:21:48.800+07:00,837091312848198562,-335316,-369832,-387980,-472979
1783776108818662159,2026-07-11T20:21:48.818+07:00,837091312848198562,-335367,-369802,-387891,-473018
1783776108836843977,2026-07-11T20:21:48.836+07:00,837091312848198562,-335410,-369867,-387977,-473047
1783776108855025795,2026-07-11T20:21:48.855+07:00,837091312848198562,-335359,-369813,-387990,-472945
1783776108873207613,2026-07-11T20:21:48.873+07:00,837091312848198562,-335396,-369915,-387992,-472960
1783776108891389431,2026-07-11T20:21:48.891+07:00,837091312848198562,-335430,-369927,-388005,-472970
1783776108909571249,2026-07-11T20:21:48.909+07:00,837091312848198562,-335496,-369961,-388080,-473057
1783776108927753067,2026-07-11T20:21:48.927+07:00,837091312848198562,-335525,-370063,-388134,-473067
1783776108945934885,2026-07-11T20:21:48.945+07:00,837091312848198562,-335481,-369963,-388072,-472979
1783776108964116703,2026-07-11T20:21:48.964+07:00,837091312848198562,-335459,-370010,-388082,-473027
1783776108982298521,2026-07-11T20:21:48.982+07:00,837091312848198562,-335459,-369993,-388022,-473003
1783776109000480339,2026-07-11T20:21:49.000+07:00,837091312848198562,-335392,-369933,-388007,-472953
1783776109018662157,2026-07-11T20:21:49.018+07:00,837091312848198562,-335353,-369901,-387927,-472958
1783776109036843975,2026-07-11T20:21:49.036+07:00,837091312848198562,-335391,-369908,-387949,-473016
1783776109055025793,2026-07-11T20:21:49.055+07:00,837091312848198562,-335317,-369824,-387944,-473020
1783776109073207611,2026-07-11T20:21:49.073+07:00,837091312848198562,-335317,-369850,-387898,-473054
1783776109091389429,2026-07-11T20:21:49.091+07:00,837091312848198562,-335273,-369766,-387944,-473028
1783776109109571247,2026-07-11T20:21:49.109+07:00,837091312848198562,-335238,-369786,-387903,-472972
1783776109127753065,2026-07-11T20:21:49.127+07:00,837091312848198562,-335226,-369792,-387855,-472943
1783776109145934883,2026-07-11T20:21:49.145+07:00,837091312848198562,-335176,-369800,-387880,-472981
1783776109164116701,2026-07-11T20:21:49.164+07:00,837091312848198562,-335186,-369777,-387884,-473026
1783776109182298519,2026-07-11T20:21:49.182+07:00,837091312848198562,-335117,-369726,-387818,-473007
1783776109200480337,2026-07-11T20:21:49.200+07:00,837091312848198562,-335147,-369745,-387835,-473070
1783776109218662155,2026-07-11T20:21:49.218+07:00,837091312848198562,-335153,-369751,-387885,-473015
1783776109236843973,2026-07-11T20:21:49.236+07:00,837091312848198562,-335240,-369801,-387943,-473010
1783776109255025791,2026-07-11T20:21:49.255+07:00,837091312848198562,-335309,-369837,-388010,-472947
1783776109273207609,2026-07-11T20:21:49.273+07:00,837091312848198562,-335488,-370022,-388146,-473041
1783776109291389427,2026-07-11T20:21:49.291+07:00,837091312848198562,-335593,-370050,-388244,-472969
1783776109309571245,2026-07-11T20:21:49.309+07:00,837091312848198562,-335678,-370093,-388277,-472963
1783776109327753063,2026-07-11T20:21:49.327+07:00,837091312848198562,-335787,-370154,-388339,-473006
1783776109345934881,2026-07-11T20:21:49.345+07:00,837091312848198562,-335909,-370199,-388420,-473009
1783776109364116699,2026-07-11T20:21:49.364+07:00,837091312848198562,-335903,-370260,-388439,-473018
1783776109382298517,2026-07-11T20:21:49.382+07:00,837091312848198562,-335858,-370243,-388420,-473004
1783776109400480335,2026-07-11T20:21:49.400+07:00,837091312848198562,-335940,-370294,-388434,-472983
1783776109418662153,2026-07-11T20:21:49.418+07:00,837091312848198562,-336000,-370312,-388451,-473066
1783776109436843971,2026-07-11T20:21:49.436+07:00,837091312848198562,-335924,-370308,-388447,-473035
1783776109455025789,2026-07-11T20:21:49.455+07:00,837091312848198562,-335967,-370280,-388458,-473011
1783776109473207607,2026-07-11T20:21:49.473+07:00,837091312848198562,-335947,-370285,-388465,-473049
1783776109491389425,2026-07-11T20:21:49.491+07:00,837091312848198562,-336015,-370337,-388539,-473015
1783776109509571243,2026-07-11T20:21:49.509+07:00,837091312848198562,-336054,-370380,-388503,-472998
1783776109527753061,2026-07-11T20:21:49.527+07:00,837091312848198562,-336085,-370395,-388582,-472999
1783776109545934879,2026-07-11T20:21:49.545+07:00,837091312848198562,-336088,-370341,-388579,-473012
1783776109564116697,2026-07-11T20:21:49.564+07:00,837091312848198562,-336109,-370401,-388620,-473036
1783776109582298515,2026-07-11T20:21:49.582+07:00,837091312848198562,-336132,-370387,-388590,-473010
1783776109600480333,2026-07-11T20:21:49.600+07:00,837091312848198562,-336176,-370420,-388605,-473058
1783776109618662151,2026-07-11T20:21:49.618+07:00,837091313685368338,-336198,-370420,-388648,-473014
1783776109636843969,2026-07-11T20:21:49.636+07:00,837091313685368338,-336249,-370467,-388657,-473032
1783776109655025787,2026-07-11T20:21:49.655+07:00,837091313685368338,-336168,-370401,-388673,-473067
1783776109673207605,2026-07-11T20:21:49.673+07:00,837091313685368338,-336147,-370403,-388648,-472992
1783776109691389423,2026-07-11T20:21:49.691+07:00,837091313685368338,-336192,-370390,-388614,-473027
1783776109709571241,2026-07-11T20:21:49.709+07:00,837091313685368338,-336144,-370383,-388613,-473007
1783776109727753059,2026-07-11T20:21:49.727+07:00,837091313685368338,-336180,-370374,-388577,-473015
1783776109745934877,2026-07-11T20:21:49.745+07:00,837091313685368338,-336129,-370324,-388545,-472994
1783776109764116695,2026-07-11T20:21:49.764+07:00,837091313685368338,-336101,-370311,-388542,-472955
1783776109782298513,2026-07-11T20:21:49.782+07:00,837091313685368338,-336063,-370305,-388543,-472968
1783776109800480331,2026-07-11T20:21:49.800+07:00,837091313685368338,-336078,-370291,-388533,-473001
1783776109818662149,2026-07-11T20:21:49.818+07:00,837091313685368338,-335985,-370244,-388531,-472962
1783776109836843967,2026-07-11T20:21:49.836+07:00,837091313685368338,-335969,-370279,-388467,-472956
1783776109855025785,2026-07-11T20:21:49.855+07:00,837091313685368338,-335897,-370234,-388468,-473013
1783776109873207603,2026-07-11T20:21:49.873+07:00,837091313685368338,-335891,-370198,-388479,-473014
1783776109891389421,2026-07-11T20:21:49.891+07:00,837091313685368338,-335986,-370223,-388543,-472995
1783776109909571239,2026-07-11T20:21:49.909+07:00,837091313685368338,-336035,-370305,-388585,-473036
1783776109927753057,2026-07-11T20:21:49.927+07:00,837091313685368338,-336123,-370349,-388649,-472983
1783776109945934875,2026-07-11T20:21:49.945+07:00,837091313685368338,-336200,-370443,-388731,-472936
1783776109964116693,2026-07-11T20:21:49.964+07:00,837091313685368338,-336437,-370585,-388876,-473028
1783776109982298511,2026-07-11T20:21:49.982+07:00,837091313685368338,-336567,-370603,-388956,-472977
1783776110000480329,2026-07-11T20:21:50.000+07:00,837091313685368338,-336690,-370657,-389084,-472983
1783776110018662147,2026-07-11T20:21:50.018+07:00,837091313685368338,-336727,-370773,-389134,-472982
1783776110036843965,2026-07-11T20:21:50.036+07:00,837091313685368338,-336851,-370877,-389203,-473039
1783776110055025783,2026-07-11T20:21:50.055+07:00,837091313685368338,-336857,-370860,-389201,-473026
1783776110073207601,2026-07-11T20:21:50.073+07:00,837091313685368338,-336858,-370832,-389217,-473061
1783776110091389419,2026-07-11T20:21:50.091+07:00,837091313685368338,-336823,-370823,-389162,-473024
1783776110109571237,2026-07-11T20:21:50.109+07:00,837091313685368338,-336873,-370864,-389225,-473012
1783776110127753055,2026-07-11T20:21:50.127+07:00,837091313685368338,-336878,-370826,-389238,-473027
1783776110145934873,2026-07-11T20:21:50.145+07:00,837091313685368338,-336854,-370791,-389200,-472999
1783776110164116691,2026-07-11T20:21:50.164+07:00,837091313685368338,-336911,-370907,-389261,-472966
1783776110182298509,2026-07-11T20:21:50.182+07:00,837091313685368338,-336887,-370851,-389285,-472948
1783776110200480327,2026-07-11T20:21:50.200+07:00,837091313685368338,-336927,-370929,-389297,-472972
1783776110218662145,2026-07-11T20:21:50.218+07:00,837091313685368338,-336985,-370903,-389328,-472972
1783776110236843963,2026-07-11T20:21:50.236+07:00,837091313685368338,-337035,-370922,-389350,-472997
1783776110255025781,2026-07-11T20:21:50.255+07:00,837091313685368338,-337053,-370946,-389394,-472971
1783776110273207599,2026-07-11T20:21:50.273+07:00,837091313685368338,-337147,-371051,-389461,-472998
1783776110291389417,2026-07-11T20:21:50.291+07:00,837091313685368338,-337112,-370975,-389397,-473004
1783776110309571235,2026-07-11T20:21:50.309+07:00,837091313685368338,-337039,-370984,-389456,-472948
1783776110327753053,2026-07-11T20:21:50.327+07:00,837091313685368338,-337057,-370996,-389386,-472964
1783776110345934871,2026-07-11T20:21:50.345+07:00,837091313685368338,-337114,-371029,-389448,-473018
1783776110364116689,2026-07-11T20:21:50.364+07:00,837091313685368338,-337085,-371053,-389427,-472998
1783776110382298507,2026-07-11T20:21:50.382+07:00,837091313685368338,-337057,-371012,-389365,-472944
1783776110400480325,2026-07-11T20:21:50.400+07:00,837091313685368338,-337093,-371019,-389380,-473031
1783776110418662143,2026-07-11T20:21:50.418+07:00,837091313685368338,-337102,-371029,-389466,-473060
1783776110436843961,2026-07-11T20:21:50.436+07:00,837091313685368338,-337055,-370997,-389404,-473010
1783776110455025779,2026-07-11T20:21:50.455+07:00,837091314522553370,-336964,-371004,-389409,-472985
1783776110473207597,2026-07-11T20:21:50.473+07:00,837091314522553370,-336979,-370963,-389407,-473006
1783776110491389415,2026-07-11T20:21:50.491+07:00,837091314522553370,-336991,-370926,-389359,-473017
1783776110509571233,2026-07-11T20:21:50.509+07:00,837091314522553370,-336995,-370932,-389420,-473031
1783776110527753051,2026-07-11T20:21:50.527+07:00,837091314522553370,-336892,-370932,-389346,-472995
1783776110545934869,2026-07-11T20:21:50.545+07:00,837091314522553370,-336944,-370874,-389336,-473005
1783776110564116687,2026-07-11T20:21:50.564+07:00,837091314522553370,-336872,-370909,-389277,-473049
1783776110582298505,2026-07-11T20:21:50.582+07:00,837091314522553370,-336853,-370860,-389281,-473035
1783776110600480323,2026-07-11T20:21:50.600+07:00,837091314522553370,-336860,-370911,-389331,-472944
1783776110618662141,2026-07-11T20:21:50.618+07:00,837091314522553370,-336983,-370970,-389449,-473066
1783776110636843959,2026-07-11T20:21:50.636+07:00,837091314522553370,-337167,-371035,-389558,-473060
1783776110655025777,2026-07-11T20:21:50.655+07:00,837091314522553370,-337322,-371204,-389708,-473103
1783776110673207595,2026-07-11T20:21:50.673+07:00,837091314522553370,-337357,-371249,-389741,-473010
1783776110691389413,2026-07-11T20:21:50.691+07:00,837091314522553370,-337490,-371284,-389826,-473037
1783776110709571231,2026-07-11T20:21:50.709+07:00,837091314522553370,-337640,-371386,-389935,-472986
1783776110727753049,2026-07-11T20:21:50.727+07:00,837091314522553370,-337636,-371421,-389930,-472893
1783776110745934867,2026-07-11T20:21:50.745+07:00,837091314522553370,-337731,-371466,-389975,-472978
1783776110764116685,2026-07-11T20:21:50.764+07:00,837091314522553370,-337712,-371465,-390044,-473011
1783776110782298503,2026-07-11T20:21:50.782+07:00,837091314522553370,-337709,-371496,-389961,-472987
1783776110800480321,2026-07-11T20:21:50.800+07:00,837091314522553370,-337701,-371467,-389950,-473079
1783776110818662139,2026-07-11T20:21:50.818+07:00,837091314522553370,-337662,-371465,-389980,-473035
1783776110836843957,2026-07-11T20:21:50.836+07:00,837091314522553370,-337723,-371464,-389976,-473037
1783776110855025775,2026-07-11T20:21:50.855+07:00,837091314522553370,-337803,-371530,-390042,-473038
1783776110873207593,2026-07-11T20:21:50.873+07:00,837091314522553370,-337797,-371569,-390120,-473026
1783776110891389411,2026-07-11T20:21:50.891+07:00,837091314522553370,-337807,-371535,-390059,-472985
1783776110909571229,2026-07-11T20:21:50.909+07:00,837091314522553370,-337793,-371538,-390077,-472990
1783776110927753047,2026-07-11T20:21:50.927+07:00,837091314522553370,-337818,-371621,-390104,-473009
1783776110945934865,2026-07-11T20:21:50.945+07:00,837091314522553370,-337815,-371581,-390063,-473004
1783776110964116683,2026-07-11T20:21:50.964+07:00,837091314522553370,-337852,-371586,-390165,-473061
1783776110982298501,2026-07-11T20:21:50.982+07:00,837091314522553370,-337934,-371557,-390131,-472980
1783776111000480319,2026-07-11T20:21:51.000+07:00,837091314522553370,-337909,-371576,-390201,-473063
1783776111018662137,2026-07-11T20:21:51.018+07:00,837091314522553370,-337930,-371645,-390191,-473001
1783776111036843955,2026-07-11T20:21:51.036+07:00,837091314522553370,-337879,-371542,-390175,-473012
1783776111055025773,2026-07-11T20:21:51.055+07:00,837091314522553370,-337895,-371568,-390167,-473014
1783776111073207591,2026-07-11T20:21:51.073+07:00,837091314522553370,-337867,-371609,-390143,-473003
1783776111091389409,2026-07-11T20:21:51.091+07:00,837091314522553370,-337881,-371521,-390120,-473022
1783776111109571227,2026-07-11T20:21:51.109+07:00,837091314522553370,-337811,-371570,-390082,-473023
1783776111127753045,2026-07-11T20:21:51.127+07:00,837091314522553370,-337774,-371533,-390129,-472983
1783776111145934863,2026-07-11T20:21:51.145+07:00,837091314522553370,-337767,-371543,-390108,-472969
1783776111164116681,2026-07-11T20:21:51.164+07:00,837091314522553370,-337694,-371432,-390040,-473045
1783776111182298499,2026-07-11T20:21:51.182+07:00,837091314522553370,-337698,-371495,-390010,-472982
1783776111200480317,2026-07-11T20:21:51.200+07:00,837091314522553370,-337658,-371415,-390034,-473035
1783776111218662135,2026-07-11T20:21:51.218+07:00,837091314522553370,-337612,-371453,-389949,-473002
1783776111236843953,2026-07-11T20:21:51.236+07:00,837091314522553370,-337571,-371382,-389908,-472989
1783776111255025771,2026-07-11T20:21:51.255+07:00,837091314522553370,-337542,-371341,-389891,-472990
1783776111273207589,2026-07-11T20:21:51.273+07:00,837091314522553370,-337500,-371292,-389810,-472950
1783776111291389407,2026-07-11T20:21:51.291+07:00,837091315305127975,-337423,-371253,-389837,-472977
1783776111309571225,2026-07-11T20:21:51.309+07:00,837091315305127975,-337453,-371273,-389883,-473002
1783776111327753043,2026-07-11T20:21:51.327+07:00,837091315305127975,-337589,-371391,-389980,-473033
1783776111345934861,2026-07-11T20:21:51.345+07:00,837091315305127975,-337631,-371437,-390031,-473037
1783776111364116679,2026-07-11T20:21:51.364+07:00,837091315305127975,-337761,-371540,-390112,-473060
1783776111382298497,2026-07-11T20:21:51.382+07:00,837091315305127975,-337849,-371577,-390232,-472969
1783776111400480315,2026-07-11T20:21:51.400+07:00,837091315305127975,-337990,-371656,-390297,-472950
1783776111418662133,2026-07-11T20:21:51.418+07:00,837091315305127975,-338069,-371829,-390394,-472986
1783776111436843951,2026-07-11T20:21:51.436+07:00,837091315305127975,-338229,-371842,-390502,-473010
1783776111455025769,2026-07-11T20:21:51.455+07:00,837091315305127975,-338187,-371857,-390532,-472996
1783776111473207587,2026-07-11T20:21:51.473+07:00,837091315305127975,-338229,-371922,-390520,-473029
1783776111491389405,2026-07-11T20:21:51.491+07:00,837091315305127975,-338305,-371926,-390551,-473046
1783776111509571223,2026-07-11T20:21:51.509+07:00,837091315305127975,-338179,-371855,-390463,-472989
1783776111527753041,2026-07-11T20:21:51.527+07:00,837091315305127975,-338199,-371843,-390472,-473035
1783776111545934859,2026-07-11T20:21:51.545+07:00,837091315305127975,-338164,-371873,-390490,-473038
1783776111564116677,2026-07-11T20:21:51.564+07:00,837091315305127975,-338167,-371856,-390422,-472987
1783776111582298495,2026-07-11T20:21:51.582+07:00,837091315305127975,-338246,-371900,-390452,-473006
1783776111600480313,2026-07-11T20:21:51.600+07:00,837091315305127975,-338234,-371866,-390472,-473004
1783776111618662131,2026-07-11T20:21:51.618+07:00,837091315305127975,-338318,-371976,-390523,-472993
1783776111636843949,2026-07-11T20:21:51.636+07:00,837091315305127975,-338267,-371899,-390480,-472976
1783776111655025767,2026-07-11T20:21:51.655+07:00,837091315305127975,-338311,-371920,-390578,-472998
1783776111673207585,2026-07-11T20:21:51.673+07:00,837091315305127975,-338301,-371920,-390583,-473023
1783776111691389403,2026-07-11T20:21:51.691+07:00,837091315305127975,-338339,-371997,-390574,-473014
1783776111709571221,2026-07-11T20:21:51.709+07:00,837091315305127975,-338265,-371943,-390555,-472946
1783776111727753039,2026-07-11T20:21:51.727+07:00,837091315305127975,-338305,-372004,-390535,-473001
1783776111745934857,2026-07-11T20:21:51.745+07:00,837091315305127975,-338374,-371933,-390583,-473039
1783776111764116675,2026-07-11T20:21:51.764+07:00,837091315305127975,-338305,-371919,-390553,-473010
1783776111782298493,2026-07-11T20:21:51.782+07:00,837091315305127975,-338291,-371950,-390556,-472992
1783776111800480311,2026-07-11T20:21:51.800+07:00,837091315305127975,-338294,-371884,-390588,-473061
1783776111818662129,2026-07-11T20:21:51.818+07:00,837091315305127975,-338190,-371888,-390578,-473003
1783776111836843947,2026-07-11T20:21:51.836+07:00,837091315305127975,-338171,-371900,-390522,-472975
1783776111855025765,2026-07-11T20:21:51.855+07:00,837091315305127975,-338186,-371837,-390556,-472972
1783776111873207583,2026-07-11T20:21:51.873+07:00,837091315305127975,-338174,-371824,-390404,-472994
1783776111891389401,2026-07-11T20:21:51.891+07:00,837091315305127975,-338142,-371787,-390452,-472961
1783776111909571219,2026-07-11T20:21:51.909+07:00,837091315305127975,-338093,-371782,-390466,-472979
1783776111927753037,2026-07-11T20:21:51.927+07:00,837091315305127975,-338096,-371788,-390449,-472992
1783776111945934855,2026-07-11T20:21:51.945+07:00,837091315305127975,-338058,-371803,-390442,-472948
1783776111964116673,2026-07-11T20:21:51.964+07:00,837091315305127975,-337979,-371753,-390373,-472961
1783776111982298491,2026-07-11T20:21:51.982+07:00,837091315305127975,-337978,-371751,-390395,-472902
1783776112000480309,2026-07-11T20:21:52.000+07:00,837091315305127975,-338080,-371849,-390454,-472905
1783776112018662127,2026-07-11T20:21:52.018+07:00,837091315305127975,-338213,-371971,-390599,-472942
1783776112036843945,2026-07-11T20:21:52.036+07:00,837091315305127975,-338318,-371975,-390626,-472984
1783776112055025763,2026-07-11T20:21:52.055+07:00,837091315305127975,-338511,-372061,-390810,-472973
1783776112073207581,2026-07-11T20:21:52.073+07:00,837091316160500210,-338594,-372154,-390887,-472950
1783776112091389399,2026-07-11T20:21:52.091+07:00,837091316160500210,-338663,-372240,-390928,-472981
1783776112109571217,2026-07-11T20:21:52.109+07:00,837091316160500210,-338736,-372320,-390981,-473002
1783776112127753035,2026-07-11T20:21:52.127+07:00,837091316160500210,-338747,-372312,-391000,-472965
1783776112145934853,2026-07-11T20:21:52.145+07:00,837091316160500210,-338814,-372377,-391039,-473014
1783776112164116671,2026-07-11T20:21:52.164+07:00,837091316160500210,-338823,-372347,-391000,-473045
1783776112182298489,2026-07-11T20:21:52.182+07:00,837091316160500210,-338856,-372378,-391073,-473052
1783776112200480307,2026-07-11T20:21:52.200+07:00,837091316160500210,-338803,-372347,-390968,-473012
1783776112218662125,2026-07-11T20:21:52.218+07:00,837091316160500210,-338781,-372346,-391035,-473003
1783776112236843943,2026-07-11T20:21:52.236+07:00,837091316160500210,-338784,-372349,-391004,-473011
1783776112255025761,2026-07-11T20:21:52.255+07:00,837091316160500210,-338796,-372397,-391053,-473022
1783776112273207579,2026-07-11T20:21:52.273+07:00,837091316160500210,-338804,-372367,-391053,-473054
1783776112291389397,2026-07-11T20:21:52.291+07:00,837091316160500210,-338871,-372385,-391031,-473032
1783776112309571215,2026-07-11T20:21:52.309+07:00,837091316160500210,-338925,-372396,-391078,-473005
1783776112327753033,2026-07-11T20:21:52.327+07:00,837091316160500210,-338879,-372386,-391062,-472968
1783776112345934851,2026-07-11T20:21:52.345+07:00,837091316160500210,-338860,-372345,-391053,-472954
1783776112364116669,2026-07-11T20:21:52.364+07:00,837091316160500210,-338892,-372467,-391103,-473066
1783776112382298487,2026-07-11T20:21:52.382+07:00,837091316160500210,-338815,-372388,-391014,-472965
1783776112400480305,2026-07-11T20:21:52.400+07:00,837091316160500210,-338905,-372402,-391015,-473038
1783776112418662123,2026-07-11T20:21:52.418+07:00,837091316160500210,-338895,-372437,-391088,-473057
1783776112436843941,2026-07-11T20:21:52.436+07:00,837091316160500210,-338902,-372467,-391059,-473053
1783776112455025759,2026-07-11T20:21:52.455+07:00,837091316160500210,-338785,-372390,-391062,-473041
1783776112473207577,2026-07-11T20:21:52.473+07:00,837091316160500210,-338734,-372360,-390986,-473000
1783776112491389395,2026-07-11T20:21:52.491+07:00,837091316160500210,-338715,-372393,-390969,-472959
1783776112509571213,2026-07-11T20:21:52.509+07:00,837091316160500210,-338708,-372335,-390941,-473026
1783776112527753031,2026-07-11T20:21:52.527+07:00,837091316160500210,-338669,-372332,-390931,-473034
1783776112545934849,2026-07-11T20:21:52.545+07:00,837091316160500210,-338668,-372319,-390973,-473029
1783776112564116667,2026-07-11T20:21:52.564+07:00,837091316160500210,-338597,-372281,-390879,-473016
1783776112582298485,2026-07-11T20:21:52.582+07:00,837091316160500210,-338499,-372243,-390853,-472954
1783776112600480303,2026-07-11T20:21:52.600+07:00,837091316160500210,-338506,-372229,-390786,-473041
1783776112618662121,2026-07-11T20:21:52.618+07:00,837091316160500210,-338473,-372231,-390778,-473007
1783776112636843939,2026-07-11T20:21:52.636+07:00,837091316160500210,-338410,-372140,-390762,-473026
1783776112655025757,2026-07-11T20:21:52.655+07:00,837091316160500210,-338477,-372183,-390748,-473026
1783776112673207575,2026-07-11T20:21:52.673+07:00,837091316160500210,-338411,-372207,-390739,-473036
1783776112691389393,2026-07-11T20:21:52.691+07:00,837091316160500210,-338520,-372253,-390891,-473033
1783776112709571211,2026-07-11T20:21:52.709+07:00,837091316160500210,-338627,-372376,-391012,-473086
1783776112727753029,2026-07-11T20:21:52.727+07:00,837091316160500210,-338761,-372441,-391126,-473039
1783776112745934847,2026-07-11T20:21:52.745+07:00,837091316160500210,-338949,-372538,-391255,-473029
1783776112764116665,2026-07-11T20:21:52.764+07:00,837091316160500210,-339036,-372634,-391258,-472967
1783776112782298483,2026-07-11T20:21:52.782+07:00,837091316160500210,-339047,-372711,-391227,-473009
1783776112800480301,2026-07-11T20:21:52.800+07:00,837091316160500210,-339161,-372742,-391366,-473055
1783776112818662119,2026-07-11T20:21:52.818+07:00,837091316160500210,-339146,-372713,-391387,-472986
1783776112836843937,2026-07-11T20:21:52.836+07:00,837091316160500210,-339293,-372759,-391421,-473037
1783776112855025755,2026-07-11T20:21:52.855+07:00,837091316160500210,-339236,-372780,-391435,-473054
1783776112873207573,2026-07-11T20:21:52.873+07:00,837091316160500210,-339182,-372815,-391389,-473024
1783776112891389391,2026-07-11T20:21:52.891+07:00,837091316160500210,-339214,-372797,-391399,-473040
1783776112909571209,2026-07-11T20:21:52.909+07:00,837091316160500210,-339228,-372862,-391384,-473086
1783776112927753027,2026-07-11T20:21:52.927+07:00,837091316997673036,-339257,-372861,-391363,-473049
1783776112945934845,2026-07-11T20:21:52.945+07:00,837091316997673036,-339226,-372799,-391319,-473014
1783776112964116663,2026-07-11T20:21:52.964+07:00,837091316997673036,-339281,-372816,-391397,-473052
1783776112982298481,2026-07-11T20:21:52.982+07:00,837091316997673036,-339311,-372815,-391433,-473028
1783776113000480299,2026-07-11T20:21:53.000+07:00,837091316997673036,-339325,-372865,-391402,-473044
1783776113018662117,2026-07-11T20:21:53.018+07:00,837091316997673036,-339336,-372928,-391471,-473050
1783776113036843935,2026-07-11T20:21:53.036+07:00,837091316997673036,-339330,-372926,-391406,-473071
1783776113055025753,2026-07-11T20:21:53.055+07:00,837091316997673036,-339347,-372943,-391425,-473027
1783776113073207571,2026-07-11T20:21:53.073+07:00,837091316997673036,-339329,-372895,-391464,-473013
1783776113091389389,2026-07-11T20:21:53.091+07:00,837091316997673036,-339391,-372940,-391505,-473051
1783776113109571207,2026-07-11T20:21:53.109+07:00,837091316997673036,-339296,-372888,-391425,-473083
1783776113127753025,2026-07-11T20:21:53.127+07:00,837091316997673036,-339322,-372973,-391465,-473077
1783776113145934843,2026-07-11T20:21:53.145+07:00,837091316997673036,-339328,-372958,-391436,-473045
1783776113164116661,2026-07-11T20:21:53.164+07:00,837091316997673036,-339228,-372795,-391342,-472980
1783776113182298479,2026-07-11T20:21:53.182+07:00,837091316997673036,-339270,-372876,-391348,-473068
1783776113200480297,2026-07-11T20:21:53.200+07:00,837091316997673036,-339165,-372809,-391270,-473004
1783776113218662115,2026-07-11T20:21:53.218+07:00,837091316997673036,-339152,-372847,-391281,-473050
1783776113236843933,2026-07-11T20:21:53.236+07:00,837091316997673036,-339133,-372828,-391285,-473004
1783776113255025751,2026-07-11T20:21:53.255+07:00,837091316997673036,-339031,-372782,-391231,-472988
1783776113273207569,2026-07-11T20:21:53.273+07:00,837091316997673036,-339040,-372745,-391209,-473000
1783776113291389387,2026-07-11T20:21:53.291+07:00,837091316997673036,-338963,-372675,-391155,-473031
1783776113309571205,2026-07-11T20:21:53.309+07:00,837091316997673036,-338934,-372617,-391160,-472988
1783776113327753023,2026-07-11T20:21:53.327+07:00,837091316997673036,-338959,-372667,-391144,-473007
1783776113345934841,2026-07-11T20:21:53.345+07:00,837091316997673036,-338940,-372699,-391127,-472950
1783776113364116659,2026-07-11T20:21:53.364+07:00,837091316997673036,-338991,-372736,-391157,-473013
1783776113382298477,2026-07-11T20:21:53.382+07:00,837091316997673036,-339121,-372816,-391293,-473020
1783776113400480295,2026-07-11T20:21:53.400+07:00,837091316997673036,-339262,-372892,-391396,-472995
1783776113418662113,2026-07-11T20:21:53.418+07:00,837091316997673036,-339346,-373037,-391558,-473005
1783776113436843931,2026-07-11T20:21:53.436+07:00,837091316997673036,-339506,-373075,-391600,-472983
1783776113455025749,2026-07-11T20:21:53.455+07:00,837091316997673036,-339636,-373166,-391664,-473030
1783776113473207567,2026-07-11T20:21:53.473+07:00,837091316997673036,-339725,-373241,-391745,-473035
1783776113491389385,2026-07-11T20:21:53.491+07:00,837091316997673036,-339701,-373212,-391660,-472995
1783776113509571203,2026-07-11T20:21:53.509+07:00,837091316997673036,-339663,-373281,-391717,-472994
1783776113527753021,2026-07-11T20:21:53.527+07:00,837091316997673036,-339732,-373270,-391771,-473034
1783776113545934839,2026-07-11T20:21:53.545+07:00,837091316997673036,-339731,-373265,-391723,-472995
1783776113564116657,2026-07-11T20:21:53.564+07:00,837091316997673036,-339720,-373251,-391715,-473019
1783776113582298475,2026-07-11T20:21:53.582+07:00,837091316997673036,-339732,-373301,-391702,-473030
1783776113600480293,2026-07-11T20:21:53.600+07:00,837091316997673036,-339684,-373347,-391727,-472962
1783776113618662111,2026-07-11T20:21:53.618+07:00,837091316997673036,-339744,-373332,-391736,-473024
1783776113636843929,2026-07-11T20:21:53.636+07:00,837091316997673036,-339707,-373277,-391702,-472990
1783776113655025747,2026-07-11T20:21:53.655+07:00,837091316997673036,-339757,-373347,-391728,-473058
1783776113673207565,2026-07-11T20:21:53.673+07:00,837091316997673036,-339730,-373334,-391734,-473066
1783776113691389383,2026-07-11T20:21:53.691+07:00,837091316997673036,-339812,-373339,-391780,-473003
1783776113709571201,2026-07-11T20:21:53.709+07:00,837091316997673036,-339743,-373332,-391769,-472967
1783776113727753019,2026-07-11T20:21:53.727+07:00,837091316997673036,-339862,-373372,-391786,-473015
1783776113745934837,2026-07-11T20:21:53.745+07:00,837091316997673036,-339806,-373421,-391736,-472985
1783776113764116655,2026-07-11T20:21:53.764+07:00,837091317834815350,-339785,-373411,-391787,-473013
1783776113782298473,2026-07-11T20:21:53.782+07:00,837091317834815350,-339781,-373351,-391726,-473066
1783776113800480291,2026-07-11T20:21:53.800+07:00,837091317834815350,-339770,-373353,-391726,-473035
1783776113818662109,2026-07-11T20:21:53.818+07:00,837091317834815350,-339689,-373323,-391630,-472972
1783776113836843927,2026-07-11T20:21:53.836+07:00,837091317834815350,-339671,-373313,-391673,-473035
1783776113855025745,2026-07-11T20:21:53.855+07:00,837091317834815350,-339636,-373246,-391648,-473062
1783776113873207563,2026-07-11T20:21:53.873+07:00,837091317834815350,-339564,-373270,-391642,-473046
1783776113891389381,2026-07-11T20:21:53.891+07:00,837091317834815350,-339547,-373179,-391509,-472992
1783776113909571199,2026-07-11T20:21:53.909+07:00,837091317834815350,-339503,-373115,-391526,-473000
1783776113927753017,2026-07-11T20:21:53.927+07:00,837091317834815350,-339440,-373109,-391522,-472946
1783776113945934835,2026-07-11T20:21:53.945+07:00,837091317834815350,-339462,-373170,-391524,-473016
1783776113964116653,2026-07-11T20:21:53.964+07:00,837091317834815350,-339383,-373080,-391474,-472948
1783776113982298471,2026-07-11T20:21:53.982+07:00,837091317834815350,-339318,-373020,-391413,-472984
1783776114000480289,2026-07-11T20:21:54.000+07:00,837091317834815350,-339229,-373006,-391414,-472990
1783776114018662107,2026-07-11T20:21:54.018+07:00,837091317834815350,-339241,-372995,-391348,-473030
1783776114036843925,2026-07-11T20:21:54.036+07:00,837091317834815350,-339156,-372912,-391274,-472959
1783776114055025743,2026-07-11T20:21:54.055+07:00,837091317834815350,-339173,-372972,-391326,-473015
1783776114073207561,2026-07-11T20:21:54.073+07:00,837091317834815350,-339161,-372938,-391309,-473024
1783776114091389379,2026-07-11T20:21:54.091+07:00,837091317834815350,-339232,-372967,-391405,-472984
1783776114109571197,2026-07-11T20:21:54.109+07:00,837091317834815350,-339411,-373060,-391516,-473000
1783776114127753015,2026-07-11T20:21:54.127+07:00,837091317834815350,-339462,-373166,-391558,-472981
1783776114145934833,2026-07-11T20:21:54.145+07:00,837091317834815350,-339667,-373308,-391701,-473002
1783776114164116651,2026-07-11T20:21:54.164+07:00,837091317834815350,-339662,-373331,-391666,-472977
1783776114182298469,2026-07-11T20:21:54.182+07:00,837091317834815350,-339760,-373395,-391767,-472983
1783776114200480287,2026-07-11T20:21:54.200+07:00,837091317834815350,-339766,-373340,-391716,-472952
1783776114218662105,2026-07-11T20:21:54.218+07:00,837091317834815350,-339791,-373337,-391704,-472960
1783776114236843923,2026-07-11T20:21:54.236+07:00,837091317834815350,-339844,-373430,-391778,-472989
1783776114255025741,2026-07-11T20:21:54.255+07:00,837091317834815350,-339902,-373441,-391832,-472998
1783776114273207559,2026-07-11T20:21:54.273+07:00,837091317834815350,-339912,-373485,-391823,-473019
1783776114291389377,2026-07-11T20:21:54.291+07:00,837091317834815350,-339881,-373474,-391823,-473021
1783776114309571195,2026-07-11T20:21:54.309+07:00,837091317834815350,-339813,-373486,-391804,-472963
1783776114327753013,2026-07-11T20:21:54.327+07:00,837091317834815350,-339882,-373421,-391854,-473002
1783776114345934831,2026-07-11T20:21:54.345+07:00,837091317834815350,-339787,-373442,-391819,-472973
1783776114364116649,2026-07-11T20:21:54.364+07:00,837091317834815350,-339863,-373490,-391793,-472992
1783776114382298467,2026-07-11T20:21:54.382+07:00,837091317834815350,-339847,-373490,-391835,-473005
1783776114400480285,2026-07-11T20:21:54.400+07:00,837091317834815350,-339865,-373486,-391826,-472985
1783776114418662103,2026-07-11T20:21:54.418+07:00,837091317834815350,-339907,-373504,-391851,-473052
1783776114436843921,2026-07-11T20:21:54.436+07:00,837091317834815350,-339950,-373592,-391862,-473056
1783776114455025739,2026-07-11T20:21:54.455+07:00,837091317834815350,-339929,-373557,-391848,-473026
1783776114473207557,2026-07-11T20:21:54.473+07:00,837091317834815350,-339925,-373567,-391875,-473058
1783776114491389375,2026-07-11T20:21:54.491+07:00,837091317834815350,-339916,-373539,-391831,-473035
1783776114509571193,2026-07-11T20:21:54.509+07:00,837091317834815350,-339936,-373532,-391786,-473005
1783776114527753011,2026-07-11T20:21:54.527+07:00,837091317834815350,-339956,-373577,-391856,-473013
1783776114545934829,2026-07-11T20:21:54.545+07:00,837091317834815350,-339935,-373579,-391823,-473057
1783776114564116647,2026-07-11T20:21:54.564+07:00,837091317834815350,-339867,-373553,-391823,-472999
1783776114582298465,2026-07-11T20:21:54.582+07:00,837091317834815350,-339829,-373489,-391762,-473052
1783776114600480283,2026-07-11T20:21:54.600+07:00,837091318726555885,-339765,-373447,-391703,-472989
1783776114618662101,2026-07-11T20:21:54.618+07:00,837091318726555885,-339792,-373516,-391728,-472996
1783776114636843919,2026-07-11T20:21:54.636+07:00,837091318726555885,-339741,-373455,-391690,-473062
1783776114655025737,2026-07-11T20:21:54.655+07:00,837091318726555885,-339697,-373410,-391689,-473043
1783776114673207555,2026-07-11T20:21:54.673+07:00,837091318726555885,-339662,-373379,-391645,-473022
1783776114691389373,2026-07-11T20:21:54.691+07:00,837091318726555885,-339568,-373293,-391578,-473021
1783776114709571191,2026-07-11T20:21:54.709+07:00,837091318726555885,-339527,-373266,-391475,-473018
1783776114727753009,2026-07-11T20:21:54.727+07:00,837091318726555885,-339427,-373247,-391522,-473034
1783776114745934827,2026-07-11T20:21:54.745+07:00,837091318726555885,-339400,-373213,-391499,-473054
1783776114764116645,2026-07-11T20:21:54.764+07:00,837091318726555885,-339348,-373139,-391462,-473073
1783776114782298463,2026-07-11T20:21:54.782+07:00,837091318726555885,-339398,-373164,-391517,-473094
1783776114800480281,2026-07-11T20:21:54.800+07:00,837091318726555885,-339401,-373195,-391471,-472994
1783776114818662099,2026-07-11T20:21:54.818+07:00,837091318726555885,-339473,-373224,-391475,-473051
1783776114836843917,2026-07-11T20:21:54.836+07:00,837091318726555885,-339549,-373344,-391581,-473088
1783776114855025735,2026-07-11T20:21:54.855+07:00,837091318726555885,-339698,-373411,-391645,-472988
1783776114873207553,2026-07-11T20:21:54.873+07:00,837091318726555885,-339798,-373498,-391766,-473024
1783776114891389371,2026-07-11T20:21:54.891+07:00,837091318726555885,-339866,-373475,-391780,-472992
1783776114909571189,2026-07-11T20:21:54.909+07:00,837091318726555885,-339880,-373544,-391798,-472987
1783776114927753007,2026-07-11T20:21:54.927+07:00,837091318726555885,-339946,-373599,-391869,-473102
1783776114945934825,2026-07-11T20:21:54.945+07:00,837091318726555885,-339957,-373572,-391914,-473049
1783776114964116643,2026-07-11T20:21:54.964+07:00,837091318726555885,-339964,-373693,-391863,-472966
1783776114982298461,2026-07-11T20:21:54.982+07:00,837091318726555885,-339969,-373633,-391823,-473045
1783776115000480279,2026-07-11T20:21:55.000+07:00,837091318726555885,-339923,-373613,-391846,-473038
1783776115018662097,2026-07-11T20:21:55.018+07:00,837091318726555885,-339914,-373542,-391738,-473026
1783776115036843915,2026-07-11T20:21:55.036+07:00,837091318726555885,-339878,-373566,-391732,-473039
1783776115055025733,2026-07-11T20:21:55.055+07:00,837091318726555885,-339837,-373515,-391704,-472987
1783776115073207551,2026-07-11T20:21:55.073+07:00,837091318726555885,-339846,-373521,-391755,-473036
1783776115091389369,2026-07-11T20:21:55.091+07:00,837091318726555885,-339837,-373525,-391720,-473038
1783776115109571187,2026-07-11T20:21:55.109+07:00,837091318726555885,-339854,-373553,-391786,-473069
1783776115127753005,2026-07-11T20:21:55.127+07:00,837091318726555885,-339857,-373499,-391690,-473051
1783776115145934823,2026-07-11T20:21:55.145+07:00,837091318726555885,-339862,-373463,-391733,-473084
1783776115164116641,2026-07-11T20:21:55.164+07:00,837091318726555885,-339775,-373428,-391644,-473020
1783776115182298459,2026-07-11T20:21:55.182+07:00,837091318726555885,-339725,-373452,-391631,-473003
1783776115200480277,2026-07-11T20:21:55.200+07:00,837091318726555885,-339728,-373422,-391615,-473033
1783776115218662095,2026-07-11T20:21:55.218+07:00,837091318726555885,-339710,-373378,-391623,-473027
1783776115236843913,2026-07-11T20:21:55.236+07:00,837091318726555885,-339693,-373353,-391573,-473039
1783776115255025731,2026-07-11T20:21:55.255+07:00,837091318726555885,-339643,-373280,-391474,-472949
1783776115273207549,2026-07-11T20:21:55.273+07:00,837091318726555885,-339601,-373353,-391517,-473043
1783776115291389367,2026-07-11T20:21:55.291+07:00,837091318726555885,-339556,-373338,-391488,-473073
1783776115309571185,2026-07-11T20:21:55.309+07:00,837091318726555885,-339491,-373267,-391438,-473037
1783776115327753003,2026-07-11T20:21:55.327+07:00,837091318726555885,-339466,-373201,-391409,-473086
1783776115345934821,2026-07-11T20:21:55.345+07:00,837091318726555885,-339421,-373173,-391366,-473067
1783776115364116639,2026-07-11T20:21:55.364+07:00,837091318726555885,-339351,-373114,-391259,-473032
1783776115382298457,2026-07-11T20:21:55.382+07:00,837091318726555885,-339250,-373062,-391212,-473011
1783776115400480275,2026-07-11T20:21:55.400+07:00,837091318726555885,-339185,-372998,-391165,-473022
1783776115418662093,2026-07-11T20:21:55.418+07:00,837091318726555885,-339195,-372966,-391079,-472979
1783776115436843911,2026-07-11T20:21:55.436+07:00,837091318726555885,-339130,-372946,-391137,-472987
1783776115455025729,2026-07-11T20:21:55.455+07:00,837091318726555885,-339046,-372864,-391085,-472972
1783776115473207547,2026-07-11T20:21:55.473+07:00,837091318726555885,-339042,-372890,-391038,-472999
1783776115491389365,2026-07-11T20:21:55.491+07:00,837091319545507938,-338940,-372816,-391036,-473078
1783776115509571183,2026-07-11T20:21:55.509+07:00,837091319545507938,-338947,-372793,-391007,-473078
1783776115527753001,2026-07-11T20:21:55.527+07:00,837091319545507938,-338822,-372784,-390871,-473015
1783776115545934819,2026-07-11T20:21:55.545+07:00,837091319545507938,-338893,-372745,-390944,-473027
1783776115564116637,2026-07-11T20:21:55.564+07:00,837091319545507938,-338889,-372790,-390978,-473003
1783776115582298455,2026-07-11T20:21:55.582+07:00,837091319545507938,-339028,-372836,-391119,-473014
1783776115600480273,2026-07-11T20:21:55.600+07:00,837091319545507938,-339109,-372911,-391181,-473046
1783776115618662091,2026-07-11T20:21:55.618+07:00,837091319545507938,-339169,-372976,-391206,-473009
1783776115636843909,2026-07-11T20:21:55.636+07:00,837091319545507938,-339218,-373027,-391239,-473024
1783776115655025727,2026-07-11T20:21:55.655+07:00,837091319545507938,-339236,-372985,-391253,-473020
1783776115673207545,2026-07-11T20:21:55.673+07:00,837091319545507938,-339240,-372965,-391204,-473024
1783776115691389363,2026-07-11T20:21:55.691+07:00,837091319545507938,-339250,-373042,-391285,-473030
1783776115709571181,2026-07-11T20:21:55.709+07:00,837091319545507938,-339226,-372977,-391238,-472961
1783776115727752999,2026-07-11T20:21:55.727+07:00,837091319545507938,-339189,-372991,-391214,-473003
1783776115745934817,2026-07-11T20:21:55.745+07:00,837091319545507938,-339113,-372963,-391120,-473014
1783776115764116635,2026-07-11T20:21:55.764+07:00,837091319545507938,-339141,-372931,-391068,-473011
1783776115782298453,2026-07-11T20:21:55.782+07:00,837091319545507938,-339092,-372891,-391073,-473005
1783776115800480271,2026-07-11T20:21:55.800+07:00,837091319545507938,-339046,-372830,-391005,-472990
1783776115818662089,2026-07-11T20:21:55.818+07:00,837091319545507938,-339028,-372861,-391028,-473007
1783776115836843907,2026-07-11T20:21:55.836+07:00,837091319545507938,-339039,-372818,-391052,-473016
1783776115855025725,2026-07-11T20:21:55.855+07:00,837091319545507938,-339010,-372833,-391042,-473046
1783776115873207543,2026-07-11T20:21:55.873+07:00,837091319545507938,-338995,-372780,-391016,-472977
1783776115891389361,2026-07-11T20:21:55.891+07:00,837091319545507938,-339014,-372795,-390969,-473009
1783776115909571179,2026-07-11T20:21:55.909+07:00,837091319545507938,-338976,-372799,-391005,-472990
1783776115927752997,2026-07-11T20:21:55.927+07:00,837091319545507938,-338946,-372806,-390948,-472949
1783776115945934815,2026-07-11T20:21:55.945+07:00,837091319545507938,-338886,-372723,-390907,-472968
1783776115964116633,2026-07-11T20:21:55.964+07:00,837091319545507938,-338864,-372668,-390927,-472986
1783776115982298451,2026-07-11T20:21:55.982+07:00,837091319545507938,-338867,-372705,-390896,-473013
1783776116000480269,2026-07-11T20:21:56.000+07:00,837091319545507938,-338854,-372635,-390849,-473038
1783776116018662087,2026-07-11T20:21:56.018+07:00,837091319545507938,-338811,-372645,-390848,-472998
1783776116036843905,2026-07-11T20:21:56.036+07:00,837091319545507938,-338746,-372619,-390866,-472963
1783776116055025723,2026-07-11T20:21:56.055+07:00,837091319545507938,-338697,-372579,-390809,-473043
1783776116073207541,2026-07-11T20:21:56.073+07:00,837091319545507938,-338642,-372529,-390725,-472996
1783776116091389359,2026-07-11T20:21:56.091+07:00,837091319545507938,-338631,-372479,-390681,-472992
1783776116109571177,2026-07-11T20:21:56.109+07:00,837091319545507938,-338537,-372458,-390634,-472992
1783776116127752995,2026-07-11T20:21:56.127+07:00,837091319545507938,-338505,-372406,-390583,-473017
1783776116145934813,2026-07-11T20:21:56.145+07:00,837091319545507938,-338372,-372353,-390561,-472994
1783776116164116631,2026-07-11T20:21:56.164+07:00,837091319545507938,-338381,-372342,-390530,-473035
1783776116182298449,2026-07-11T20:21:56.182+07:00,837091319545507938,-338311,-372301,-390507,-473050
1783776116200480267,2026-07-11T20:21:56.200+07:00,837091319545507938,-338277,-372286,-390500,-472995
1783776116218662085,2026-07-11T20:21:56.218+07:00,837091319545507938,-338326,-372330,-390546,-473027
1783776116236843903,2026-07-11T20:21:56.236+07:00,837091319545507938,-338461,-372372,-390629,-473061
1783776116255025721,2026-07-11T20:21:56.255+07:00,837091319545507938,-338533,-372346,-390637,-472989
1783776116273207539,2026-07-11T20:21:56.273+07:00,837091319545507938,-338525,-372463,-390675,-472951
1783776116291389357,2026-07-11T20:21:56.291+07:00,837091319545507938,-338628,-372455,-390710,-472994
1783776116309571175,2026-07-11T20:21:56.309+07:00,837091320382641098,-338729,-372521,-390773,-473017
1783776116327752993,2026-07-11T20:21:56.327+07:00,837091320382641098,-338748,-372539,-390823,-473071
1783776116345934811,2026-07-11T20:21:56.345+07:00,837091320382641098,-338730,-372574,-390834,-473030
1783776116364116629,2026-07-11T20:21:56.364+07:00,837091320382641098,-338749,-372556,-390839,-473047
1783776116382298447,2026-07-11T20:21:56.382+07:00,837091320382641098,-338721,-372515,-390791,-473015
1783776116400480265,2026-07-11T20:21:56.400+07:00,837091320382641098,-338723,-372512,-390837,-473078
1783776116418662083,2026-07-11T20:21:56.418+07:00,837091320382641098,-338636,-372462,-390729,-472987
1783776116436843901,2026-07-11T20:21:56.436+07:00,837091320382641098,-338673,-372435,-390740,-472967
1783776116455025719,2026-07-11T20:21:56.455+07:00,837091320382641098,-338615,-372471,-390738,-472993
1783776116473207537,2026-07-11T20:21:56.473+07:00,837091320382641098,-338669,-372482,-390724,-473051
1783776116491389355,2026-07-11T20:21:56.491+07:00,837091320382641098,-338671,-372438,-390741,-473011
1783776116509571173,2026-07-11T20:21:56.509+07:00,837091320382641098,-338674,-372466,-390739,-472989
1783776116527752991,2026-07-11T20:21:56.527+07:00,837091320382641098,-338664,-372457,-390785,-473018
1783776116545934809,2026-07-11T20:21:56.545+07:00,837091320382641098,-338677,-372482,-390723,-473073
1783776116564116627,2026-07-11T20:21:56.564+07:00,837091320382641098,-338687,-372554,-390760,-473048
1783776116582298445,2026-07-11T20:21:56.582+07:00,837091320382641098,-338663,-372529,-390755,-473022
1783776116600480263,2026-07-11T20:21:56.600+07:00,837091320382641098,-338612,-372444,-390687,-473037
1783776116618662081,2026-07-11T20:21:56.618+07:00,837091320382641098,-338631,-372460,-390703,-473011
1783776116636843899,2026-07-11T20:21:56.636+07:00,837091320382641098,-338547,-372388,-390662,-473033
1783776116655025717,2026-07-11T20:21:56.655+07:00,837091320382641098,-338561,-372411,-390634,-473020
1783776116673207535,2026-07-11T20:21:56.673+07:00,837091320382641098,-338562,-372402,-390581,-473029
1783776116691389353,2026-07-11T20:21:56.691+07:00,837091320382641098,-338508,-372330,-390521,-473019
1783776116709571171,2026-07-11T20:21:56.709+07:00,837091320382641098,-338395,-372269,-390566,-473043
1783776116727752989,2026-07-11T20:21:56.727+07:00,837091320382641098,-338333,-372283,-390544,-473031
1783776116745934807,2026-07-11T20:21:56.745+07:00,837091320382641098,-338312,-372191,-390455,-472983
1783776116764116625,2026-07-11T20:21:56.764+07:00,837091320382641098,-338247,-372194,-390439,-472987
1783776116782298443,2026-07-11T20:21:56.782+07:00,837091320382641098,-338268,-372190,-390445,-473046
1783776116800480261,2026-07-11T20:21:56.800+07:00,837091320382641098,-338233,-372124,-390415,-472970
1783776116818662079,2026-07-11T20:21:56.818+07:00,837091320382641098,-338237,-372095,-390445,-472998
1783776116836843897,2026-07-11T20:21:56.836+07:00,837091320382641098,-338245,-372150,-390428,-473005
1783776116855025715,2026-07-11T20:21:56.855+07:00,837091320382641098,-338347,-372233,-390560,-473002
1783776116873207533,2026-07-11T20:21:56.873+07:00,837091320382641098,-338477,-372329,-390639,-473046
1783776116891389351,2026-07-11T20:21:56.891+07:00,837091320382641098,-338586,-372370,-390669,-472985
1783776116909571169,2026-07-11T20:21:56.909+07:00,837091320382641098,-338684,-372463,-390770,-472990
1783776116927752987,2026-07-11T20:21:56.927+07:00,837091320382641098,-338747,-372498,-390782,-472997
1783776116945934805,2026-07-11T20:21:56.945+07:00,837091320382641098,-338826,-372559,-390833,-473006
1783776116964116623,2026-07-11T20:21:56.964+07:00,837091320382641098,-338798,-372581,-390832,-472967
1783776116982298441,2026-07-11T20:21:56.982+07:00,837091320382641098,-338860,-372524,-390825,-472963
1783776117000480259,2026-07-11T20:21:57.000+07:00,837091320382641098,-338839,-372564,-390826,-473011
1783776117018662077,2026-07-11T20:21:57.018+07:00,837091320382641098,-338884,-372572,-390828,-473018
1783776117036843895,2026-07-11T20:21:57.036+07:00,837091320382641098,-338867,-372569,-390805,-473019
1783776117055025713,2026-07-11T20:21:57.055+07:00,837091320382641098,-338803,-372533,-390810,-473045
1783776117073207531,2026-07-11T20:21:57.073+07:00,837091320382641098,-338884,-372567,-390819,-473054
1783776117091389349,2026-07-11T20:21:57.091+07:00,837091320382641098,-338870,-372552,-390787,-473043
1783776117109571167,2026-07-11T20:21:57.109+07:00,837091320382641098,-338838,-372564,-390828,-473065
1783776117127752985,2026-07-11T20:21:57.127+07:00,837091320382641098,-338849,-372656,-390810,-473102
1783776117145934803,2026-07-11T20:21:57.145+07:00,837091321183378484,-338853,-372556,-390785,-473089
1783776117164116621,2026-07-11T20:21:57.164+07:00,837091321183378484,-338865,-372563,-390853,-473057
1783776117182298439,2026-07-11T20:21:57.182+07:00,837091321183378484,-338847,-372512,-390805,-473007
1783776117200480257,2026-07-11T20:21:57.200+07:00,837091321183378484,-338825,-372549,-390807,-473009
1783776117218662075,2026-07-11T20:21:57.218+07:00,837091321183378484,-338822,-372474,-390789,-472998
1783776117236843893,2026-07-11T20:21:57.236+07:00,837091321183378484,-338815,-372501,-390774,-473035
1783776117255025711,2026-07-11T20:21:57.255+07:00,837091321183378484,-338793,-372486,-390701,-472970
1783776117273207529,2026-07-11T20:21:57.273+07:00,837091321183378484,-338783,-372424,-390722,-473032
1783776117291389347,2026-07-11T20:21:57.291+07:00,837091321183378484,-338756,-372417,-390747,-473022
1783776117309571165,2026-07-11T20:21:57.309+07:00,837091321183378484,-338736,-372455,-390694,-473070
1783776117327752983,2026-07-11T20:21:57.327+07:00,837091321183378484,-338653,-372376,-390690,-473024
1783776117345934801,2026-07-11T20:21:57.345+07:00,837091321183378484,-338645,-372397,-390650,-473095
1783776117364116619,2026-07-11T20:21:57.364+07:00,837091321183378484,-338656,-372368,-390601,-473065
1783776117382298437,2026-07-11T20:21:57.382+07:00,837091321183378484,-338524,-372308,-390557,-473064
1783776117400480255,2026-07-11T20:21:57.400+07:00,837091321183378484,-338509,-372292,-390565,-473082
1783776117418662073,2026-07-11T20:21:57.418+07:00,837091321183378484,-338444,-372274,-390532,-473001
1783776117436843891,2026-07-11T20:21:57.436+07:00,837091321183378484,-338488,-372270,-390474,-472972
1783776117455025709,2026-07-11T20:21:57.455+07:00,837091321183378484,-338571,-372435,-390602,-473020
1783776117473207527,2026-07-11T20:21:57.473+07:00,837091321183378484,-338628,-372471,-390628,-473007
1783776117491389345,2026-07-11T20:21:57.491+07:00,837091321183378484,-338778,-372549,-390776,-473010
1783776117509571163,2026-07-11T20:21:57.509+07:00,837091321183378484,-338861,-372539,-390788,-473021
1783776117527752981,2026-07-11T20:21:57.527+07:00,837091321183378484,-338998,-372621,-390898,-472972
1783776117545934799,2026-07-11T20:21:57.545+07:00,837091321183378484,-339057,-372667,-390921,-472998
1783776117564116617,2026-07-11T20:21:57.564+07:00,837091321183378484,-339166,-372663,-391010,-473012
1783776117582298435,2026-07-11T20:21:57.582+07:00,837091321183378484,-339228,-372776,-390969,-473014
1783776117600480253,2026-07-11T20:21:57.600+07:00,837091321183378484,-339201,-372795,-391002,-472983
1783776117618662071,2026-07-11T20:21:57.618+07:00,837091321183378484,-339230,-372802,-391029,-473023
1783776117636843889,2026-07-11T20:21:57.636+07:00,837091321183378484,-339234,-372787,-391052,-473028
1783776117655025707,2026-07-11T20:21:57.655+07:00,837091321183378484,-339180,-372785,-391043,-472972
1783776117673207525,2026-07-11T20:21:57.673+07:00,837091321183378484,-339275,-372791,-391029,-473004
1783776117691389343,2026-07-11T20:21:57.691+07:00,837091321183378484,-339215,-372802,-391051,-473009
1783776117709571161,2026-07-11T20:21:57.709+07:00,837091321183378484,-339207,-372790,-390975,-473029
1783776117727752979,2026-07-11T20:21:57.727+07:00,837091321183378484,-339274,-372841,-391048,-473045
1783776117745934797,2026-07-11T20:21:57.745+07:00,837091321183378484,-339312,-372782,-391011,-473016
1783776117764116615,2026-07-11T20:21:57.764+07:00,837091321183378484,-339308,-372794,-391082,-473018
1783776117782298433,2026-07-11T20:21:57.782+07:00,837091321183378484,-339285,-372828,-391059,-473015
1783776117800480251,2026-07-11T20:21:57.800+07:00,837091321183378484,-339351,-372894,-391135,-473041
1783776117818662069,2026-07-11T20:21:57.818+07:00,837091321183378484,-339291,-372856,-391065,-472986
1783776117836843887,2026-07-11T20:21:57.836+07:00,837091321183378484,-339321,-372854,-391027,-472989
1783776117855025705,2026-07-11T20:21:57.855+07:00,837091321183378484,-339288,-372845,-391029,-473006
1783776117873207523,2026-07-11T20:21:57.873+07:00,837091321183378484,-339265,-372823,-390981,-473068
1783776117891389341,2026-07-11T20:21:57.891+07:00,837091321183378484,-339266,-372818,-391010,-473024
1783776117909571159,2026-07-11T20:21:57.909+07:00,837091321183378484,-339191,-372793,-391059,-473013
1783776117927752977,2026-07-11T20:21:57.927+07:00,837091321183378484,-339162,-372742,-390952,-472987
1783776117945934795,2026-07-11T20:21:57.945+07:00,837091322020450600,-339164,-372741,-390986,-473044
1783776117964116613,2026-07-11T20:21:57.964+07:00,837091322020450600,-339181,-372686,-390926,-473063
1783776117982298431,2026-07-11T20:21:57.982+07:00,837091322020450600,-339126,-372695,-390916,-473043
1783776118000480249,2026-07-11T20:21:58.000+07:00,837091322020450600,-339157,-372705,-390867,-473081
1783776118018662067,2026-07-11T20:21:58.018+07:00,837091322020450600,-339104,-372695,-390894,-473078
1783776118036843885,2026-07-11T20:21:58.036+07:00,837091322020450600,-339031,-372634,-390817,-473021
1783776118055025703,2026-07-11T20:21:58.055+07:00,837091322020450600,-339020,-372631,-390814,-473007
1783776118073207521,2026-07-11T20:21:58.073+07:00,837091322020450600,-339010,-372657,-390854,-472983
1783776118091389339,2026-07-11T20:21:58.091+07:00,837091322020450600,-339076,-372702,-390915,-473061
1783776118109571157,2026-07-11T20:21:58.109+07:00,837091322020450600,-339241,-372808,-391078,-473084
1783776118127752975,2026-07-11T20:21:58.127+07:00,837091322020450600,-339356,-372967,-391121,-473069
1783776118145934793,2026-07-11T20:21:58.145+07:00,837091322020450600,-339469,-373013,-391175,-472987
1783776118164116611,2026-07-11T20:21:58.164+07:00,837091322020450600,-339587,-373041,-391295,-473014
1783776118182298429,2026-07-11T20:21:58.182+07:00,837091322020450600,-339714,-373149,-391321,-472982
1783776118200480247,2026-07-11T20:21:58.200+07:00,837091322020450600,-339732,-373211,-391386,-473005
1783776118218662065,2026-07-11T20:21:58.218+07:00,837091322020450600,-339768,-373236,-391429,-473050
1783776118236843883,2026-07-11T20:21:58.236+07:00,837091322020450600,-339769,-373276,-391426,-473027
1783776118255025701,2026-07-11T20:21:58.255+07:00,837091322020450600,-339783,-373152,-391418,-472953
1783776118273207519,2026-07-11T20:21:58.273+07:00,837091322020450600,-339745,-373203,-391411,-473023
1783776118291389337,2026-07-11T20:21:58.291+07:00,837091322020450600,-339837,-373220,-391360,-472975
1783776118309571155,2026-07-11T20:21:58.309+07:00,837091322020450600,-339837,-373216,-391424,-473035
1783776118327752973,2026-07-11T20:21:58.327+07:00,837091322020450600,-339833,-373226,-391410,-473031
1783776118345934791,2026-07-11T20:21:58.345+07:00,837091322020450600,-339843,-373279,-391412,-473006
1783776118364116609,2026-07-11T20:21:58.364+07:00,837091322020450600,-339820,-373208,-391392,-472984
1783776118382298427,2026-07-11T20:21:58.382+07:00,837091322020450600,-339863,-373262,-391377,-473009
1783776118400480245,2026-07-11T20:21:58.400+07:00,837091322020450600,-339867,-373255,-391450,-473002
1783776118418662063,2026-07-11T20:21:58.418+07:00,837091322020450600,-339849,-373266,-391446,-473011
1783776118436843881,2026-07-11T20:21:58.436+07:00,837091322020450600,-339890,-373231,-391431,-472967
1783776118455025699,2026-07-11T20:21:58.455+07:00,837091322020450600,-339824,-373219,-391367,-472985
1783776118473207517,2026-07-11T20:21:58.473+07:00,837091322020450600,-339909,-373304,-391440,-473050
1783776118491389335,2026-07-11T20:21:58.491+07:00,837091322020450600,-339827,-373233,-391355,-473010
1783776118509571153,2026-07-11T20:21:58.509+07:00,837091322020450600,-339879,-373255,-391375,-473049
1783776118527752971,2026-07-11T20:21:58.527+07:00,837091322020450600,-339798,-373239,-391357,-473073
1783776118545934789,2026-07-11T20:21:58.545+07:00,837091322020450600,-339853,-373294,-391327,-473085
1783776118564116607,2026-07-11T20:21:58.564+07:00,837091322020450600,-339734,-373237,-391267,-473017
1783776118582298425,2026-07-11T20:21:58.582+07:00,837091322020450600,-339709,-373197,-391246,-473000
1783776118600480243,2026-07-11T20:21:58.600+07:00,837091322020450600,-339721,-373128,-391234,-473030
1783776118618662061,2026-07-11T20:21:58.618+07:00,837091322020450600,-339662,-373129,-391238,-473011
1783776118636843879,2026-07-11T20:21:58.636+07:00,837091322020450600,-339627,-373111,-391187,-473015
1783776118655025697,2026-07-11T20:21:58.655+07:00,837091322020450600,-339516,-373008,-391141,-473018
1783776118673207515,2026-07-11T20:21:58.673+07:00,837091322020450600,-339500,-372998,-391133,-473067
1783776118691389333,2026-07-11T20:21:58.691+07:00,837091322020450600,-339469,-372948,-391113,-473043
1783776118709571151,2026-07-11T20:21:58.709+07:00,837091322020450600,-339396,-372913,-391078,-473022
1783776118727752969,2026-07-11T20:21:58.727+07:00,837091322020450600,-339397,-372925,-391035,-473048
1783776118745934787,2026-07-11T20:21:58.745+07:00,837091322020450600,-339428,-372978,-391047,-473029
1783776118764116605,2026-07-11T20:21:58.764+07:00,837091322020450600,-339416,-373002,-391078,-473007
1783776118782298423,2026-07-11T20:21:58.782+07:00,837091322912146883,-339516,-372996,-391146,-473027
1783776118800480241,2026-07-11T20:21:58.800+07:00,837091322912146883,-339690,-373133,-391292,-472998
1783776118818662059,2026-07-11T20:21:58.818+07:00,837091322912146883,-339744,-373148,-391332,-472969
1783776118836843877,2026-07-11T20:21:58.836+07:00,837091322912146883,-339843,-373282,-391427,-473018
1783776118855025695,2026-07-11T20:21:58.855+07:00,837091322912146883,-339956,-373396,-391523,-473001
1783776118873207513,2026-07-11T20:21:58.873+07:00,837091322912146883,-339992,-373387,-391530,-473015
1783776118891389331,2026-07-11T20:21:58.891+07:00,837091322912146883,-340004,-373400,-391475,-472992
1783776118909571149,2026-07-11T20:21:58.909+07:00,837091322912146883,-340056,-373435,-391537,-473052
1783776118927752967,2026-07-11T20:21:58.927+07:00,837091322912146883,-340064,-373433,-391508,-473040
1783776118945934785,2026-07-11T20:21:58.945+07:00,837091322912146883,-340042,-373369,-391471,-473002
1783776118964116603,2026-07-11T20:21:58.964+07:00,837091322912146883,-340004,-373391,-391462,-473035
1783776118982298421,2026-07-11T20:21:58.982+07:00,837091322912146883,-339986,-373355,-391408,-472998
1783776119000480239,2026-07-11T20:21:59.000+07:00,837091322912146883,-339967,-373405,-391451,-473012
1783776119018662057,2026-07-11T20:21:59.018+07:00,837091322912146883,-339995,-373468,-391446,-473026
1783776119036843875,2026-07-11T20:21:59.036+07:00,837091322912146883,-340083,-373467,-391522,-473044
1783776119055025693,2026-07-11T20:21:59.055+07:00,837091322912146883,-340032,-373426,-391446,-473022
1783776119073207511,2026-07-11T20:21:59.073+07:00,837091322912146883,-340000,-373426,-391433,-473048
1783776119091389329,2026-07-11T20:21:59.091+07:00,837091322912146883,-340043,-373354,-391462,-473030
1783776119109571147,2026-07-11T20:21:59.109+07:00,837091322912146883,-340052,-373318,-391470,-472987
1783776119127752965,2026-07-11T20:21:59.127+07:00,837091322912146883,-340022,-373384,-391448,-472986
1783776119145934783,2026-07-11T20:21:59.145+07:00,837091322912146883,-340015,-373372,-391425,-473054
1783776119164116601,2026-07-11T20:21:59.164+07:00,837091322912146883,-339986,-373361,-391434,-473017
1783776119182298419,2026-07-11T20:21:59.182+07:00,837091322912146883,-340044,-373374,-391489,-473037
1783776119200480237,2026-07-11T20:21:59.200+07:00,837091322912146883,-339979,-373338,-391407,-473021
1783776119218662055,2026-07-11T20:21:59.218+07:00,837091322912146883,-339895,-373354,-391427,-473013
1783776119236843873,2026-07-11T20:21:59.236+07:00,837091322912146883,-339871,-373264,-391369,-473014
1783776119255025691,2026-07-11T20:21:59.255+07:00,837091322912146883,-339813,-373247,-391312,-473035
1783776119273207509,2026-07-11T20:21:59.273+07:00,837091322912146883,-339755,-373238,-391341,-473033
1783776119291389327,2026-07-11T20:21:59.291+07:00,837091322912146883,-339717,-373187,-391253,-473081
1783776119309571145,2026-07-11T20:21:59.309+07:00,837091322912146883,-339696,-373170,-391227,-473018
1783776119327752963,2026-07-11T20:21:59.327+07:00,837091322912146883,-339651,-373120,-391192,-473015
1783776119345934781,2026-07-11T20:21:59.345+07:00,837091322912146883,-339585,-373047,-391168,-473033
1783776119364116599,2026-07-11T20:21:59.364+07:00,837091322912146883,-339563,-373050,-391150,-473079
1783776119382298417,2026-07-11T20:21:59.382+07:00,837091322912146883,-339436,-373006,-391145,-473022
1783776119400480235,2026-07-11T20:21:59.400+07:00,837091322912146883,-339422,-372957,-391065,-472986
1783776119418662053,2026-07-11T20:21:59.418+07:00,837091322912146883,-339385,-372946,-391045,-473015
1783776119436843871,2026-07-11T20:21:59.436+07:00,837091322912146883,-339389,-372958,-391036,-473011
1783776119455025689,2026-07-11T20:21:59.455+07:00,837091322912146883,-339453,-372967,-391088,-473007
1783776119473207507,2026-07-11T20:21:59.473+07:00,837091322912146883,-339576,-372993,-391150,-473036
1783776119491389325,2026-07-11T20:21:59.491+07:00,837091322912146883,-339678,-373051,-391204,-473033
1783776119509571143,2026-07-11T20:21:59.509+07:00,837091322912146883,-339742,-373161,-391264,-473027
1783776119527752961,2026-07-11T20:21:59.527+07:00,837091322912146883,-339822,-373209,-391324,-473013
1783776119545934779,2026-07-11T20:21:59.545+07:00,837091322912146883,-339830,-373199,-391314,-472971
1783776119564116597,2026-07-11T20:21:59.564+07:00,837091322912146883,-339847,-373209,-391318,-473023
1783776119582298415,2026-07-11T20:21:59.582+07:00,837091322912146883,-339859,-373248,-391260,-473005
1783776119600480233,2026-07-11T20:21:59.600+07:00,837091322912146883,-339798,-373213,-391268,-472947
1783776119618662051,2026-07-11T20:21:59.618+07:00,837091322912146883,-339838,-373228,-391315,-473071
1783776119636843869,2026-07-11T20:21:59.636+07:00,837091322912146883,-339808,-373233,-391266,-473071
1783776119655025687,2026-07-11T20:21:59.655+07:00,837091322912146883,-339782,-373218,-391263,-473040
1783776119673207505,2026-07-11T20:21:59.673+07:00,837091323658260110,-339737,-373211,-391192,-473024
1783776119691389323,2026-07-11T20:21:59.691+07:00,837091323658260110,-339744,-373209,-391263,-473135
1783776119709571141,2026-07-11T20:21:59.709+07:00,837091323658260110,-339722,-373150,-391204,-473043
1783776119727752959,2026-07-11T20:21:59.727+07:00,837091323658260110,-339741,-373136,-391212,-473023
1783776119745934777,2026-07-11T20:21:59.745+07:00,837091323658260110,-339739,-373092,-391235,-472937
1783776119764116595,2026-07-11T20:21:59.764+07:00,837091323658260110,-339734,-373171,-391212,-472984
1783776119782298413,2026-07-11T20:21:59.782+07:00,837091323658260110,-339696,-373066,-391182,-472977
1783776119800480231,2026-07-11T20:21:59.800+07:00,837091323658260110,-339673,-373096,-391239,-472994
1783776119818662049,2026-07-11T20:21:59.818+07:00,837091323658260110,-339714,-373085,-391220,-473065
1783776119836843867,2026-07-11T20:21:59.836+07:00,837091323658260110,-339692,-373087,-391183,-473013
1783776119855025685,2026-07-11T20:21:59.855+07:00,837091323658260110,-339655,-373036,-391096,-472984
1783776119873207503,2026-07-11T20:21:59.873+07:00,837091323658260110,-339539,-373013,-391113,-473007
1783776119891389321,2026-07-11T20:21:59.891+07:00,837091323658260110,-339572,-373015,-391090,-473081
1783776119909571139,2026-07-11T20:21:59.909+07:00,837091323658260110,-339532,-372886,-390995,-472988
1783776119927752957,2026-07-11T20:21:59.927+07:00,837091323658260110,-339459,-372876,-390985,-473005
1783776119945934775,2026-07-11T20:21:59.945+07:00,837091323658260110,-339464,-372897,-390984,-473045
1783776119964116593,2026-07-11T20:21:59.964+07:00,837091323658260110,-339389,-372855,-390939,-472990
1783776119982298411,2026-07-11T20:21:59.982+07:00,837091323658260110,-339334,-372822,-390909,-473052
1783776120000480229,2026-07-11T20:22:00.000+07:00,837091323658260110,-339270,-372795,-390866,-473017
1783776120018662047,2026-07-11T20:22:00.018+07:00,837091323658260110,-339173,-372706,-390781,-472992
1783776120036843865,2026-07-11T20:22:00.036+07:00,837091323658260110,-339130,-372709,-390751,-473007
1783776120055025683,2026-07-11T20:22:00.055+07:00,837091323658260110,-339169,-372699,-390805,-473046
1783776120073207501,2026-07-11T20:22:00.073+07:00,837091323658260110,-339117,-372649,-390790,-473035
1783776120091389319,2026-07-11T20:22:00.091+07:00,837091323658260110,-339196,-372731,-390830,-473084
1783776120109571137,2026-07-11T20:22:00.109+07:00,837091323658260110,-339329,-372743,-390946,-473053
1783776120127752955,2026-07-11T20:22:00.127+07:00,837091323658260110,-339406,-372796,-390973,-473041
1783776120145934773,2026-07-11T20:22:00.145+07:00,837091323658260110,-339515,-372926,-391066,-473048
1783776120164116591,2026-07-11T20:22:00.164+07:00,837091323658260110,-339581,-372942,-391083,-473024
1783776120182298409,2026-07-11T20:22:00.182+07:00,837091323658260110,-339627,-373030,-391089,-472985
1783776120200480227,2026-07-11T20:22:00.200+07:00,837091323658260110,-339713,-373121,-391147,-473040
1783776120218662045,2026-07-11T20:22:00.218+07:00,837091323658260110,-339687,-373067,-391126,-473037
1783776120236843863,2026-07-11T20:22:00.236+07:00,837091323658260110,-339676,-373076,-391143,-473019
1783776120255025681,2026-07-11T20:22:00.255+07:00,837091323658260110,-339664,-373041,-391149,-473028
1783776120273207499,2026-07-11T20:22:00.273+07:00,837091323658260110,-339646,-373079,-391089,-472999
1783776120291389317,2026-07-11T20:22:00.291+07:00,837091323658260110,-339695,-373126,-391161,-473067
1783776120309571135,2026-07-11T20:22:00.309+07:00,837091323658260110,-339663,-373042,-391165,-473044
1783776120327752953,2026-07-11T20:22:00.327+07:00,837091323658260110,-339629,-373029,-391079,-473060
1783776120345934771,2026-07-11T20:22:00.345+07:00,837091323658260110,-339606,-373032,-391028,-473032
1783776120364116589,2026-07-11T20:22:00.364+07:00,837091323658260110,-339684,-373030,-391080,-473038
1783776120382298407,2026-07-11T20:22:00.382+07:00,837091323658260110,-339625,-373034,-391045,-473040
1783776120400480225,2026-07-11T20:22:00.400+07:00,837091323658260110,-339607,-373038,-391093,-473091
1783776120418662043,2026-07-11T20:22:00.418+07:00,837091324458997496,-339649,-373016,-391102,-473062
1783776120436843861,2026-07-11T20:22:00.436+07:00,837091324458997496,-339616,-372984,-391058,-473004
1783776120455025679,2026-07-11T20:22:00.455+07:00,837091324458997496,-339636,-373091,-391059,-472989
1783776120473207497,2026-07-11T20:22:00.473+07:00,837091324458997496,-339573,-373010,-391061,-472989
1783776120491389315,2026-07-11T20:22:00.491+07:00,837091324458997496,-339577,-372973,-391009,-473027
1783776120509571133,2026-07-11T20:22:00.509+07:00,837091324458997496,-339569,-372986,-391025,-473033
1783776120527752951,2026-07-11T20:22:00.527+07:00,837091324458997496,-339513,-372916,-390958,-473017
1783776120545934769,2026-07-11T20:22:00.545+07:00,837091324458997496,-339501,-372889,-390889,-473039
1783776120564116587,2026-07-11T20:22:00.564+07:00,837091324458997496,-339458,-372807,-390887,-473024
1783776120582298405,2026-07-11T20:22:00.582+07:00,837091324458997496,-339368,-372810,-390834,-472969
1783776120600480223,2026-07-11T20:22:00.600+07:00,837091324458997496,-339373,-372793,-390778,-473003
1783776120618662041,2026-07-11T20:22:00.618+07:00,837091324458997496,-339302,-372750,-390791,-473049
1783776120636843859,2026-07-11T20:22:00.636+07:00,837091324458997496,-339175,-372679,-390751,-472976
1783776120655025677,2026-07-11T20:22:00.655+07:00,837091324458997496,-339164,-372640,-390704,-472978
1783776120673207495,2026-07-11T20:22:00.673+07:00,837091324458997496,-339130,-372721,-390723,-473072
1783776120691389313,2026-07-11T20:22:00.691+07:00,837091324458997496,-339173,-372667,-390691,-473005
1783776120709571131,2026-07-11T20:22:00.709+07:00,837091324458997496,-339215,-372723,-390783,-473038
1783776120727752949,2026-07-11T20:22:00.727+07:00,837091324458997496,-339298,-372791,-390761,-472976
1783776120745934767,2026-07-11T20:22:00.745+07:00,837091324458997496,-339412,-372906,-390951,-473050
1783776120764116585,2026-07-11T20:22:00.764+07:00,837091324458997496,-339497,-372973,-391035,-473051
1783776120782298403,2026-07-11T20:22:00.782+07:00,837091324458997496,-339653,-373029,-391093,-473046
1783776120800480221,2026-07-11T20:22:00.800+07:00,837091324458997496,-339772,-373113,-391137,-473055
1783776120818662039,2026-07-11T20:22:00.818+07:00,837091324458997496,-339705,-373108,-391137,-473022
1783776120836843857,2026-07-11T20:22:00.836+07:00,837091324458997496,-339787,-373200,-391129,-473024
1783776120855025675,2026-07-11T20:22:00.855+07:00,837091324458997496,-339765,-373099,-391128,-473010
1783776120873207493,2026-07-11T20:22:00.873+07:00,837091324458997496,-339804,-373129,-391104,-472995
1783776120891389311,2026-07-11T20:22:00.891+07:00,837091324458997496,-339817,-373147,-391114,-473037
1783776120909571129,2026-07-11T20:22:00.909+07:00,837091324458997496,-339764,-373118,-391089,-472998
1783776120927752947,2026-07-11T20:22:00.927+07:00,837091324458997496,-339778,-373120,-391143,-473043
1783776120945934765,2026-07-11T20:22:00.945+07:00,837091324458997496,-339776,-373169,-391153,-473040
1783776120964116583,2026-07-11T20:22:00.964+07:00,837091324458997496,-339828,-373136,-391113,-473035
1783776120982298401,2026-07-11T20:22:00.982+07:00,837091324458997496,-339754,-373100,-391087,-473029
1783776121000480219,2026-07-11T20:22:01.000+07:00,837091324458997496,-339758,-373016,-391022,-472955
1783776121018662037,2026-07-11T20:22:01.018+07:00,837091324458997496,-339753,-373098,-391039,-472987
1783776121036843855,2026-07-11T20:22:01.036+07:00,837091324458997496,-339820,-373055,-391050,-473056
1783776121055025673,2026-07-11T20:22:01.055+07:00,837091324458997496,-339825,-373088,-391096,-473011
1783776121073207491,2026-07-11T20:22:01.073+07:00,837091324458997496,-339766,-373131,-391073,-472998
1783776121091389309,2026-07-11T20:22:01.091+07:00,837091324458997496,-339782,-373097,-391063,-473086
1783776121109571127,2026-07-11T20:22:01.109+07:00,837091324458997496,-339749,-373087,-391048,-473011
1783776121127752945,2026-07-11T20:22:01.127+07:00,837091324458997496,-339711,-373054,-391011,-473011
1783776121145934763,2026-07-11T20:22:01.145+07:00,837091324458997496,-339719,-373041,-391026,-473049
1783776121164116581,2026-07-11T20:22:01.164+07:00,837091324458997496,-339657,-373046,-390957,-473044
1783776121182298399,2026-07-11T20:22:01.182+07:00,837091324458997496,-339617,-373006,-390929,-472947
1783776121200480217,2026-07-11T20:22:01.200+07:00,837091324458997496,-339601,-372996,-390900,-472934
1783776121218662035,2026-07-11T20:22:01.218+07:00,837091325259747090,-339554,-372961,-390875,-472984
1783776121236843853,2026-07-11T20:22:01.236+07:00,837091325259747090,-339518,-372925,-390847,-472992
1783776121255025671,2026-07-11T20:22:01.255+07:00,837091325259747090,-339427,-372880,-390728,-472988
1783776121273207489,2026-07-11T20:22:01.273+07:00,837091325259747090,-339472,-372939,-390766,-473073
1783776121291389307,2026-07-11T20:22:01.291+07:00,837091325259747090,-339422,-372872,-390789,-473031
1783776121309571125,2026-07-11T20:22:01.309+07:00,837091325259747090,-339370,-372859,-390780,-473000
1783776121327752943,2026-07-11T20:22:01.327+07:00,837091325259747090,-339331,-372813,-390717,-472993
1783776121345934761,2026-07-11T20:22:01.345+07:00,837091325259747090,-339450,-372943,-390851,-473001
1783776121364116579,2026-07-11T20:22:01.364+07:00,837091325259747090,-339539,-372914,-390912,-473015
1783776121382298397,2026-07-11T20:22:01.382+07:00,837091325259747090,-339615,-373050,-390992,-473000
1783776121400480215,2026-07-11T20:22:01.400+07:00,837091325259747090,-339780,-373149,-391092,-473069
1783776121418662033,2026-07-11T20:22:01.418+07:00,837091325259747090,-339920,-373195,-391123,-472977
1783776121436843851,2026-07-11T20:22:01.436+07:00,837091325259747090,-340030,-373239,-391200,-473017
1783776121455025669,2026-07-11T20:22:01.455+07:00,837091325259747090,-340088,-373298,-391197,-473004
1783776121473207487,2026-07-11T20:22:01.473+07:00,837091325259747090,-340112,-373285,-391280,-473045
1783776121491389305,2026-07-11T20:22:01.491+07:00,837091325259747090,-340147,-373369,-391271,-473043
1783776121509571123,2026-07-11T20:22:01.509+07:00,837091325259747090,-340127,-373379,-391276,-473014
1783776121527752941,2026-07-11T20:22:01.527+07:00,837091325259747090,-340196,-373419,-391291,-473012
1783776121545934759,2026-07-11T20:22:01.545+07:00,837091325259747090,-340154,-373391,-391213,-472995
1783776121564116577,2026-07-11T20:22:01.564+07:00,837091325259747090,-340144,-373399,-391241,-472959
1783776121582298395,2026-07-11T20:22:01.582+07:00,837091325259747090,-340180,-373408,-391226,-473017
1783776121600480213,2026-07-11T20:22:01.600+07:00,837091325259747090,-340181,-373444,-391248,-473021
1783776121618662031,2026-07-11T20:22:01.618+07:00,837091325259747090,-340148,-373449,-391215,-473029
1783776121636843849,2026-07-11T20:22:01.636+07:00,837091325259747090,-340072,-373359,-391182,-473048
1783776121655025667,2026-07-11T20:22:01.655+07:00,837091325259747090,-340145,-373356,-391214,-473031
1783776121673207485,2026-07-11T20:22:01.673+07:00,837091325259747090,-340192,-373389,-391213,-473047
1783776121691389303,2026-07-11T20:22:01.691+07:00,837091325259747090,-340156,-373342,-391200,-473009
1783776121709571121,2026-07-11T20:22:01.709+07:00,837091325259747090,-340130,-373309,-391164,-472996
1783776121727752939,2026-07-11T20:22:01.727+07:00,837091325259747090,-340131,-373333,-391151,-473023
1783776121745934757,2026-07-11T20:22:01.745+07:00,837091325259747090,-340156,-373366,-391171,-473038
1783776121764116575,2026-07-11T20:22:01.764+07:00,837091325259747090,-340138,-373341,-391160,-473030
1783776121782298393,2026-07-11T20:22:01.782+07:00,837091325259747090,-340060,-373304,-391144,-473027
1783776121800480211,2026-07-11T20:22:01.800+07:00,837091325259747090,-340064,-373264,-391072,-473028
1783776121818662029,2026-07-11T20:22:01.818+07:00,837091325259747090,-339962,-373273,-391063,-473010
1783776121836843847,2026-07-11T20:22:01.836+07:00,837091325259747090,-339998,-373269,-391109,-473085
1783776121855025665,2026-07-11T20:22:01.855+07:00,837091325259747090,-339914,-373200,-390980,-473046
1783776121873207483,2026-07-11T20:22:01.873+07:00,837091325259747090,-339853,-373130,-390913,-473050
1783776121891389301,2026-07-11T20:22:01.891+07:00,837091325259747090,-339847,-373157,-390975,-473050
1783776121909571119,2026-07-11T20:22:01.909+07:00,837091325259747090,-339816,-373075,-390930,-473047
1783776121927752937,2026-07-11T20:22:01.927+07:00,837091325259747090,-339763,-373046,-390907,-473007
1783776121945934755,2026-07-11T20:22:01.945+07:00,837091325259747090,-339641,-372985,-390827,-473006
1783776121964116573,2026-07-11T20:22:01.964+07:00,837091325259747090,-339620,-372985,-390787,-473014
1783776121982298391,2026-07-11T20:22:01.982+07:00,837091325259747090,-339574,-372892,-390737,-472983
1783776122000480209,2026-07-11T20:22:02.000+07:00,837091325259747090,-339519,-372891,-390764,-472973
1783776122018662027,2026-07-11T20:22:02.018+07:00,837091326115119325,-339455,-372858,-390686,-472979
1783776122036843845,2026-07-11T20:22:02.036+07:00,837091326115119325,-339435,-372889,-390744,-473028
1783776122055025663,2026-07-11T20:22:02.055+07:00,837091326115119325,-339506,-372949,-390792,-473009
1783776122073207481,2026-07-11T20:22:02.073+07:00,837091326115119325,-339625,-373023,-390805,-473024
1783776122091389299,2026-07-11T20:22:02.091+07:00,837091326115119325,-339762,-373097,-390959,-473000
1783776122109571117,2026-07-11T20:22:02.109+07:00,837091326115119325,-339901,-373162,-391004,-473012
1783776122127752935,2026-07-11T20:22:02.127+07:00,837091326115119325,-340003,-373234,-391063,-472988
1783776122145934753,2026-07-11T20:22:02.145+07:00,837091326115119325,-340078,-373327,-391110,-473067
1783776122164116571,2026-07-11T20:22:02.164+07:00,837091326115119325,-340114,-373362,-391130,-473036
1783776122182298389,2026-07-11T20:22:02.182+07:00,837091326115119325,-340196,-373357,-391198,-473081
1783776122200480207,2026-07-11T20:22:02.200+07:00,837091326115119325,-340179,-373421,-391148,-473047
1783776122218662025,2026-07-11T20:22:02.218+07:00,837091326115119325,-340208,-373364,-391146,-472964
1783776122236843843,2026-07-11T20:22:02.236+07:00,837091326115119325,-340187,-373348,-391127,-473023
1783776122255025661,2026-07-11T20:22:02.255+07:00,837091326115119325,-340239,-373331,-391126,-473062
1783776122273207479,2026-07-11T20:22:02.273+07:00,837091326115119325,-340168,-373377,-391141,-473056
1783776122291389297,2026-07-11T20:22:02.291+07:00,837091326115119325,-340136,-373375,-391141,-473028
1783776122309571115,2026-07-11T20:22:02.309+07:00,837091326115119325,-340191,-373392,-391119,-473019
1783776122327752933,2026-07-11T20:22:02.327+07:00,837091326115119325,-340149,-373393,-391077,-473029
1783776122345934751,2026-07-11T20:22:02.345+07:00,837091326115119325,-340147,-373356,-391092,-473002
1783776122364116569,2026-07-11T20:22:02.364+07:00,837091326115119325,-340161,-373344,-391078,-472996
1783776122382298387,2026-07-11T20:22:02.382+07:00,837091326115119325,-340135,-373359,-391133,-472981
1783776122400480205,2026-07-11T20:22:02.400+07:00,837091326115119325,-340178,-373352,-391113,-473023
1783776122418662023,2026-07-11T20:22:02.418+07:00,837091326115119325,-340130,-373378,-391095,-473055
1783776122436843841,2026-07-11T20:22:02.436+07:00,837091326115119325,-340178,-373338,-391070,-472954
1783776122455025659,2026-07-11T20:22:02.455+07:00,837091326115119325,-340167,-373440,-391083,-472999
1783776122473207477,2026-07-11T20:22:02.473+07:00,837091326115119325,-340145,-373370,-391111,-473039
1783776122491389295,2026-07-11T20:22:02.491+07:00,837091326115119325,-340118,-373362,-391038,-473015
1783776122509571113,2026-07-11T20:22:02.509+07:00,837091326115119325,-340071,-373305,-390966,-473058
1783776122527752931,2026-07-11T20:22:02.527+07:00,837091326115119325,-340017,-373245,-390950,-472981
1783776122545934749,2026-07-11T20:22:02.545+07:00,837091326115119325,-340007,-373260,-390966,-473002
1783776122564116567,2026-07-11T20:22:02.564+07:00,837091326115119325,-339954,-373245,-390884,-473043
1783776122582298385,2026-07-11T20:22:02.582+07:00,837091326115119325,-339882,-373168,-390879,-473046
1783776122600480203,2026-07-11T20:22:02.600+07:00,837091326115119325,-339816,-373154,-390843,-473036
1783776122618662021,2026-07-11T20:22:02.618+07:00,837091326115119325,-339793,-373105,-390839,-473055
1783776122636843839,2026-07-11T20:22:02.636+07:00,837091326115119325,-339669,-373065,-390728,-472995
1783776122655025657,2026-07-11T20:22:02.655+07:00,837091326115119325,-339670,-372997,-390724,-473022
1783776122673207475,2026-07-11T20:22:02.673+07:00,837091326115119325,-339575,-372999,-390734,-472986
1783776122691389293,2026-07-11T20:22:02.691+07:00,837091326115119325,-339550,-372923,-390645,-473012
1783776122709571111,2026-07-11T20:22:02.709+07:00,837091326115119325,-339505,-372854,-390591,-473024
1783776122727752929,2026-07-11T20:22:02.727+07:00,837091326115119325,-339452,-372829,-390559,-472992
1783776122745934747,2026-07-11T20:22:02.745+07:00,837091326115119325,-339360,-372790,-390582,-473062
1783776122764116565,2026-07-11T20:22:02.764+07:00,837091326115119325,-339318,-372823,-390552,-473033
1783776122782298383,2026-07-11T20:22:02.782+07:00,837091326115119325,-339334,-372843,-390501,-473067
1783776122800480201,2026-07-11T20:22:02.800+07:00,837091326115119325,-339348,-372852,-390516,-473053
1783776122818662019,2026-07-11T20:22:02.818+07:00,837091326115119325,-339365,-372900,-390560,-473021
1783776122836843837,2026-07-11T20:22:02.836+07:00,837091326115119325,-339609,-372997,-390775,-473065
1783776122855025655,2026-07-11T20:22:02.855+07:00,837091326115119325,-339646,-373021,-390787,-473026
1783776122873207473,2026-07-11T20:22:02.873+07:00,837091326934062230,-339731,-373031,-390795,-473007
1783776122891389291,2026-07-11T20:22:02.891+07:00,837091326934062230,-339790,-373135,-390843,-473037
1783776122909571109,2026-07-11T20:22:02.909+07:00,837091326934062230,-339832,-373173,-390836,-473018
1783776122927752927,2026-07-11T20:22:02.927+07:00,837091326934062230,-339792,-373122,-390846,-473014
1783776122945934745,2026-07-11T20:22:02.945+07:00,837091326934062230,-339883,-373165,-390921,-473049
1783776122964116563,2026-07-11T20:22:02.964+07:00,837091326934062230,-339817,-373171,-390881,-473043
1783776122982298381,2026-07-11T20:22:02.982+07:00,837091326934062230,-339798,-373068,-390843,-473007
1783776123000480199,2026-07-11T20:22:03.000+07:00,837091326934062230,-339834,-373166,-390876,-473061
1783776123018662017,2026-07-11T20:22:03.018+07:00,837091326934062230,-339830,-373143,-390822,-473056
1783776123036843835,2026-07-11T20:22:03.036+07:00,837091326934062230,-339848,-373108,-390853,-473032
1783776123055025653,2026-07-11T20:22:03.055+07:00,837091326934062230,-339737,-373078,-390824,-473046
1783776123073207471,2026-07-11T20:22:03.073+07:00,837091326934062230,-339697,-373000,-390717,-472951
1783776123091389289,2026-07-11T20:22:03.091+07:00,837091326934062230,-339740,-373071,-390832,-473022
1783776123109571107,2026-07-11T20:22:03.109+07:00,837091326934062230,-339704,-373051,-390786,-472976
1783776123127752925,2026-07-11T20:22:03.127+07:00,837091326934062230,-339707,-373070,-390787,-472973
1783776123145934743,2026-07-11T20:22:03.145+07:00,837091326934062230,-339654,-373070,-390791,-472972
1783776123164116561,2026-07-11T20:22:03.164+07:00,837091326934062230,-339726,-373046,-390795,-473027
1783776123182298379,2026-07-11T20:22:03.182+07:00,837091326934062230,-339657,-373067,-390782,-472972
1783776123200480197,2026-07-11T20:22:03.200+07:00,837091326934062230,-339601,-372979,-390691,-473001
1783776123218662015,2026-07-11T20:22:03.218+07:00,837091326934062230,-339612,-373026,-390723,-472997
1783776123236843833,2026-07-11T20:22:03.236+07:00,837091326934062230,-339600,-372933,-390594,-472954
1783776123255025651,2026-07-11T20:22:03.255+07:00,837091326934062230,-339560,-372882,-390633,-473022
1783776123273207469,2026-07-11T20:22:03.273+07:00,837091326934062230,-339539,-372891,-390624,-472953
1783776123291389287,2026-07-11T20:22:03.291+07:00,837091326934062230,-339502,-372917,-390587,-473000
1783776123309571105,2026-07-11T20:22:03.309+07:00,837091326934062230,-339407,-372855,-390513,-472966
1783776123327752923,2026-07-11T20:22:03.327+07:00,837091326934062230,-339319,-372789,-390488,-473036
1783776123345934741,2026-07-11T20:22:03.345+07:00,837091326934062230,-339295,-372770,-390483,-472994
1783776123364116559,2026-07-11T20:22:03.364+07:00,837091326934062230,-339226,-372758,-390424,-473010
1783776123382298377,2026-07-11T20:22:03.382+07:00,837091326934062230,-339152,-372703,-390382,-472999
1783776123400480195,2026-07-11T20:22:03.400+07:00,837091326934062230,-339101,-372678,-390349,-473005
1783776123418662013,2026-07-11T20:22:03.418+07:00,837091326934062230,-339031,-372627,-390307,-472950
1783776123436843831,2026-07-11T20:22:03.436+07:00,837091326934062230,-339004,-372608,-390266,-472970
1783776123455025649,2026-07-11T20:22:03.455+07:00,837091326934062230,-339022,-372601,-390330,-472994
1783776123473207467,2026-07-11T20:22:03.473+07:00,837091326934062230,-338936,-372492,-390247,-473033
1783776123491389285,2026-07-11T20:22:03.491+07:00,837091326934062230,-338845,-372454,-390185,-472984
1783776123509571103,2026-07-11T20:22:03.509+07:00,837091326934062230,-338814,-372407,-390144,-472979
1783776123527752921,2026-07-11T20:22:03.527+07:00,837091326934062230,-338729,-372445,-390151,-473030
1783776123545934739,2026-07-11T20:22:03.545+07:00,837091326934062230,-338595,-372362,-390061,-472948
1783776123564116557,2026-07-11T20:22:03.564+07:00,837091326934062230,-338632,-372350,-390041,-473006
1783776123582298375,2026-07-11T20:22:03.582+07:00,837091326934062230,-338599,-372285,-390062,-473061
1783776123600480193,2026-07-11T20:22:03.600+07:00,837091326934062230,-338623,-372360,-390087,-472979
1783776123618662011,2026-07-11T20:22:03.618+07:00,837091326934062230,-338720,-372414,-390139,-473031
1783776123636843829,2026-07-11T20:22:03.636+07:00,837091326934062230,-338761,-372467,-390237,-472998
1783776123655025647,2026-07-11T20:22:03.655+07:00,837091326934062230,-338864,-372529,-390288,-473053
1783776123673207465,2026-07-11T20:22:03.673+07:00,837091326934062230,-338984,-372582,-390345,-473103
1783776123691389283,2026-07-11T20:22:03.691+07:00,837091327789403947,-339074,-372624,-390371,-473014
1783776123709571101,2026-07-11T20:22:03.709+07:00,837091327789403947,-339041,-372577,-390313,-473009
1783776123727752919,2026-07-11T20:22:03.727+07:00,837091327789403947,-339032,-372517,-390291,-473023
1783776123745934737,2026-07-11T20:22:03.745+07:00,837091327789403947,-339038,-372575,-390304,-473014
1783776123764116555,2026-07-11T20:22:03.764+07:00,837091327789403947,-339052,-372538,-390351,-473006
1783776123782298373,2026-07-11T20:22:03.782+07:00,837091327789403947,-338945,-372521,-390314,-473009
1783776123800480191,2026-07-11T20:22:03.800+07:00,837091327789403947,-338909,-372465,-390280,-473015
1783776123818662009,2026-07-11T20:22:03.818+07:00,837091327789403947,-338890,-372447,-390270,-472999
1783776123836843827,2026-07-11T20:22:03.836+07:00,837091327789403947,-338861,-372428,-390200,-472966
1783776123855025645,2026-07-11T20:22:03.855+07:00,837091327789403947,-338859,-372385,-390227,-472997
1783776123873207463,2026-07-11T20:22:03.873+07:00,837091327789403947,-338814,-372386,-390188,-472982
1783776123891389281,2026-07-11T20:22:03.891+07:00,837091327789403947,-338830,-372403,-390184,-472984
1783776123909571099,2026-07-11T20:22:03.909+07:00,837091327789403947,-338773,-372363,-390156,-473011
1783776123927752917,2026-07-11T20:22:03.927+07:00,837091327789403947,-338807,-372426,-390176,-472948
1783776123945934735,2026-07-11T20:22:03.945+07:00,837091327789403947,-338763,-372388,-390091,-472995
1783776123964116553,2026-07-11T20:22:03.964+07:00,837091327789403947,-338780,-372435,-390147,-472977
1783776123982298371,2026-07-11T20:22:03.982+07:00,837091327789403947,-338739,-372315,-390069,-472969
1783776124000480189,2026-07-11T20:22:04.000+07:00,837091327789403947,-338736,-372296,-390023,-472937
1783776124018662007,2026-07-11T20:22:04.018+07:00,837091327789403947,-338677,-372329,-390011,-472998
1783776124036843825,2026-07-11T20:22:04.036+07:00,837091327789403947,-338644,-372290,-389996,-473049
1783776124055025643,2026-07-11T20:22:04.055+07:00,837091327789403947,-338601,-372250,-389972,-472960
1783776124073207461,2026-07-11T20:22:04.073+07:00,837091327789403947,-338508,-372171,-389919,-472925
1783776124091389279,2026-07-11T20:22:04.091+07:00,837091327789403947,-338481,-372187,-389929,-472980
1783776124109571097,2026-07-11T20:22:04.109+07:00,837091327789403947,-338483,-372163,-389921,-472999
1783776124127752915,2026-07-11T20:22:04.127+07:00,837091327789403947,-338406,-372075,-389902,-473012
1783776124145934733,2026-07-11T20:22:04.145+07:00,837091327789403947,-338363,-372035,-389818,-473013
1783776124164116551,2026-07-11T20:22:04.164+07:00,837091327789403947,-338311,-372017,-389787,-472980
1783776124182298369,2026-07-11T20:22:04.182+07:00,837091327789403947,-338253,-372011,-389775,-472907
1783776124200480187,2026-07-11T20:22:04.200+07:00,837091327789403947,-338156,-371991,-389779,-472939
1783776124218662005,2026-07-11T20:22:04.218+07:00,837091327789403947,-338107,-371938,-389741,-472964
1783776124236843823,2026-07-11T20:22:04.236+07:00,837091327789403947,-338138,-371955,-389735,-473043
1783776124255025641,2026-07-11T20:22:04.255+07:00,837091327789403947,-338137,-371875,-389723,-473033
1783776124273207459,2026-07-11T20:22:04.273+07:00,837091327789403947,-337995,-371876,-389676,-472993
1783776124291389277,2026-07-11T20:22:04.291+07:00,837091327789403947,-337925,-371755,-389594,-472970
1783776124309571095,2026-07-11T20:22:04.309+07:00,837091327789403947,-337865,-371853,-389642,-472976
1783776124327752913,2026-07-11T20:22:04.327+07:00,837091327789403947,-337833,-371734,-389618,-473023
1783776124345934731,2026-07-11T20:22:04.345+07:00,837091327789403947,-337843,-371665,-389522,-473003
1783776124364116549,2026-07-11T20:22:04.364+07:00,837091327789403947,-337838,-371699,-389540,-472981
1783776124382298367,2026-07-11T20:22:04.382+07:00,837091327789403947,-337817,-371785,-389645,-473017
1783776124400480185,2026-07-11T20:22:04.400+07:00,837091327789403947,-337921,-371762,-389621,-472978
1783776124418662003,2026-07-11T20:22:04.418+07:00,837091327789403947,-337944,-371870,-389654,-473014
1783776124436843821,2026-07-11T20:22:04.436+07:00,837091327789403947,-338076,-371958,-389769,-472968
1783776124455025639,2026-07-11T20:22:04.455+07:00,837091327789403947,-338132,-371958,-389875,-472950
1783776124473207457,2026-07-11T20:22:04.473+07:00,837091327789403947,-338213,-371997,-389875,-472994
1783776124491389275,2026-07-11T20:22:04.491+07:00,837091327789403947,-338216,-372072,-389864,-472978
1783776124509571093,2026-07-11T20:22:04.509+07:00,837091327789403947,-338207,-372071,-389895,-473023
1783776124527752911,2026-07-11T20:22:04.527+07:00,837091327789403947,-338273,-372022,-389882,-473024
1783776124545934729,2026-07-11T20:22:04.545+07:00,837091328662975591,-338257,-372052,-389911,-473043
1783776124564116547,2026-07-11T20:22:04.564+07:00,837091328662975591,-338228,-372028,-389854,-473012
1783776124582298365,2026-07-11T20:22:04.582+07:00,837091328662975591,-338237,-372009,-389821,-472995
1783776124600480183,2026-07-11T20:22:04.600+07:00,837091328662975591,-338196,-371971,-389803,-472967
1783776124618662001,2026-07-11T20:22:04.618+07:00,837091328662975591,-338179,-371953,-389799,-473012
1783776124636843819,2026-07-11T20:22:04.636+07:00,837091328662975591,-338138,-371946,-389787,-473040
1783776124655025637,2026-07-11T20:22:04.655+07:00,837091328662975591,-338059,-371900,-389696,-473001
1783776124673207455,2026-07-11T20:22:04.673+07:00,837091328662975591,-338082,-371922,-389752,-473036
1783776124691389273,2026-07-11T20:22:04.691+07:00,837091328662975591,-338031,-371925,-389740,-473000
1783776124709571091,2026-07-11T20:22:04.709+07:00,837091328662975591,-338137,-371948,-389737,-473064
1783776124727752909,2026-07-11T20:22:04.727+07:00,837091328662975591,-338063,-371910,-389719,-473022
1783776124745934727,2026-07-11T20:22:04.745+07:00,837091328662975591,-338037,-371841,-389700,-472989
1783776124764116545,2026-07-11T20:22:04.764+07:00,837091328662975591,-337961,-371876,-389707,-473034
1783776124782298363,2026-07-11T20:22:04.782+07:00,837091328662975591,-337943,-371898,-389689,-473012
1783776124800480181,2026-07-11T20:22:04.800+07:00,837091328662975591,-337946,-371841,-389645,-473031
1783776124818661999,2026-07-11T20:22:04.818+07:00,837091328662975591,-337878,-371752,-389579,-473000
1783776124836843817,2026-07-11T20:22:04.836+07:00,837091328662975591,-337829,-371695,-389556,-472980
1783776124855025635,2026-07-11T20:22:04.855+07:00,837091328662975591,-337790,-371724,-389543,-472954
1783776124873207453,2026-07-11T20:22:04.873+07:00,837091328662975591,-337792,-371679,-389517,-473013
1783776124891389271,2026-07-11T20:22:04.891+07:00,837091328662975591,-337756,-371675,-389455,-473023
1783776124909571089,2026-07-11T20:22:04.909+07:00,837091328662975591,-337671,-371607,-389431,-473011
1783776124927752907,2026-07-11T20:22:04.927+07:00,837091328662975591,-337650,-371632,-389467,-473081
1783776124945934725,2026-07-11T20:22:04.945+07:00,837091328662975591,-337604,-371561,-389356,-473044
1783776124964116543,2026-07-11T20:22:04.964+07:00,837091328662975591,-337506,-371516,-389405,-473031
1783776124982298361,2026-07-11T20:22:04.982+07:00,837091328662975591,-337565,-371511,-389369,-473013
1783776125000480179,2026-07-11T20:22:05.000+07:00,837091328662975591,-337406,-371458,-389292,-473002
1783776125018661997,2026-07-11T20:22:05.018+07:00,837091328662975591,-337354,-371414,-389346,-472982
1783776125036843815,2026-07-11T20:22:05.036+07:00,837091328662975591,-337308,-371381,-389238,-472950
1783776125055025633,2026-07-11T20:22:05.055+07:00,837091328662975591,-337291,-371278,-389246,-473013
1783776125073207451,2026-07-11T20:22:05.073+07:00,837091328662975591,-337209,-371305,-389181,-473046
1783776125091389269,2026-07-11T20:22:05.091+07:00,837091328662975591,-337233,-371328,-389207,-473037
1783776125109571087,2026-07-11T20:22:05.109+07:00,837091328662975591,-337120,-371212,-389141,-473013
1783776125127752905,2026-07-11T20:22:05.127+07:00,837091328662975591,-337087,-371250,-389144,-472999
1783776125145934723,2026-07-11T20:22:05.145+07:00,837091328662975591,-337126,-371190,-389171,-472976
1783776125164116541,2026-07-11T20:22:05.164+07:00,837091328662975591,-337170,-371283,-389243,-472997
1783776125182298359,2026-07-11T20:22:05.182+07:00,837091328662975591,-337245,-371328,-389316,-473055
1783776125200480177,2026-07-11T20:22:05.200+07:00,837091328662975591,-337330,-371411,-389376,-472998
1783776125218661995,2026-07-11T20:22:05.218+07:00,837091328662975591,-337401,-371493,-389456,-473032
1783776125236843813,2026-07-11T20:22:05.236+07:00,837091328662975591,-337460,-371489,-389429,-473030
1783776125255025631,2026-07-11T20:22:05.255+07:00,837091328662975591,-337463,-371465,-389433,-473027
1783776125273207449,2026-07-11T20:22:05.273+07:00,837091328662975591,-337485,-371450,-389426,-472972
1783776125291389267,2026-07-11T20:22:05.291+07:00,837091328662975591,-337511,-371507,-389412,-472978
1783776125309571085,2026-07-11T20:22:05.309+07:00,837091328662975591,-337512,-371472,-389423,-472996
1783776125327752903,2026-07-11T20:22:05.327+07:00,837091328662975591,-337403,-371371,-389327,-472948
1783776125345934721,2026-07-11T20:22:05.345+07:00,837091328662975591,-337372,-371403,-389326,-472982
1783776125364116539,2026-07-11T20:22:05.364+07:00,837091328662975591,-337372,-371357,-389358,-472939
1783776125382298357,2026-07-11T20:22:05.382+07:00,837091328662975591,-337339,-371359,-389320,-472909
1783776125400480175,2026-07-11T20:22:05.400+07:00,837091328662975591,-337328,-371345,-389291,-472981
