host_timestamp_ns,host_timestamp_iso,pmd_timestamp,ppg0,ppg1,ppg2,ambient
1783265555246505400,2026-07-05T22:32:35.246+07:00,540127130653470527,-322055,-298210,-356479,-472904
1783265555264687218,2026-07-05T22:32:35.264+07:00,540127130653470527,-322579,-298464,-356739,-472867
1783265555282869036,2026-07-05T22:32:35.282+07:00,540127130653470527,-323235,-298938,-357206,-472934
1783265555301050854,2026-07-05T22:32:35.301+07:00,540127130653470527,-324061,-299455,-357702,-472934
1783265555319232672,2026-07-05T22:32:35.319+07:00,540127130653470527,-324795,-300124,-358242,-472900
1783265555337414490,2026-07-05T22:32:35.337+07:00,540127130653470527,-325392,-300653,-358631,-472911
1783265555355596309,2026-07-05T22:32:35.355+07:00,540127130653470527,-325944,-301076,-358863,-472969
1783265555373778127,2026-07-05T22:32:35.373+07:00,540127130653470527,-326214,-301365,-359022,-472891
1783265555391959945,2026-07-05T22:32:35.391+07:00,540127130653470527,-326394,-301531,-359043,-472887
1783265555410141763,2026-07-05T22:32:35.410+07:00,540127130653470527,-326437,-301653,-359060,-472937
1783265555428323581,2026-07-05T22:32:35.428+07:00,540127130653470527,-326440,-301675,-358900,-472913
1783265555446505400,2026-07-05T22:32:35.446+07:00,540127130653470527,-326422,-301685,-358857,-472879
1783265555464687218,2026-07-05T22:32:35.464+07:00,540127130653470527,-326573,-301730,-358856,-472877
1783265555482869036,2026-07-05T22:32:35.482+07:00,540127130653470527,-326637,-301824,-358976,-472890
1783265555501050854,2026-07-05T22:32:35.501+07:00,540127130653470527,-326727,-301931,-359064,-472885
1783265555519232672,2026-07-05T22:32:35.519+07:00,540127130653470527,-326876,-302014,-359153,-472908
1783265555537414490,2026-07-05T22:32:35.537+07:00,540127130653470527,-326981,-302050,-359166,-472912
1783265555555596309,2026-07-05T22:32:35.555+07:00,540127130653470527,-327087,-302096,-359148,-472911
1783265555573778127,2026-07-05T22:32:35.573+07:00,540127130653470527,-327157,-302100,-359161,-472886
1783265555591959945,2026-07-05T22:32:35.591+07:00,540127130653470527,-327297,-302165,-359306,-472890
1783265555610141763,2026-07-05T22:32:35.610+07:00,540127130653470527,-327422,-302265,-359455,-472884
1783265555628323581,2026-07-05T22:32:35.628+07:00,540127130653470527,-327629,-302203,-359659,-472894
1783265555646505400,2026-07-05T22:32:35.646+07:00,540127130653470527,-327641,-302048,-359672,-472866
1783265555664687218,2026-07-05T22:32:35.664+07:00,540127130653470527,-327655,-301792,-359550,-472934
1783265555682869036,2026-07-05T22:32:35.682+07:00,540127130653470527,-327437,-301509,-359364,-472890
1783265555701050854,2026-07-05T22:32:35.701+07:00,540127130653470527,-327247,-301236,-359130,-472973
1783265555719232672,2026-07-05T22:32:35.719+07:00,540127130653470527,-327000,-300922,-358917,-472962
1783265555737414490,2026-07-05T22:32:35.737+07:00,540127130653470527,-326804,-300607,-358721,-472958
1783265555755596309,2026-07-05T22:32:35.755+07:00,540127130653470527,-326637,-300443,-358589,-472917
1783265555773778127,2026-07-05T22:32:35.773+07:00,540127130653470527,-326476,-300215,-358469,-472969
1783265555791959945,2026-07-05T22:32:35.791+07:00,540127130653470527,-326362,-300058,-358327,-472999
1783265555810141763,2026-07-05T22:32:35.810+07:00,540127130653470527,-326283,-299925,-358239,-473006
1783265555828323581,2026-07-05T22:32:35.828+07:00,540127130653470527,-326195,-299729,-358154,-472986
1783265555846505400,2026-07-05T22:32:35.846+07:00,540127130653470527,-326013,-299587,-358091,-472916
1783265555864687218,2026-07-05T22:32:35.864+07:00,540127130653470527,-325845,-299457,-357989,-472965
1783265555882869036,2026-07-05T22:32:35.882+07:00,540127130653470527,-325761,-299358,-357926,-472916
1783265555901050854,2026-07-05T22:32:35.901+07:00,540127130653470527,-325747,-299264,-357943,-472897
1783265556045084500,2026-07-05T22:32:36.045+07:00,540127131417658029,-325758,-299303,-357912,-472999
1783265556063266318,2026-07-05T22:32:36.063+07:00,540127131417658029,-325665,-299144,-357842,-473002
1783265556081448136,2026-07-05T22:32:36.081+07:00,540127131417658029,-325608,-299037,-357686,-473015
1783265556099629954,2026-07-05T22:32:36.099+07:00,540127131417658029,-325664,-298913,-357533,-472948
1783265556117811772,2026-07-05T22:32:36.117+07:00,540127131417658029,-325627,-298501,-357192,-472882
1783265556135993590,2026-07-05T22:32:36.135+07:00,540127131417658029,-325440,-298127,-356772,-472959
1783265556154175409,2026-07-05T22:32:36.154+07:00,540127131417658029,-325222,-297792,-356447,-472956
1783265556172357227,2026-07-05T22:32:36.172+07:00,540127131417658029,-324978,-297531,-356141,-473016
1783265556190539045,2026-07-05T22:32:36.190+07:00,540127131417658029,-324747,-297178,-355777,-472903
1783265556208720863,2026-07-05T22:32:36.208+07:00,540127131417658029,-324613,-296973,-355564,-472893
1783265556226902681,2026-07-05T22:32:36.226+07:00,540127131417658029,-324604,-296691,-355315,-472935
1783265556245084500,2026-07-05T22:32:36.245+07:00,540127131417658029,-324612,-296512,-355143,-472920
1783265556263266318,2026-07-05T22:32:36.263+07:00,540127131417658029,-324666,-296349,-354988,-472990
1783265556281448136,2026-07-05T22:32:36.281+07:00,540127131417658029,-324686,-296249,-354905,-472944
1783265556299629954,2026-07-05T22:32:36.299+07:00,540127131417658029,-324829,-296123,-354815,-472942
1783265556317811772,2026-07-05T22:32:36.317+07:00,540127131417658029,-324956,-296085,-354801,-472977
1783265556335993590,2026-07-05T22:32:36.335+07:00,540127131417658029,-325000,-296017,-354726,-472966
1783265556354175409,2026-07-05T22:32:36.354+07:00,540127131417658029,-324956,-295915,-354621,-472937
1783265556372357227,2026-07-05T22:32:36.372+07:00,540127131417658029,-324955,-295815,-354530,-472921
1783265556390539045,2026-07-05T22:32:36.390+07:00,540127131417658029,-324915,-295711,-354434,-472903
1783265556408720863,2026-07-05T22:32:36.408+07:00,540127131417658029,-324944,-295647,-354401,-472862
1783265556426902681,2026-07-05T22:32:36.426+07:00,540127131417658029,-325010,-295605,-354433,-472884
1783265556445084500,2026-07-05T22:32:36.445+07:00,540127131417658029,-325003,-295604,-354337,-472905
1783265556463266318,2026-07-05T22:32:36.463+07:00,540127131417658029,-324959,-295503,-354255,-472843
1783265556481448136,2026-07-05T22:32:36.481+07:00,540127131417658029,-324968,-295359,-354262,-472916
1783265556499629954,2026-07-05T22:32:36.499+07:00,540127131417658029,-324920,-295261,-354179,-472867
1783265556517811772,2026-07-05T22:32:36.517+07:00,540127131417658029,-324823,-295151,-354042,-472918
1783265556535993590,2026-07-05T22:32:36.535+07:00,540127131417658029,-324784,-294981,-353978,-472922
1783265556554175409,2026-07-05T22:32:36.554+07:00,540127131417658029,-324662,-294840,-353830,-472942
1783265556572357227,2026-07-05T22:32:36.572+07:00,540127131417658029,-324591,-294676,-353718,-472936
1783265556590539045,2026-07-05T22:32:36.590+07:00,540127131417658029,-324515,-294537,-353669,-472952
1783265556608720863,2026-07-05T22:32:36.608+07:00,540127131417658029,-324434,-294378,-353568,-472970
1783265556626902681,2026-07-05T22:32:36.626+07:00,540127131417658029,-324307,-294156,-353412,-472947
1783265556645084500,2026-07-05T22:32:36.645+07:00,540127131417658029,-324129,-293929,-353215,-472893
1783265556663266318,2026-07-05T22:32:36.663+07:00,540127131417658029,-324030,-293768,-353084,-472954
1783265556681448136,2026-07-05T22:32:36.681+07:00,540127131417658029,-323890,-293541,-352933,-472910
1783265556699629954,2026-07-05T22:32:36.699+07:00,540127131417658029,-323838,-293401,-352787,-472918
1783265556717811772,2026-07-05T22:32:36.717+07:00,540127131417658029,-323562,-293128,-352545,-472903
1783265556735993590,2026-07-05T22:32:36.735+07:00,540127131417658029,-323482,-292939,-352475,-472937
1783265556754175409,2026-07-05T22:32:36.754+07:00,540127131417658029,-323303,-292694,-352276,-472931
1783265556772357227,2026-07-05T22:32:36.772+07:00,540127131417658029,-323181,-292514,-352161,-472942
1783265556790539045,2026-07-05T22:32:36.790+07:00,540127131417658029,-322979,-292245,-351975,-472950
1783265557220230400,2026-07-05T22:32:37.220+07:00,540127132181903529,-322865,-291983,-351841,-472934
1783265557238412218,2026-07-05T22:32:37.238+07:00,540127132181903529,-322663,-291749,-351657,-472876
1783265557256594036,2026-07-05T22:32:37.256+07:00,540127132181903529,-322515,-291580,-351565,-472973
1783265557274775854,2026-07-05T22:32:37.274+07:00,540127132181903529,-322306,-291406,-351442,-472937
1783265557292957672,2026-07-05T22:32:37.292+07:00,540127132181903529,-322326,-291324,-351395,-472898
1783265557311139490,2026-07-05T22:32:37.311+07:00,540127132181903529,-322409,-291373,-351468,-472912
1783265557329321309,2026-07-05T22:32:37.329+07:00,540127132181903529,-322657,-291530,-351581,-472907
1783265557347503127,2026-07-05T22:32:37.347+07:00,540127132181903529,-322956,-291825,-351782,-472886
1783265557365684945,2026-07-05T22:32:37.365+07:00,540127132181903529,-323308,-292142,-351995,-472887
1783265557383866763,2026-07-05T22:32:37.383+07:00,540127132181903529,-323664,-292409,-352286,-472918
1783265557402048581,2026-07-05T22:32:37.402+07:00,540127132181903529,-324020,-292772,-352521,-472967
1783265557420230400,2026-07-05T22:32:37.420+07:00,540127132181903529,-324235,-292972,-352685,-472891
1783265557438412218,2026-07-05T22:32:37.438+07:00,540127132181903529,-324454,-293275,-352877,-472943
1783265557456594036,2026-07-05T22:32:37.456+07:00,540127132181903529,-324714,-293491,-353081,-472968
1783265557474775854,2026-07-05T22:32:37.474+07:00,540127132181903529,-324859,-293609,-353131,-472961
1783265557492957672,2026-07-05T22:32:37.492+07:00,540127132181903529,-324987,-293691,-353221,-472962
1783265557511139490,2026-07-05T22:32:37.511+07:00,540127132181903529,-324995,-293639,-353197,-472877
1783265557529321309,2026-07-05T22:32:37.529+07:00,540127132181903529,-325012,-293690,-353196,-472892
1783265557547503127,2026-07-05T22:32:37.547+07:00,540127132181903529,-325048,-293721,-353164,-472931
1783265557565684945,2026-07-05T22:32:37.565+07:00,540127132181903529,-325048,-293659,-353169,-472916
1783265557583866763,2026-07-05T22:32:37.583+07:00,540127132181903529,-325129,-293693,-353206,-472931
1783265557602048581,2026-07-05T22:32:37.602+07:00,540127132181903529,-325182,-293710,-353249,-472920
1783265557620230400,2026-07-05T22:32:37.620+07:00,540127132181903529,-325176,-293725,-353174,-472938
1783265557638412218,2026-07-05T22:32:37.638+07:00,540127132181903529,-325160,-293687,-353203,-472843
1783265557656594036,2026-07-05T22:32:37.656+07:00,540127132181903529,-325245,-293648,-353189,-472939
1783265557674775854,2026-07-05T22:32:37.674+07:00,540127132181903529,-325210,-293676,-353199,-472901
1783265557692957672,2026-07-05T22:32:37.692+07:00,540127132181903529,-325098,-293480,-353089,-472890
1783265557711139490,2026-07-05T22:32:37.711+07:00,540127132181903529,-325091,-293462,-353057,-472884
1783265557729321309,2026-07-05T22:32:37.729+07:00,540127132181903529,-325057,-293373,-353011,-472951
1783265557747503127,2026-07-05T22:32:37.747+07:00,540127132181903529,-324962,-293308,-352927,-472917
1783265557765684945,2026-07-05T22:32:37.765+07:00,540127132181903529,-324851,-293265,-352893,-472937
1783265557783866763,2026-07-05T22:32:37.783+07:00,540127132181903529,-324832,-293156,-352823,-472928
1783265557802048581,2026-07-05T22:32:37.802+07:00,540127132181903529,-324666,-293028,-352712,-472928
1783265557820230400,2026-07-05T22:32:37.820+07:00,540127132181903529,-324617,-292833,-352624,-472945
1783265557838412218,2026-07-05T22:32:37.838+07:00,540127132181903529,-324455,-292685,-352478,-472912
1783265557856594036,2026-07-05T22:32:37.856+07:00,540127132181903529,-324379,-292578,-352379,-472881
1783265557874775854,2026-07-05T22:32:37.874+07:00,540127132181903529,-324254,-292464,-352300,-472891
1783265557892957672,2026-07-05T22:32:37.892+07:00,540127132181903529,-324125,-292195,-352140,-472875
1783265557911139490,2026-07-05T22:32:37.911+07:00,540127132181903529,-323986,-292045,-352072,-472929
1783265557929321309,2026-07-05T22:32:37.929+07:00,540127132181903529,-323867,-291895,-351994,-472884
1783265557947503127,2026-07-05T22:32:37.947+07:00,540127132181903529,-323702,-291712,-351835,-472875
1783265557965684945,2026-07-05T22:32:37.965+07:00,540127132181903529,-323553,-291596,-351687,-472941
1783265557969845400,2026-07-05T22:32:37.969+07:00,540127132946115447,-323416,-291423,-351538,-472868
1783265557988027218,2026-07-05T22:32:37.988+07:00,540127132946115447,-323283,-291225,-351476,-472926
1783265558006209036,2026-07-05T22:32:38.006+07:00,540127132946115447,-323246,-291041,-351350,-472938
1783265558024390854,2026-07-05T22:32:38.024+07:00,540127132946115447,-323203,-291041,-351328,-472935
1783265558042572672,2026-07-05T22:32:38.042+07:00,540127132946115447,-323422,-291211,-351503,-472928
1783265558060754490,2026-07-05T22:32:38.060+07:00,540127132946115447,-323678,-291461,-351630,-472908
1783265558078936309,2026-07-05T22:32:38.078+07:00,540127132946115447,-324072,-291885,-351939,-472987
1783265558097118127,2026-07-05T22:32:38.097+07:00,540127132946115447,-324373,-292159,-352145,-472932
1783265558115299945,2026-07-05T22:32:38.115+07:00,540127132946115447,-324712,-292509,-352413,-472909
1783265558133481763,2026-07-05T22:32:38.133+07:00,540127132946115447,-324971,-292834,-352655,-472914
1783265558151663581,2026-07-05T22:32:38.151+07:00,540127132946115447,-325214,-293074,-352863,-472933
1783265558169845400,2026-07-05T22:32:38.169+07:00,540127132946115447,-325512,-293354,-353044,-472959
1783265558188027218,2026-07-05T22:32:38.188+07:00,540127132946115447,-325666,-293504,-353151,-472908
1783265558206209036,2026-07-05T22:32:38.206+07:00,540127132946115447,-325801,-293666,-353225,-472942
1783265558224390854,2026-07-05T22:32:38.224+07:00,540127132946115447,-325848,-293744,-353256,-472883
1783265558242572672,2026-07-05T22:32:38.242+07:00,540127132946115447,-325874,-293773,-353326,-472987
1783265558260754490,2026-07-05T22:32:38.260+07:00,540127132946115447,-325866,-293765,-353357,-472950
1783265558278936309,2026-07-05T22:32:38.278+07:00,540127132946115447,-325848,-293714,-353322,-472929
1783265558297118127,2026-07-05T22:32:38.297+07:00,540127132946115447,-325898,-293830,-353316,-472968
1783265558315299945,2026-07-05T22:32:38.315+07:00,540127132946115447,-325913,-293861,-353431,-472955
1783265558333481763,2026-07-05T22:32:38.333+07:00,540127132946115447,-325903,-293752,-353316,-472926
1783265558351663581,2026-07-05T22:32:38.351+07:00,540127132946115447,-325924,-293827,-353360,-472947
1783265558369845400,2026-07-05T22:32:38.369+07:00,540127132946115447,-325951,-293779,-353351,-472885
1783265558388027218,2026-07-05T22:32:38.388+07:00,540127132946115447,-325924,-293734,-353295,-472843
1783265558406209036,2026-07-05T22:32:38.406+07:00,540127132946115447,-325794,-293747,-353238,-472875
1783265558424390854,2026-07-05T22:32:38.424+07:00,540127132946115447,-325743,-293632,-353141,-472911
1783265558442572672,2026-07-05T22:32:38.442+07:00,540127132946115447,-325619,-293485,-353140,-472880
1783265558460754490,2026-07-05T22:32:38.460+07:00,540127132946115447,-325555,-293386,-353016,-472930
1783265558478936309,2026-07-05T22:32:38.478+07:00,540127132946115447,-325529,-293302,-352957,-472916
1783265558497118127,2026-07-05T22:32:38.497+07:00,540127132946115447,-325392,-293148,-352824,-472916
1783265558515299945,2026-07-05T22:32:38.515+07:00,540127132946115447,-325337,-292979,-352719,-472908
1783265558533481763,2026-07-05T22:32:38.533+07:00,540127132946115447,-325240,-292836,-352681,-472921
1783265558551663581,2026-07-05T22:32:38.551+07:00,540127132946115447,-325091,-292712,-352570,-472880
1783265558569845400,2026-07-05T22:32:38.569+07:00,540127132946115447,-324954,-292543,-352399,-472892
1783265558588027218,2026-07-05T22:32:38.588+07:00,540127132946115447,-324832,-292334,-352338,-472903
1783265558606209036,2026-07-05T22:32:38.606+07:00,540127132946115447,-324674,-292143,-352144,-472898
1783265558624390854,2026-07-05T22:32:38.624+07:00,540127132946115447,-324520,-291993,-352031,-472888
1783265558642572672,2026-07-05T22:32:38.642+07:00,540127132946115447,-324380,-291844,-351938,-472900
1783265558660754490,2026-07-05T22:32:38.660+07:00,540127132946115447,-324204,-291532,-351785,-472858
1783265558678936309,2026-07-05T22:32:38.678+07:00,540127132946115447,-324105,-291397,-351748,-472914
1783265558697118127,2026-07-05T22:32:38.697+07:00,540127132946115447,-323929,-291265,-351542,-472946
1783265558715299945,2026-07-05T22:32:38.715+07:00,540127132946115447,-323751,-290991,-351395,-472924
1783265558562710000,2026-07-05T22:32:38.562+07:00,540127133728523722,-323584,-290801,-351208,-472896
1783265558580891818,2026-07-05T22:32:38.580+07:00,540127133728523722,-323408,-290629,-351125,-472904
1783265558599073636,2026-07-05T22:32:38.599+07:00,540127133728523722,-323335,-290397,-351019,-472890
1783265558617255454,2026-07-05T22:32:38.617+07:00,540127133728523722,-323476,-290589,-351155,-472936
1783265558635437272,2026-07-05T22:32:38.635+07:00,540127133728523722,-323680,-290803,-351225,-472883
1783265558653619090,2026-07-05T22:32:38.653+07:00,540127133728523722,-323995,-291120,-351531,-472897
1783265558671800909,2026-07-05T22:32:38.671+07:00,540127133728523722,-324346,-291468,-351792,-472913
1783265558689982727,2026-07-05T22:32:38.689+07:00,540127133728523722,-324723,-291895,-352077,-472915
1783265558708164545,2026-07-05T22:32:38.708+07:00,540127133728523722,-325068,-292284,-352402,-472930
1783265558726346363,2026-07-05T22:32:38.726+07:00,540127133728523722,-325285,-292556,-352637,-472890
1783265558744528181,2026-07-05T22:32:38.744+07:00,540127133728523722,-325659,-292927,-352924,-472913
1783265558762710000,2026-07-05T22:32:38.762+07:00,540127133728523722,-325911,-293123,-353071,-472864
1783265558780891818,2026-07-05T22:32:38.780+07:00,540127133728523722,-326061,-293326,-353245,-472907
1783265558799073636,2026-07-05T22:32:38.799+07:00,540127133728523722,-326291,-293571,-353388,-472965
1783265558817255454,2026-07-05T22:32:38.817+07:00,540127133728523722,-326410,-293643,-353461,-472886
1783265558835437272,2026-07-05T22:32:38.835+07:00,540127133728523722,-326466,-293719,-353520,-472904
1783265558853619090,2026-07-05T22:32:38.853+07:00,540127133728523722,-326435,-293774,-353562,-472909
1783265558871800909,2026-07-05T22:32:38.871+07:00,540127133728523722,-326502,-293710,-353620,-472942
1783265558889982727,2026-07-05T22:32:38.889+07:00,540127133728523722,-326464,-293710,-353592,-472913
1783265558908164545,2026-07-05T22:32:38.908+07:00,540127133728523722,-326457,-293717,-353572,-472878
1783265558926346363,2026-07-05T22:32:38.926+07:00,540127133728523722,-326513,-293758,-353626,-472925
1783265558944528181,2026-07-05T22:32:38.944+07:00,540127133728523722,-326457,-293814,-353643,-472898
1783265558962710000,2026-07-05T22:32:38.962+07:00,540127133728523722,-326398,-293724,-353563,-472934
1783265558980891818,2026-07-05T22:32:38.980+07:00,540127133728523722,-326448,-293684,-353644,-472971
1783265558999073636,2026-07-05T22:32:38.999+07:00,540127133728523722,-326345,-293638,-353553,-472956
1783265559017255454,2026-07-05T22:32:39.017+07:00,540127133728523722,-326272,-293527,-353453,-472920
1783265559035437272,2026-07-05T22:32:39.035+07:00,540127133728523722,-326231,-293439,-353367,-472895
1783265559053619090,2026-07-05T22:32:39.053+07:00,540127133728523722,-326146,-293329,-353285,-472888
1783265559071800909,2026-07-05T22:32:39.071+07:00,540127133728523722,-326089,-293290,-353265,-472895
1783265559089982727,2026-07-05T22:32:39.089+07:00,540127133728523722,-325950,-293136,-353228,-472947
1783265559108164545,2026-07-05T22:32:39.108+07:00,540127133728523722,-325811,-293003,-353105,-472882
1783265559126346363,2026-07-05T22:32:39.126+07:00,540127133728523722,-325704,-292864,-352927,-472896
1783265559144528181,2026-07-05T22:32:39.144+07:00,540127133728523722,-325563,-292651,-352855,-472916
1783265559162710000,2026-07-05T22:32:39.162+07:00,540127133728523722,-325447,-292520,-352801,-472920
1783265559180891818,2026-07-05T22:32:39.180+07:00,540127133728523722,-325257,-292319,-352579,-472892
1783265559199073636,2026-07-05T22:32:39.199+07:00,540127133728523722,-325113,-292167,-352432,-472884
1783265559217255454,2026-07-05T22:32:39.217+07:00,540127133728523722,-324988,-291979,-352398,-472919
1783265559235437272,2026-07-05T22:32:39.235+07:00,540127133728523722,-324846,-291802,-352269,-472911
1783265559253619090,2026-07-05T22:32:39.253+07:00,540127133728523722,-324695,-291645,-352108,-472921
1783265559271800909,2026-07-05T22:32:39.271+07:00,540127133728523722,-324486,-291440,-351981,-472888
1783265559289982727,2026-07-05T22:32:39.289+07:00,540127133728523722,-324347,-291208,-351878,-472949
1783265559308164545,2026-07-05T22:32:39.308+07:00,540127133728523722,-324219,-291011,-351746,-472945
1783265559326346363,2026-07-05T22:32:39.326+07:00,540127133728523722,-324069,-290878,-351587,-472924
1783265559347637400,2026-07-05T22:32:39.347+07:00,540127134492718856,-323907,-290674,-351468,-472901
1783265559365819218,2026-07-05T22:32:39.365+07:00,540127134492718856,-323715,-290493,-351314,-472922
1783265559384001036,2026-07-05T22:32:39.384+07:00,540127134492718856,-323511,-290281,-351195,-472975
1783265559402182854,2026-07-05T22:32:39.402+07:00,540127134492718856,-323318,-290027,-351022,-472955
1783265559420364672,2026-07-05T22:32:39.420+07:00,540127134492718856,-323204,-289863,-350893,-472951
1783265559438546490,2026-07-05T22:32:39.438+07:00,540127134492718856,-323261,-289832,-350959,-472946
1783265559456728309,2026-07-05T22:32:39.456+07:00,540127134492718856,-323414,-290045,-351000,-472943
1783265559474910127,2026-07-05T22:32:39.474+07:00,540127134492718856,-323712,-290318,-351252,-472949
1783265559493091945,2026-07-05T22:32:39.493+07:00,540127134492718856,-324116,-290732,-351564,-472982
1783265559511273763,2026-07-05T22:32:39.511+07:00,540127134492718856,-324444,-291118,-351861,-472933
1783265559529455581,2026-07-05T22:32:39.529+07:00,540127134492718856,-324729,-291426,-352077,-472873
1783265559547637400,2026-07-05T22:32:39.547+07:00,540127134492718856,-325152,-291749,-352422,-472955
1783265559565819218,2026-07-05T22:32:39.565+07:00,540127134492718856,-325397,-292071,-352673,-472932
1783265559584001036,2026-07-05T22:32:39.584+07:00,540127134492718856,-325635,-292337,-352870,-472911
1783265559602182854,2026-07-05T22:32:39.602+07:00,540127134492718856,-325877,-292600,-353102,-472941
1783265559620364672,2026-07-05T22:32:39.620+07:00,540127134492718856,-326118,-292849,-353316,-472929
1783265559638546490,2026-07-05T22:32:39.638+07:00,540127134492718856,-326167,-292887,-353397,-472898
1783265559656728309,2026-07-05T22:32:39.656+07:00,540127134492718856,-326244,-292949,-353435,-472937
1783265559674910127,2026-07-05T22:32:39.674+07:00,540127134492718856,-326253,-293007,-353447,-472972
1783265559693091945,2026-07-05T22:32:39.693+07:00,540127134492718856,-326221,-292984,-353447,-472919
1783265559711273763,2026-07-05T22:32:39.711+07:00,540127134492718856,-326263,-293004,-353456,-472901
1783265559729455581,2026-07-05T22:32:39.729+07:00,540127134492718856,-326235,-293046,-353516,-472948
1783265559747637400,2026-07-05T22:32:39.747+07:00,540127134492718856,-326283,-293000,-353482,-472929
1783265559765819218,2026-07-05T22:32:39.765+07:00,540127134492718856,-326250,-293024,-353549,-472945
1783265559784001036,2026-07-05T22:32:39.784+07:00,540127134492718856,-326194,-293034,-353540,-472929
1783265559802182854,2026-07-05T22:32:39.802+07:00,540127134492718856,-326175,-292933,-353460,-472925
1783265559820364672,2026-07-05T22:32:39.820+07:00,540127134492718856,-326190,-292944,-353439,-472919
1783265559838546490,2026-07-05T22:32:39.838+07:00,540127134492718856,-326076,-292895,-353371,-472919
1783265559856728309,2026-07-05T22:32:39.856+07:00,540127134492718856,-325986,-292764,-353276,-472951
1783265559874910127,2026-07-05T22:32:39.874+07:00,540127134492718856,-325943,-292699,-353235,-472958
1783265559893091945,2026-07-05T22:32:39.893+07:00,540127134492718856,-325798,-292542,-353129,-472946
1783265559911273763,2026-07-05T22:32:39.911+07:00,540127134492718856,-325640,-292411,-352996,-472943
1783265559929455581,2026-07-05T22:32:39.929+07:00,540127134492718856,-325506,-292258,-352934,-472927
1783265559947637400,2026-07-05T22:32:39.947+07:00,540127134492718856,-325370,-292160,-352864,-472890
1783265559965819218,2026-07-05T22:32:39.965+07:00,540127134492718856,-325238,-291937,-352771,-472922
1783265559984001036,2026-07-05T22:32:39.984+07:00,540127134492718856,-325100,-291779,-352591,-472884
1783265560002182854,2026-07-05T22:32:40.002+07:00,540127134492718856,-324968,-291574,-352457,-472892
1783265560020364672,2026-07-05T22:32:40.020+07:00,540127134492718856,-324832,-291419,-352350,-472909
1783265560038546490,2026-07-05T22:32:40.038+07:00,540127134492718856,-324745,-291277,-352252,-472927
1783265560056728309,2026-07-05T22:32:40.056+07:00,540127134492718856,-324499,-291070,-352105,-472917
1783265560074910127,2026-07-05T22:32:40.074+07:00,540127134492718856,-324323,-290896,-351913,-472918
1783265560093091945,2026-07-05T22:32:40.093+07:00,540127134492718856,-324192,-290684,-351735,-472943
1783265559970549900,2026-07-05T22:32:39.970+07:00,540127135165945937,-324013,-290468,-351646,-472945
1783265559988731718,2026-07-05T22:32:39.988+07:00,540127135165945937,-323808,-290265,-351507,-472942
1783265560006913536,2026-07-05T22:32:40.006+07:00,540127135165945937,-323670,-290109,-351414,-472979
1783265560025095354,2026-07-05T22:32:40.025+07:00,540127135165945937,-323480,-289950,-351308,-472888
1783265560043277172,2026-07-05T22:32:40.043+07:00,540127135165945937,-323308,-289724,-351130,-472891
1783265560061458990,2026-07-05T22:32:40.061+07:00,540127135165945937,-323178,-289544,-350948,-472921
1783265560079640809,2026-07-05T22:32:40.079+07:00,540127135165945937,-323009,-289322,-350826,-472897
1783265560097822627,2026-07-05T22:32:40.097+07:00,540127135165945937,-322826,-289092,-350689,-472958
1783265560116004445,2026-07-05T22:32:40.116+07:00,540127135165945937,-322615,-288829,-350475,-472928
1783265560134186263,2026-07-05T22:32:40.134+07:00,540127135165945937,-322410,-288574,-350303,-472988
1783265560152368081,2026-07-05T22:32:40.152+07:00,540127135165945937,-322187,-288410,-350160,-472946
1783265560170549900,2026-07-05T22:32:40.170+07:00,540127135165945937,-322222,-288295,-350133,-472960
1783265560188731718,2026-07-05T22:32:40.188+07:00,540127135165945937,-322267,-288387,-350181,-472960
1783265560206913536,2026-07-05T22:32:40.206+07:00,540127135165945937,-322544,-288638,-350351,-472909
1783265560225095354,2026-07-05T22:32:40.225+07:00,540127135165945937,-322838,-288980,-350665,-472821
1783265560243277172,2026-07-05T22:32:40.243+07:00,540127135165945937,-323245,-289334,-350923,-472879
1783265560261458990,2026-07-05T22:32:40.261+07:00,540127135165945937,-323671,-289856,-351311,-472949
1783265560279640809,2026-07-05T22:32:40.279+07:00,540127135165945937,-323910,-290221,-351554,-472924
1783265560297822627,2026-07-05T22:32:40.297+07:00,540127135165945937,-324209,-290467,-351822,-472917
1783265560316004445,2026-07-05T22:32:40.316+07:00,540127135165945937,-324472,-290713,-352056,-472944
1783265560334186263,2026-07-05T22:32:40.334+07:00,540127135165945937,-324722,-290941,-352184,-472939
1783265560352368081,2026-07-05T22:32:40.352+07:00,540127135165945937,-324900,-291231,-352387,-472924
1783265560370549900,2026-07-05T22:32:40.370+07:00,540127135165945937,-324970,-291341,-352468,-472898
1783265560388731718,2026-07-05T22:32:40.388+07:00,540127135165945937,-325128,-291475,-352600,-472970
1783265560406913536,2026-07-05T22:32:40.406+07:00,540127135165945937,-325021,-291449,-352618,-472924
1783265560425095354,2026-07-05T22:32:40.425+07:00,540127135165945937,-325097,-291513,-352613,-472932
1783265560443277172,2026-07-05T22:32:40.443+07:00,540127135165945937,-325098,-291454,-352572,-472958
1783265560461458990,2026-07-05T22:32:40.461+07:00,540127135165945937,-325107,-291457,-352611,-472984
1783265560479640809,2026-07-05T22:32:40.479+07:00,540127135165945937,-325112,-291530,-352618,-472936
1783265560497822627,2026-07-05T22:32:40.497+07:00,540127135165945937,-325097,-291501,-352663,-472925
1783265560516004445,2026-07-05T22:32:40.516+07:00,540127135165945937,-325103,-291504,-352629,-472956
1783265560534186263,2026-07-05T22:32:40.534+07:00,540127135165945937,-325046,-291486,-352640,-472955
1783265560552368081,2026-07-05T22:32:40.552+07:00,540127135165945937,-325038,-291475,-352605,-472927
1783265560570549900,2026-07-05T22:32:40.570+07:00,540127135165945937,-325036,-291468,-352577,-472891
1783265560588731718,2026-07-05T22:32:40.588+07:00,540127135165945937,-324898,-291359,-352491,-472936
1783265560606913536,2026-07-05T22:32:40.606+07:00,540127135165945937,-324851,-291279,-352467,-472922
1783265560625095354,2026-07-05T22:32:40.625+07:00,540127135165945937,-324798,-291222,-352395,-472909
1783265560832713600,2026-07-05T22:32:40.832+07:00,540127135948323694,-324613,-291108,-352323,-472912
1783265560850895418,2026-07-05T22:32:40.850+07:00,540127135948323694,-324534,-290933,-352207,-472880
1783265560869077236,2026-07-05T22:32:40.869+07:00,540127135948323694,-324468,-290879,-352101,-472866
1783265560887259054,2026-07-05T22:32:40.887+07:00,540127135948323694,-324334,-290700,-351987,-472933
1783265560905440872,2026-07-05T22:32:40.905+07:00,540127135948323694,-324124,-290467,-351880,-472916
1783265560923622690,2026-07-05T22:32:40.923+07:00,540127135948323694,-324042,-290360,-351746,-472945
1783265560941804509,2026-07-05T22:32:40.941+07:00,540127135948323694,-323924,-290216,-351662,-472961
1783265560959986327,2026-07-05T22:32:40.959+07:00,540127135948323694,-323743,-290042,-351518,-472924
1783265560978168145,2026-07-05T22:32:40.978+07:00,540127135948323694,-323551,-289855,-351388,-472922
1783265560996349963,2026-07-05T22:32:40.996+07:00,540127135948323694,-323413,-289693,-351257,-472905
1783265561014531781,2026-07-05T22:32:41.014+07:00,540127135948323694,-323227,-289553,-351146,-472939
1783265561032713600,2026-07-05T22:32:41.032+07:00,540127135948323694,-323071,-289287,-350986,-472973
1783265561050895418,2026-07-05T22:32:41.050+07:00,540127135948323694,-322863,-289140,-350834,-472879
1783265561069077236,2026-07-05T22:32:41.069+07:00,540127135948323694,-322777,-288936,-350681,-472859
1783265561087259054,2026-07-05T22:32:41.087+07:00,540127135948323694,-322621,-288797,-350613,-472919
1783265561105440872,2026-07-05T22:32:41.105+07:00,540127135948323694,-322408,-288565,-350404,-472913
1783265561123622690,2026-07-05T22:32:41.123+07:00,540127135948323694,-322323,-288383,-350341,-472946
1783265561141804509,2026-07-05T22:32:41.141+07:00,540127135948323694,-322036,-288190,-350146,-472952
1783265561159986327,2026-07-05T22:32:41.159+07:00,540127135948323694,-321904,-288019,-350065,-472904
1783265561178168145,2026-07-05T22:32:41.178+07:00,540127135948323694,-321769,-287771,-349843,-472894
1783265561196349963,2026-07-05T22:32:41.196+07:00,540127135948323694,-321616,-287647,-349724,-472931
1783265561214531781,2026-07-05T22:32:41.214+07:00,540127135948323694,-321445,-287449,-349649,-472905
1783265561232713600,2026-07-05T22:32:41.232+07:00,540127135948323694,-321402,-287407,-349587,-472982
1783265561250895418,2026-07-05T22:32:41.250+07:00,540127135948323694,-321557,-287545,-349695,-472912
1783265561269077236,2026-07-05T22:32:41.269+07:00,540127135948323694,-321888,-287835,-349920,-472946
1783265561287259054,2026-07-05T22:32:41.287+07:00,540127135948323694,-322226,-288237,-350180,-472916
1783265561305440872,2026-07-05T22:32:41.305+07:00,540127135948323694,-322634,-288534,-350441,-472921
1783265561323622690,2026-07-05T22:32:41.323+07:00,540127135948323694,-322842,-288916,-350718,-472876
1783265561341804509,2026-07-05T22:32:41.341+07:00,540127135948323694,-323243,-289307,-351030,-472893
1783265561359986327,2026-07-05T22:32:41.359+07:00,540127135948323694,-323505,-289619,-351286,-472964
1783265561378168145,2026-07-05T22:32:41.378+07:00,540127135948323694,-323733,-289925,-351541,-472962
1783265561396349963,2026-07-05T22:32:41.396+07:00,540127135948323694,-323986,-290192,-351714,-472982
1783265561414531781,2026-07-05T22:32:41.414+07:00,540127135948323694,-324169,-290417,-351902,-472967
1783265561432713600,2026-07-05T22:32:41.432+07:00,540127135948323694,-324302,-290541,-351981,-472926
1783265561450895418,2026-07-05T22:32:41.450+07:00,540127135948323694,-324381,-290676,-352088,-472962
1783265561469077236,2026-07-05T22:32:41.469+07:00,540127135948323694,-324408,-290701,-352116,-472913
1783265561487259054,2026-07-05T22:32:41.487+07:00,540127135948323694,-324390,-290727,-352134,-472913
1783265561505440872,2026-07-05T22:32:41.505+07:00,540127135948323694,-324430,-290715,-352156,-472950
1783265561523622690,2026-07-05T22:32:41.523+07:00,540127135948323694,-324408,-290745,-352190,-472911
1783265561541804509,2026-07-05T22:32:41.541+07:00,540127135948323694,-324457,-290826,-352190,-472918
1783265561559986327,2026-07-05T22:32:41.559+07:00,540127135948323694,-324332,-290745,-352152,-472830
1783265561578168145,2026-07-05T22:32:41.578+07:00,540127135948323694,-324335,-290804,-352194,-472890
1783265561596349963,2026-07-05T22:32:41.596+07:00,540127135948323694,-324378,-290791,-352174,-472927
1783265561456159500,2026-07-05T22:32:41.456+07:00,540127136712506620,-324358,-290812,-352145,-472936
1783265561474341318,2026-07-05T22:32:41.474+07:00,540127136712506620,-324277,-290749,-352148,-472920
1783265561492523136,2026-07-05T22:32:41.492+07:00,540127136712506620,-324180,-290699,-352049,-472873
1783265561510704954,2026-07-05T22:32:41.510+07:00,540127136712506620,-324152,-290591,-351978,-472917
1783265561528886772,2026-07-05T22:32:41.528+07:00,540127136712506620,-324012,-290495,-351934,-472950
1783265561547068590,2026-07-05T22:32:41.547+07:00,540127136712506620,-323935,-290416,-351829,-472928
1783265561565250409,2026-07-05T22:32:41.565+07:00,540127136712506620,-323839,-290326,-351712,-472960
1783265561583432227,2026-07-05T22:32:41.583+07:00,540127136712506620,-323718,-290145,-351593,-472943
1783265561601614045,2026-07-05T22:32:41.601+07:00,540127136712506620,-323673,-290012,-351494,-472929
1783265561619795863,2026-07-05T22:32:41.619+07:00,540127136712506620,-323490,-289869,-351358,-472950
1783265561637977681,2026-07-05T22:32:41.637+07:00,540127136712506620,-323377,-289763,-351262,-472978
1783265561656159500,2026-07-05T22:32:41.656+07:00,540127136712506620,-323214,-289622,-351173,-472965
1783265561674341318,2026-07-05T22:32:41.674+07:00,540127136712506620,-323072,-289453,-351025,-472955
1783265561692523136,2026-07-05T22:32:41.692+07:00,540127136712506620,-322945,-289294,-350950,-472946
1783265561710704954,2026-07-05T22:32:41.710+07:00,540127136712506620,-322731,-289079,-350760,-472922
1783265561728886772,2026-07-05T22:32:41.728+07:00,540127136712506620,-322567,-288912,-350618,-472916
1783265561747068590,2026-07-05T22:32:41.747+07:00,540127136712506620,-322384,-288718,-350477,-472870
1783265561765250409,2026-07-05T22:32:41.765+07:00,540127136712506620,-322283,-288453,-350401,-472944
1783265561783432227,2026-07-05T22:32:41.783+07:00,540127136712506620,-322077,-288357,-350225,-472944
1783265561801614045,2026-07-05T22:32:41.801+07:00,540127136712506620,-321977,-288196,-350132,-472934
1783265561819795863,2026-07-05T22:32:41.819+07:00,540127136712506620,-321799,-287984,-350001,-472960
1783265561837977681,2026-07-05T22:32:41.837+07:00,540127136712506620,-321679,-287869,-349861,-472972
1783265561856159500,2026-07-05T22:32:41.856+07:00,540127136712506620,-321451,-287665,-349713,-472968
1783265561874341318,2026-07-05T22:32:41.874+07:00,540127136712506620,-321243,-287465,-349587,-472960
1783265561892523136,2026-07-05T22:32:41.892+07:00,540127136712506620,-321042,-287226,-349383,-472930
1783265561910704954,2026-07-05T22:32:41.910+07:00,540127136712506620,-320869,-286992,-349225,-472964
1783265561928886772,2026-07-05T22:32:41.928+07:00,540127136712506620,-320766,-286825,-349047,-472967
1783265561947068590,2026-07-05T22:32:41.947+07:00,540127136712506620,-320618,-286659,-348957,-472954
1783265561965250409,2026-07-05T22:32:41.965+07:00,540127136712506620,-320523,-286520,-348889,-472933
1783265561983432227,2026-07-05T22:32:41.983+07:00,540127136712506620,-320658,-286667,-348982,-472929
1783265562001614045,2026-07-05T22:32:42.001+07:00,540127136712506620,-320817,-286853,-349170,-472879
1783265562019795863,2026-07-05T22:32:42.019+07:00,540127136712506620,-321242,-287255,-349465,-472924
1783265562037977681,2026-07-05T22:32:42.037+07:00,540127136712506620,-321629,-287698,-349777,-472939
1783265562056159500,2026-07-05T22:32:42.056+07:00,540127136712506620,-321970,-288088,-350103,-472914
1783265562074341318,2026-07-05T22:32:42.074+07:00,540127136712506620,-322351,-288524,-350401,-473012
1783265562092523136,2026-07-05T22:32:42.092+07:00,540127136712506620,-322673,-288846,-350615,-472995
1783265562110704954,2026-07-05T22:32:42.110+07:00,540127136712506620,-322923,-289146,-350857,-472984
1783265562128886772,2026-07-05T22:32:42.128+07:00,540127136712506620,-323155,-289406,-351014,-472968
1783265562147068590,2026-07-05T22:32:42.147+07:00,540127136712506620,-323355,-289560,-351207,-472934
1783265562165250409,2026-07-05T22:32:42.165+07:00,540127136712506620,-323549,-289815,-351373,-472949
1783265562183432227,2026-07-05T22:32:42.183+07:00,540127136712506620,-323618,-289913,-351486,-472926
1783265562201614045,2026-07-05T22:32:42.201+07:00,540127136712506620,-323644,-289975,-351464,-472934
1783265562219679000,2026-07-05T22:32:42.219+07:00,540127137494914895,-323633,-290002,-351525,-472894
1783265562237860818,2026-07-05T22:32:42.237+07:00,540127137494914895,-323658,-290017,-351550,-472867
1783265562256042636,2026-07-05T22:32:42.256+07:00,540127137494914895,-323726,-290075,-351569,-472947
1783265562274224454,2026-07-05T22:32:42.274+07:00,540127137494914895,-323710,-290072,-351607,-472922
1783265562292406272,2026-07-05T22:32:42.292+07:00,540127137494914895,-323695,-290065,-351598,-472929
1783265562310588090,2026-07-05T22:32:42.310+07:00,540127137494914895,-323733,-290100,-351535,-472929
1783265562328769909,2026-07-05T22:32:42.328+07:00,540127137494914895,-323727,-290114,-351599,-472904
1783265562346951727,2026-07-05T22:32:42.346+07:00,540127137494914895,-323655,-290117,-351546,-472910
1783265562365133545,2026-07-05T22:32:42.365+07:00,540127137494914895,-323717,-290086,-351578,-472937
1783265562383315363,2026-07-05T22:32:42.383+07:00,540127137494914895,-323628,-290043,-351553,-472960
1783265562401497181,2026-07-05T22:32:42.401+07:00,540127137494914895,-323522,-289936,-351451,-472905
1783265562419679000,2026-07-05T22:32:42.419+07:00,540127137494914895,-323451,-289891,-351434,-472979
1783265562437860818,2026-07-05T22:32:42.437+07:00,540127137494914895,-323364,-289786,-351337,-472973
1783265562456042636,2026-07-05T22:32:42.456+07:00,540127137494914895,-323232,-289635,-351270,-472952
1783265562474224454,2026-07-05T22:32:42.474+07:00,540127137494914895,-323124,-289564,-351144,-472956
1783265562492406272,2026-07-05T22:32:42.492+07:00,540127137494914895,-323018,-289435,-351048,-472986
1783265562510588090,2026-07-05T22:32:42.510+07:00,540127137494914895,-322910,-289309,-350952,-472932
1783265562528769909,2026-07-05T22:32:42.528+07:00,540127137494914895,-322769,-289175,-350846,-472949
1783265562546951727,2026-07-05T22:32:42.546+07:00,540127137494914895,-322650,-288985,-350683,-473011
1783265562565133545,2026-07-05T22:32:42.565+07:00,540127137494914895,-322487,-288805,-350591,-472944
1783265562583315363,2026-07-05T22:32:42.583+07:00,540127137494914895,-322305,-288681,-350467,-472928
1783265562601497181,2026-07-05T22:32:42.601+07:00,540127137494914895,-322188,-288476,-350277,-472951
1783265562619679000,2026-07-05T22:32:42.619+07:00,540127137494914895,-322044,-288320,-350176,-472950
1783265562637860818,2026-07-05T22:32:42.637+07:00,540127137494914895,-321884,-288172,-350055,-472932
1783265562656042636,2026-07-05T22:32:42.656+07:00,540127137494914895,-321729,-288001,-349964,-472947
1783265562674224454,2026-07-05T22:32:42.674+07:00,540127137494914895,-321501,-287772,-349755,-472934
1783265562692406272,2026-07-05T22:32:42.692+07:00,540127137494914895,-321354,-287546,-349658,-472929
1783265562710588090,2026-07-05T22:32:42.710+07:00,540127137494914895,-321212,-287425,-349472,-472968
1783265562728769909,2026-07-05T22:32:42.728+07:00,540127137494914895,-321098,-287285,-349402,-472942
1783265562746951727,2026-07-05T22:32:42.746+07:00,540127137494914895,-320872,-287011,-349183,-472888
1783265562765133545,2026-07-05T22:32:42.765+07:00,540127137494914895,-320678,-286826,-349073,-472898
1783265562783315363,2026-07-05T22:32:42.783+07:00,540127137494914895,-320517,-286621,-348928,-472919
1783265562801497181,2026-07-05T22:32:42.801+07:00,540127137494914895,-320352,-286433,-348786,-472952
1783265562819679000,2026-07-05T22:32:42.819+07:00,540127137494914895,-320188,-286163,-348630,-472920
1783265562837860818,2026-07-05T22:32:42.837+07:00,540127137494914895,-319996,-286005,-348534,-472880
1783265562856042636,2026-07-05T22:32:42.856+07:00,540127137494914895,-319882,-285846,-348351,-472915
1783265562874224454,2026-07-05T22:32:42.874+07:00,540127137494914895,-319738,-285721,-348235,-472895
1783265562892406272,2026-07-05T22:32:42.892+07:00,540127137494914895,-319856,-285841,-348289,-472887
1783265562910588090,2026-07-05T22:32:42.910+07:00,540127137494914895,-320178,-286202,-348545,-472938
1783265562928769909,2026-07-05T22:32:42.928+07:00,540127137494914895,-320539,-286547,-348792,-472905
1783265562946951727,2026-07-05T22:32:42.946+07:00,540127137494914895,-320979,-286943,-349161,-472915
1783265562965133545,2026-07-05T22:32:42.965+07:00,540127137494914895,-321369,-287330,-349479,-472942
1783265562983315363,2026-07-05T22:32:42.983+07:00,540127137494914895,-321671,-287748,-349751,-472937
1783265562967974800,2026-07-05T22:32:42.967+07:00,540127138277292652,-321972,-288080,-350007,-473015
1783265562986156618,2026-07-05T22:32:42.986+07:00,540127138277292652,-322236,-288379,-350203,-472985
1783265563004338436,2026-07-05T22:32:43.004+07:00,540127138277292652,-322431,-288641,-350423,-472956
1783265563022520254,2026-07-05T22:32:43.022+07:00,540127138277292652,-322658,-288892,-350574,-472953
1783265563040702072,2026-07-05T22:32:43.040+07:00,540127138277292652,-322784,-289025,-350701,-472938
1783265563058883890,2026-07-05T22:32:43.058+07:00,540127138277292652,-322821,-289125,-350798,-472942
1783265563077065709,2026-07-05T22:32:43.077+07:00,540127138277292652,-322907,-289081,-350882,-472893
1783265563095247527,2026-07-05T22:32:43.095+07:00,540127138277292652,-322902,-289185,-350906,-472915
1783265563113429345,2026-07-05T22:32:43.113+07:00,540127138277292652,-322977,-289200,-350949,-472934
1783265563131611163,2026-07-05T22:32:43.131+07:00,540127138277292652,-323000,-289288,-350951,-472954
1783265563149792981,2026-07-05T22:32:43.149+07:00,540127138277292652,-323031,-289306,-350980,-472961
1783265563167974800,2026-07-05T22:32:43.167+07:00,540127138277292652,-323007,-289323,-350963,-472947
1783265563186156618,2026-07-05T22:32:43.186+07:00,540127138277292652,-323021,-289395,-350991,-472962
1783265563204338436,2026-07-05T22:32:43.204+07:00,540127138277292652,-323005,-289417,-350956,-472927
1783265563222520254,2026-07-05T22:32:43.222+07:00,540127138277292652,-322974,-289392,-350963,-472948
1783265563240702072,2026-07-05T22:32:43.240+07:00,540127138277292652,-323034,-289437,-350991,-472919
1783265563258883890,2026-07-05T22:32:43.258+07:00,540127138277292652,-322972,-289414,-350902,-472963
1783265563277065709,2026-07-05T22:32:43.277+07:00,540127138277292652,-322916,-289297,-350881,-472946
1783265563295247527,2026-07-05T22:32:43.295+07:00,540127138277292652,-322876,-289280,-350876,-472922
1783265563313429345,2026-07-05T22:32:43.313+07:00,540127138277292652,-322762,-289154,-350812,-472969
1783265563331611163,2026-07-05T22:32:43.331+07:00,540127138277292652,-322631,-289071,-350732,-472955
1783265563349792981,2026-07-05T22:32:43.349+07:00,540127138277292652,-322611,-288935,-350644,-472895
1783265563367974800,2026-07-05T22:32:43.367+07:00,540127138277292652,-322485,-288823,-350501,-472950
1783265563386156618,2026-07-05T22:32:43.386+07:00,540127138277292652,-322334,-288736,-350407,-472867
1783265563404338436,2026-07-05T22:32:43.404+07:00,540127138277292652,-322214,-288570,-350328,-472909
1783265563422520254,2026-07-05T22:32:43.422+07:00,540127138277292652,-322058,-288469,-350244,-472987
1783265563440702072,2026-07-05T22:32:43.440+07:00,540127138277292652,-321955,-288343,-350076,-472951
1783265563458883890,2026-07-05T22:32:43.458+07:00,540127138277292652,-321833,-288178,-350001,-472969
1783265563477065709,2026-07-05T22:32:43.477+07:00,540127138277292652,-321730,-288092,-349937,-473030
1783265563495247527,2026-07-05T22:32:43.495+07:00,540127138277292652,-321585,-287858,-349744,-473062
1783265563513429345,2026-07-05T22:32:43.513+07:00,540127138277292652,-321404,-287657,-349627,-472993
1783265563531611163,2026-07-05T22:32:43.531+07:00,540127138277292652,-321298,-287555,-349555,-472980
1783265563549792981,2026-07-05T22:32:43.549+07:00,540127138277292652,-321110,-287415,-349456,-472975
1783265563567974800,2026-07-05T22:32:43.567+07:00,540127138277292652,-320905,-287203,-349205,-472963
1783265563586156618,2026-07-05T22:32:43.586+07:00,540127138277292652,-320797,-287015,-349042,-472979
1783265563604338436,2026-07-05T22:32:43.604+07:00,540127138277292652,-320632,-286825,-348994,-472980
1783265563622520254,2026-07-05T22:32:43.622+07:00,540127138277292652,-320487,-286658,-348884,-472945
1783265563640702072,2026-07-05T22:32:43.640+07:00,540127138277292652,-320310,-286468,-348701,-472904
1783265563658883890,2026-07-05T22:32:43.658+07:00,540127138277292652,-320178,-286275,-348558,-472937
1783265563677065709,2026-07-05T22:32:43.677+07:00,540127138277292652,-319960,-286056,-348408,-472894
1783265563695247527,2026-07-05T22:32:43.695+07:00,540127138277292652,-319841,-285873,-348274,-472909
1783265563713429345,2026-07-05T22:32:43.713+07:00,540127138277292652,-319874,-285956,-348311,-472904
1783265563731611163,2026-07-05T22:32:43.731+07:00,540127138277292652,-320066,-286077,-348445,-472828
1783265563749929300,2026-07-05T22:32:43.749+07:00,540127139041448110,-320374,-286484,-348667,-472900
1783265563768111118,2026-07-05T22:32:43.768+07:00,540127139041448110,-320810,-286947,-349058,-472929
1783265563786292936,2026-07-05T22:32:43.786+07:00,540127139041448110,-321209,-287376,-349367,-472897
1783265563804474754,2026-07-05T22:32:43.804+07:00,540127139041448110,-321594,-287827,-349725,-472890
1783265563822656572,2026-07-05T22:32:43.822+07:00,540127139041448110,-321935,-288190,-349946,-472913
1783265563840838390,2026-07-05T22:32:43.840+07:00,540127139041448110,-322267,-288525,-350258,-472921
1783265563859020209,2026-07-05T22:32:43.859+07:00,540127139041448110,-322437,-288902,-350426,-472952
1783265563877202027,2026-07-05T22:32:43.877+07:00,540127139041448110,-322678,-289084,-350556,-472910
1783265563895383845,2026-07-05T22:32:43.895+07:00,540127139041448110,-322798,-289294,-350669,-472839
1783265563913565663,2026-07-05T22:32:43.913+07:00,540127139041448110,-322917,-289390,-350804,-472900
1783265563931747481,2026-07-05T22:32:43.931+07:00,540127139041448110,-322936,-289494,-350871,-472918
1783265563949929300,2026-07-05T22:32:43.949+07:00,540127139041448110,-323017,-289519,-350893,-472901
1783265563968111118,2026-07-05T22:32:43.968+07:00,540127139041448110,-323066,-289504,-350919,-472898
1783265563986292936,2026-07-05T22:32:43.986+07:00,540127139041448110,-323053,-289633,-350931,-472901
1783265564004474754,2026-07-05T22:32:44.004+07:00,540127139041448110,-323153,-289645,-350956,-472900
1783265564022656572,2026-07-05T22:32:44.022+07:00,540127139041448110,-323093,-289756,-351083,-472886
1783265564040838390,2026-07-05T22:32:44.040+07:00,540127139041448110,-323177,-289728,-351081,-472925
1783265564059020209,2026-07-05T22:32:44.059+07:00,540127139041448110,-323212,-289858,-351085,-472902
1783265564077202027,2026-07-05T22:32:44.077+07:00,540127139041448110,-323202,-289806,-351044,-472900
1783265564095383845,2026-07-05T22:32:44.095+07:00,540127139041448110,-323225,-289883,-351083,-472992
1783265564113565663,2026-07-05T22:32:44.113+07:00,540127139041448110,-323171,-289812,-350976,-472961
1783265564131747481,2026-07-05T22:32:44.131+07:00,540127139041448110,-323121,-289738,-350986,-472921
1783265564149929300,2026-07-05T22:32:44.149+07:00,540127139041448110,-323054,-289680,-350957,-472931
1783265564168111118,2026-07-05T22:32:44.168+07:00,540127139041448110,-322924,-289560,-350859,-472920
1783265564186292936,2026-07-05T22:32:44.186+07:00,540127139041448110,-322914,-289548,-350786,-472966
1783265564204474754,2026-07-05T22:32:44.204+07:00,540127139041448110,-322812,-289430,-350718,-472935
1783265564222656572,2026-07-05T22:32:44.222+07:00,540127139041448110,-322750,-289356,-350657,-472910
1783265564240838390,2026-07-05T22:32:44.240+07:00,540127139041448110,-322580,-289239,-350527,-472946
1783265564259020209,2026-07-05T22:32:44.259+07:00,540127139041448110,-322491,-289121,-350486,-472959
1783265564277202027,2026-07-05T22:32:44.277+07:00,540127139041448110,-322354,-288980,-350342,-472968
1783265564295383845,2026-07-05T22:32:44.295+07:00,540127139041448110,-322179,-288822,-350223,-472922
1783265564313565663,2026-07-05T22:32:44.313+07:00,540127139041448110,-322075,-288637,-350113,-472929
1783265564331747481,2026-07-05T22:32:44.331+07:00,540127139041448110,-321917,-288487,-349977,-472886
1783265564349929300,2026-07-05T22:32:44.349+07:00,540127139041448110,-321772,-288338,-349939,-472895
1783265564368111118,2026-07-05T22:32:44.368+07:00,540127139041448110,-321659,-288142,-349771,-472876
1783265564386292936,2026-07-05T22:32:44.386+07:00,540127139041448110,-321478,-287972,-349636,-472896
1783265564404474754,2026-07-05T22:32:44.404+07:00,540127139041448110,-321344,-287822,-349533,-472898
1783265564422656572,2026-07-05T22:32:44.422+07:00,540127139041448110,-321162,-287697,-349412,-472886
1783265564440838390,2026-07-05T22:32:44.440+07:00,540127139041448110,-321007,-287524,-349308,-472933
1783265564459020209,2026-07-05T22:32:44.459+07:00,540127139041448110,-320870,-287304,-349131,-472877
1783265564477202027,2026-07-05T22:32:44.477+07:00,540127139041448110,-320693,-287145,-349013,-472937
1783265564495383845,2026-07-05T22:32:44.495+07:00,540127139041448110,-320518,-286975,-348865,-472899
1783265564837481000,2026-07-05T22:32:44.837+07:00,540127139823792311,-320380,-286766,-348694,-472868
1783265564855662818,2026-07-05T22:32:44.855+07:00,540127139823792311,-320235,-286579,-348619,-472905
1783265564873844636,2026-07-05T22:32:44.873+07:00,540127139823792311,-320107,-286312,-348375,-472861
1783265564892026454,2026-07-05T22:32:44.892+07:00,540127139823792311,-320073,-286239,-348345,-472898
1783265564910208272,2026-07-05T22:32:44.910+07:00,540127139823792311,-320136,-286368,-348458,-472908
1783265564928390090,2026-07-05T22:32:44.928+07:00,540127139823792311,-320390,-286702,-348677,-472905
1783265564946571909,2026-07-05T22:32:44.946+07:00,540127139823792311,-320820,-287128,-348992,-472885
1783265564964753727,2026-07-05T22:32:44.964+07:00,540127139823792311,-321260,-287634,-349347,-472913
1783265564982935545,2026-07-05T22:32:44.982+07:00,540127139823792311,-321618,-288093,-349704,-472890
1783265565001117363,2026-07-05T22:32:45.001+07:00,540127139823792311,-322045,-288557,-350091,-472894
1783265565019299181,2026-07-05T22:32:45.019+07:00,540127139823792311,-322395,-288952,-350402,-472904
1783265565037481000,2026-07-05T22:32:45.037+07:00,540127139823792311,-322766,-289352,-350650,-472985
1783265565055662818,2026-07-05T22:32:45.055+07:00,540127139823792311,-322953,-289564,-350816,-472918
1783265565073844636,2026-07-05T22:32:45.073+07:00,540127139823792311,-323195,-289806,-350992,-472942
1783265565092026454,2026-07-05T22:32:45.092+07:00,540127139823792311,-323374,-290078,-351132,-472890
1783265565110208272,2026-07-05T22:32:45.110+07:00,540127139823792311,-323513,-290246,-351305,-472951
1783265565128390090,2026-07-05T22:32:45.128+07:00,540127139823792311,-323531,-290292,-351315,-472908
1783265565146571909,2026-07-05T22:32:45.146+07:00,540127139823792311,-323631,-290370,-351355,-472937
1783265565164753727,2026-07-05T22:32:45.164+07:00,540127139823792311,-323641,-290455,-351410,-472947
1783265565182935545,2026-07-05T22:32:45.182+07:00,540127139823792311,-323635,-290481,-351451,-472949
1783265565201117363,2026-07-05T22:32:45.201+07:00,540127139823792311,-323751,-290556,-351467,-472954
1783265565219299181,2026-07-05T22:32:45.219+07:00,540127139823792311,-323758,-290651,-351500,-473001
1783265565237481000,2026-07-05T22:32:45.237+07:00,540127139823792311,-323816,-290652,-351551,-472946
1783265565255662818,2026-07-05T22:32:45.255+07:00,540127139823792311,-323820,-290702,-351531,-472932
1783265565273844636,2026-07-05T22:32:45.273+07:00,540127139823792311,-323798,-290711,-351606,-472947
1783265565292026454,2026-07-05T22:32:45.292+07:00,540127139823792311,-323781,-290723,-351545,-472918
1783265565310208272,2026-07-05T22:32:45.310+07:00,540127139823792311,-323842,-290702,-351537,-472901
1783265565328390090,2026-07-05T22:32:45.328+07:00,540127139823792311,-323734,-290652,-351486,-472873
1783265565346571909,2026-07-05T22:32:45.346+07:00,540127139823792311,-323639,-290546,-351427,-472896
1783265565364753727,2026-07-05T22:32:45.364+07:00,540127139823792311,-323584,-290437,-351383,-472904
1783265565382935545,2026-07-05T22:32:45.382+07:00,540127139823792311,-323493,-290391,-351283,-472938
1783265565401117363,2026-07-05T22:32:45.401+07:00,540127139823792311,-323425,-290361,-351253,-472971
1783265565419299181,2026-07-05T22:32:45.419+07:00,540127139823792311,-323278,-290210,-351151,-472888
1783265565437481000,2026-07-05T22:32:45.437+07:00,540127139823792311,-323171,-290092,-351084,-472967
1783265565455662818,2026-07-05T22:32:45.455+07:00,540127139823792311,-323045,-289977,-350887,-472917
1783265565473844636,2026-07-05T22:32:45.473+07:00,540127139823792311,-322908,-289753,-350823,-472935
1783265565492026454,2026-07-05T22:32:45.492+07:00,540127139823792311,-322836,-289669,-350739,-472956
1783265565510208272,2026-07-05T22:32:45.510+07:00,540127139823792311,-322753,-289472,-350629,-472911
1783265565528390090,2026-07-05T22:32:45.528+07:00,540127139823792311,-322559,-289331,-350523,-472888
1783265565546571909,2026-07-05T22:32:45.546+07:00,540127139823792311,-322453,-289200,-350426,-472946
1783265565564753727,2026-07-05T22:32:45.564+07:00,540127139823792311,-322247,-288983,-350206,-472948
1783265565582935545,2026-07-05T22:32:45.582+07:00,540127139823792311,-322047,-288814,-350054,-472937
1783265565601117363,2026-07-05T22:32:45.601+07:00,540127139823792311,-321953,-288681,-349961,-472995
1783265565563552100,2026-07-05T22:32:45.563+07:00,540127140587970659,-321767,-288472,-349831,-472901
1783265565581733918,2026-07-05T22:32:45.581+07:00,540127140587970659,-321653,-288354,-349742,-472926
1783265565599915736,2026-07-05T22:32:45.599+07:00,540127140587970659,-321522,-288145,-349614,-472915
1783265565618097554,2026-07-05T22:32:45.618+07:00,540127140587970659,-321321,-287907,-349415,-472921
1783265565636279372,2026-07-05T22:32:45.636+07:00,540127140587970659,-321130,-287760,-349313,-472907
1783265565654461190,2026-07-05T22:32:45.654+07:00,540127140587970659,-321013,-287434,-349162,-472888
1783265565672643009,2026-07-05T22:32:45.672+07:00,540127140587970659,-320810,-287235,-349023,-472935
1783265565690824827,2026-07-05T22:32:45.690+07:00,540127140587970659,-320685,-287144,-348899,-472905
1783265565709006645,2026-07-05T22:32:45.709+07:00,540127140587970659,-320587,-287115,-348838,-472893
1783265565727188463,2026-07-05T22:32:45.727+07:00,540127140587970659,-320837,-287333,-348923,-472933
1783265565745370281,2026-07-05T22:32:45.745+07:00,540127140587970659,-321201,-287688,-349222,-472955
1783265565763552100,2026-07-05T22:32:45.763+07:00,540127140587970659,-321642,-288189,-349564,-472958
1783265565781733918,2026-07-05T22:32:45.781+07:00,540127140587970659,-322041,-288693,-349942,-472935
1783265565799915736,2026-07-05T22:32:45.799+07:00,540127140587970659,-322536,-289174,-350320,-472950
1783265565818097554,2026-07-05T22:32:45.818+07:00,540127140587970659,-322907,-289612,-350614,-472937
1783265565836279372,2026-07-05T22:32:45.836+07:00,540127140587970659,-323231,-289952,-350918,-472874
1783265565854461190,2026-07-05T22:32:45.854+07:00,540127140587970659,-323479,-290285,-351185,-472868
1783265565872643009,2026-07-05T22:32:45.872+07:00,540127140587970659,-323752,-290536,-351367,-472952
1783265565890824827,2026-07-05T22:32:45.890+07:00,540127140587970659,-323957,-290780,-351515,-472925
1783265565909006645,2026-07-05T22:32:45.909+07:00,540127140587970659,-324077,-290943,-351610,-472959
1783265565927188463,2026-07-05T22:32:45.927+07:00,540127140587970659,-324181,-291041,-351712,-472938
1783265565945370281,2026-07-05T22:32:45.945+07:00,540127140587970659,-324179,-291085,-351723,-472870
1783265565963552100,2026-07-05T22:32:45.963+07:00,540127140587970659,-324218,-291182,-351801,-472913
1783265565981733918,2026-07-05T22:32:45.981+07:00,540127140587970659,-324201,-291166,-351834,-472888
1783265565999915736,2026-07-05T22:32:45.999+07:00,540127140587970659,-324300,-291250,-351844,-472928
1783265566018097554,2026-07-05T22:32:46.018+07:00,540127140587970659,-324254,-291202,-351856,-472842
1783265566036279372,2026-07-05T22:32:46.036+07:00,540127140587970659,-324301,-291267,-351879,-472887
1783265566054461190,2026-07-05T22:32:46.054+07:00,540127140587970659,-324402,-291314,-351966,-473002
1783265566072643009,2026-07-05T22:32:46.072+07:00,540127140587970659,-324374,-291368,-351952,-472931
1783265566090824827,2026-07-05T22:32:46.090+07:00,540127140587970659,-324376,-291393,-351938,-472926
1783265566109006645,2026-07-05T22:32:46.109+07:00,540127140587970659,-324390,-291350,-351913,-472919
1783265566127188463,2026-07-05T22:32:46.127+07:00,540127140587970659,-324293,-291323,-351848,-472898
1783265566145370281,2026-07-05T22:32:46.145+07:00,540127140587970659,-324256,-291276,-351857,-472936
1783265566163552100,2026-07-05T22:32:46.163+07:00,540127140587970659,-324133,-291136,-351772,-472947
1783265566181733918,2026-07-05T22:32:46.181+07:00,540127140587970659,-324056,-291046,-351692,-472937
1783265566199915736,2026-07-05T22:32:46.199+07:00,540127140587970659,-324000,-290982,-351645,-472935
1783265566218097554,2026-07-05T22:32:46.218+07:00,540127140587970659,-323923,-290847,-351545,-472950
1783265566236279372,2026-07-05T22:32:46.236+07:00,540127140587970659,-323796,-290740,-351433,-472912
1783265566254461190,2026-07-05T22:32:46.254+07:00,540127140587970659,-323699,-290669,-351332,-472979
1783265566272643009,2026-07-05T22:32:46.272+07:00,540127140587970659,-323585,-290485,-351262,-472949
1783265566290824827,2026-07-05T22:32:46.290+07:00,540127140587970659,-323431,-290247,-351049,-472913
1783265566309006645,2026-07-05T22:32:46.309+07:00,540127140587970659,-323284,-290120,-351030,-472918
1783265566178333800,2026-07-05T22:32:46.178+07:00,540127141261153490,-323212,-290016,-350951,-472938
1783265566196515618,2026-07-05T22:32:46.196+07:00,540127141261153490,-323020,-289892,-350814,-472929
1783265566214697436,2026-07-05T22:32:46.214+07:00,540127141261153490,-322856,-289715,-350708,-472950
1783265566232879254,2026-07-05T22:32:46.232+07:00,540127141261153490,-322754,-289522,-350567,-472937
1783265566251061072,2026-07-05T22:32:46.251+07:00,540127141261153490,-322621,-289393,-350456,-472914
1783265566269242890,2026-07-05T22:32:46.269+07:00,540127141261153490,-322507,-289221,-350355,-472964
1783265566287424709,2026-07-05T22:32:46.287+07:00,540127141261153490,-322294,-289059,-350213,-472902
1783265566305606527,2026-07-05T22:32:46.305+07:00,540127141261153490,-322174,-288849,-350098,-472878
1783265566323788345,2026-07-05T22:32:46.323+07:00,540127141261153490,-321992,-288658,-349901,-472857
1783265566341970163,2026-07-05T22:32:46.341+07:00,540127141261153490,-321874,-288450,-349773,-472901
1783265566360151981,2026-07-05T22:32:46.360+07:00,540127141261153490,-321717,-288278,-349643,-472884
1783265566378333800,2026-07-05T22:32:46.378+07:00,540127141261153490,-321607,-288151,-349570,-472930
1783265566396515618,2026-07-05T22:32:46.396+07:00,540127141261153490,-321557,-288045,-349455,-472942
1783265566414697436,2026-07-05T22:32:46.414+07:00,540127141261153490,-321717,-288241,-349573,-472885
1783265566432879254,2026-07-05T22:32:46.432+07:00,540127141261153490,-322149,-288608,-349924,-472960
1783265566451061072,2026-07-05T22:32:46.451+07:00,540127141261153490,-322461,-289018,-350186,-472901
1783265566469242890,2026-07-05T22:32:46.469+07:00,540127141261153490,-322963,-289513,-350571,-472953
1783265566487424709,2026-07-05T22:32:46.487+07:00,540127141261153490,-323420,-290044,-350938,-472964
1783265566505606527,2026-07-05T22:32:46.505+07:00,540127141261153490,-323704,-290436,-351205,-472890
1783265566523788345,2026-07-05T22:32:46.523+07:00,540127141261153490,-324102,-290792,-351504,-472904
1783265566541970163,2026-07-05T22:32:46.541+07:00,540127141261153490,-324247,-291127,-351770,-472901
1783265566560151981,2026-07-05T22:32:46.560+07:00,540127141261153490,-324550,-291419,-351981,-472909
1783265566578333800,2026-07-05T22:32:46.578+07:00,540127141261153490,-324716,-291630,-352121,-472911
1783265566596515618,2026-07-05T22:32:46.596+07:00,540127141261153490,-324844,-291812,-352232,-472839
1783265566614697436,2026-07-05T22:32:46.614+07:00,540127141261153490,-325012,-291928,-352343,-472978
1783265566632879254,2026-07-05T22:32:46.632+07:00,540127141261153490,-325009,-291964,-352320,-472945
1783265566651061072,2026-07-05T22:32:46.651+07:00,540127141261153490,-325074,-292041,-352382,-472942
1783265566669242890,2026-07-05T22:32:46.669+07:00,540127141261153490,-325098,-292128,-352442,-472883
1783265566687424709,2026-07-05T22:32:46.687+07:00,540127141261153490,-325167,-292245,-352545,-472883
1783265566705606527,2026-07-05T22:32:46.705+07:00,540127141261153490,-325223,-292280,-352537,-472934
1783265566723788345,2026-07-05T22:32:46.723+07:00,540127141261153490,-325307,-292370,-352647,-472961
1783265566741970163,2026-07-05T22:32:46.741+07:00,540127141261153490,-325367,-292466,-352647,-472886
1783265566760151981,2026-07-05T22:32:46.760+07:00,540127141261153490,-325409,-292451,-352652,-472893
1783265566778333800,2026-07-05T22:32:46.778+07:00,540127141261153490,-325373,-292493,-352668,-472954
1783265566796515618,2026-07-05T22:32:46.796+07:00,540127141261153490,-325350,-292420,-352694,-472942
1783265566814697436,2026-07-05T22:32:46.814+07:00,540127141261153490,-325321,-292437,-352676,-472905
1783265566832879254,2026-07-05T22:32:46.832+07:00,540127141261153490,-325351,-292321,-352559,-472867
1783265566538297000,2026-07-05T22:32:46.538+07:00,540127141952529612,-325246,-292340,-352548,-472894
1783265566556478818,2026-07-05T22:32:46.556+07:00,540127141952529612,-325203,-292243,-352456,-472875
1783265566574660636,2026-07-05T22:32:46.574+07:00,540127141952529612,-325146,-292185,-352432,-472901
1783265566592842454,2026-07-05T22:32:46.592+07:00,540127141952529612,-325069,-292098,-352340,-472988
1783265566611024272,2026-07-05T22:32:46.611+07:00,540127141952529612,-324939,-291944,-352302,-472887
1783265566629206090,2026-07-05T22:32:46.629+07:00,540127141952529612,-324915,-291875,-352194,-472876
1783265566647387909,2026-07-05T22:32:46.647+07:00,540127141952529612,-324767,-291748,-352049,-472880
1783265566665569727,2026-07-05T22:32:46.665+07:00,540127141952529612,-324713,-291621,-352002,-472903
1783265566683751545,2026-07-05T22:32:46.683+07:00,540127141952529612,-324648,-291598,-351929,-472912
1783265566701933363,2026-07-05T22:32:46.701+07:00,540127141952529612,-324600,-291515,-351880,-472922
1783265566720115181,2026-07-05T22:32:46.720+07:00,540127141952529612,-324493,-291445,-351820,-472925
1783265566738297000,2026-07-05T22:32:46.738+07:00,540127141952529612,-324461,-291271,-351800,-472954
1783265566756478818,2026-07-05T22:32:46.756+07:00,540127141952529612,-324364,-291261,-351738,-472941
1783265566774660636,2026-07-05T22:32:46.774+07:00,540127141952529612,-324230,-291099,-351593,-472910
1783265566792842454,2026-07-05T22:32:46.792+07:00,540127141952529612,-324205,-291058,-351548,-472907
1783265566811024272,2026-07-05T22:32:46.811+07:00,540127141952529612,-324086,-290954,-351422,-472896
1783265566829206090,2026-07-05T22:32:46.829+07:00,540127141952529612,-324045,-290938,-351389,-472924
1783265566847387909,2026-07-05T22:32:46.847+07:00,540127141952529612,-323921,-290796,-351289,-472959
1783265566865569727,2026-07-05T22:32:46.865+07:00,540127141952529612,-323813,-290668,-351166,-472930
1783265566883751545,2026-07-05T22:32:46.883+07:00,540127141952529612,-323744,-290529,-351072,-472937
1783265566901933363,2026-07-05T22:32:46.901+07:00,540127141952529612,-323789,-290539,-351109,-473007
1783265566920115181,2026-07-05T22:32:46.920+07:00,540127141952529612,-323853,-290765,-351269,-472979
1783265566938297000,2026-07-05T22:32:46.938+07:00,540127141952529612,-324167,-291087,-351483,-472946
1783265566956478818,2026-07-05T22:32:46.956+07:00,540127141952529612,-324730,-291723,-351894,-472945
1783265566974660636,2026-07-05T22:32:46.974+07:00,540127141952529612,-325181,-292317,-352333,-472907
1783265566992842454,2026-07-05T22:32:46.992+07:00,540127141952529612,-325676,-292887,-352688,-472912
1783265567011024272,2026-07-05T22:32:47.011+07:00,540127141952529612,-326124,-293484,-353094,-472910
1783265567029206090,2026-07-05T22:32:47.029+07:00,540127141952529612,-326586,-293993,-353469,-472919
1783265567047387909,2026-07-05T22:32:47.047+07:00,540127141952529612,-326910,-294427,-353797,-472931
1783265567065569727,2026-07-05T22:32:47.065+07:00,540127141952529612,-327322,-294867,-354183,-472981
1783265567083751545,2026-07-05T22:32:47.083+07:00,540127141952529612,-327464,-295225,-354425,-472929
1783265567101933363,2026-07-05T22:32:47.101+07:00,540127141952529612,-327640,-295492,-354608,-472882
1783265567120115181,2026-07-05T22:32:47.120+07:00,540127141952529612,-327746,-295748,-354842,-472965
1783265567138297000,2026-07-05T22:32:47.138+07:00,540127141952529612,-327801,-295821,-354913,-472951
1783265567156478818,2026-07-05T22:32:47.156+07:00,540127141952529612,-327827,-296004,-355024,-472928
1783265567174660636,2026-07-05T22:32:47.174+07:00,540127141952529612,-327773,-296112,-355101,-472873
1783265567192842454,2026-07-05T22:32:47.192+07:00,540127141952529612,-327854,-296269,-355252,-472916
1783265567211024272,2026-07-05T22:32:47.211+07:00,540127141952529612,-327810,-296478,-355411,-472922
1783265567293081900,2026-07-05T22:32:47.293+07:00,540127142643978996,-327933,-296714,-355600,-472904
1783265567311263718,2026-07-05T22:32:47.311+07:00,540127142643978996,-328102,-296962,-355800,-472909
1783265567329445536,2026-07-05T22:32:47.329+07:00,540127142643978996,-328285,-297217,-356027,-472863
1783265567347627354,2026-07-05T22:32:47.347+07:00,540127142643978996,-328531,-297556,-356265,-472878
1783265567365809172,2026-07-05T22:32:47.365+07:00,540127142643978996,-328772,-297846,-356538,-472904
1783265567383990990,2026-07-05T22:32:47.383+07:00,540127142643978996,-329061,-298094,-356824,-472931
1783265567402172809,2026-07-05T22:32:47.402+07:00,540127142643978996,-329213,-298336,-357004,-472924
1783265567420354627,2026-07-05T22:32:47.420+07:00,540127142643978996,-329456,-298604,-357234,-472929
1783265567438536445,2026-07-05T22:32:47.438+07:00,540127142643978996,-329654,-298935,-357510,-472978
1783265567456718263,2026-07-05T22:32:47.456+07:00,540127142643978996,-329806,-299154,-357676,-472981
1783265567474900081,2026-07-05T22:32:47.474+07:00,540127142643978996,-329885,-299308,-357774,-472910
1783265567493081900,2026-07-05T22:32:47.493+07:00,540127142643978996,-329971,-299529,-357876,-472936
1783265567511263718,2026-07-05T22:32:47.511+07:00,540127142643978996,-329985,-299641,-357892,-472942
1783265567529445536,2026-07-05T22:32:47.529+07:00,540127142643978996,-329960,-299651,-357908,-472886
1783265567547627354,2026-07-05T22:32:47.547+07:00,540127142643978996,-329958,-299725,-358017,-472880
1783265567565809172,2026-07-05T22:32:47.565+07:00,540127142643978996,-329945,-300025,-358322,-472916
1783265567583990990,2026-07-05T22:32:47.583+07:00,540127142643978996,-329914,-300167,-358572,-472944
1783265567602172809,2026-07-05T22:32:47.602+07:00,540127142643978996,-329743,-300236,-358712,-472874
1783265567620354627,2026-07-05T22:32:47.620+07:00,540127142643978996,-329514,-300104,-358777,-472897
1783265567638536445,2026-07-05T22:32:47.638+07:00,540127142643978996,-329254,-299971,-358811,-472876
1783265567656718263,2026-07-05T22:32:47.656+07:00,540127142643978996,-328977,-299880,-358769,-472939
1783265567674900081,2026-07-05T22:32:47.674+07:00,540127142643978996,-328777,-299771,-358815,-472920
1783265567693081900,2026-07-05T22:32:47.693+07:00,540127142643978996,-328550,-299650,-358733,-472881
1783265567711263718,2026-07-05T22:32:47.711+07:00,540127142643978996,-328288,-299583,-358665,-472924
1783265567729445536,2026-07-05T22:32:47.729+07:00,540127142643978996,-328085,-299479,-358520,-472948
1783265567747627354,2026-07-05T22:32:47.747+07:00,540127142643978996,-327834,-299223,-358362,-472885
1783265567765809172,2026-07-05T22:32:47.765+07:00,540127142643978996,-327569,-298984,-358163,-472925
1783265567783990990,2026-07-05T22:32:47.783+07:00,540127142643978996,-327318,-298776,-358084,-472934
1783265567802172809,2026-07-05T22:32:47.802+07:00,540127142643978996,-327033,-298542,-357814,-472817
1783265567820354627,2026-07-05T22:32:47.820+07:00,540127142643978996,-326971,-298584,-357878,-472913
1783265567838536445,2026-07-05T22:32:47.838+07:00,540127142643978996,-327133,-298805,-358068,-472879
1783265567856718263,2026-07-05T22:32:47.856+07:00,540127142643978996,-327572,-299342,-358425,-472882
1783265567874900081,2026-07-05T22:32:47.874+07:00,540127142643978996,-328131,-299993,-358901,-472918
1783265567893081900,2026-07-05T22:32:47.893+07:00,540127142643978996,-328651,-300618,-359283,-472881
1783265567911263718,2026-07-05T22:32:47.911+07:00,540127142643978996,-329138,-301212,-359751,-472909
1783265567929445536,2026-07-05T22:32:47.929+07:00,540127142643978996,-329546,-301720,-360133,-472916
1783265567947627354,2026-07-05T22:32:47.947+07:00,540127142643978996,-329868,-302158,-360388,-472860
1783265567965809172,2026-07-05T22:32:47.965+07:00,540127142643978996,-330189,-302435,-360642,-472863
1783265568072533100,2026-07-05T22:32:48.072+07:00,540127143371814982,-330394,-302765,-360832,-472916
1783265568090714918,2026-07-05T22:32:48.090+07:00,540127143371814982,-330567,-303017,-360933,-472895
1783265568108896736,2026-07-05T22:32:48.108+07:00,540127143371814982,-330689,-303310,-361072,-472915
1783265568127078554,2026-07-05T22:32:48.127+07:00,540127143371814982,-330788,-303469,-361144,-472898
1783265568145260372,2026-07-05T22:32:48.145+07:00,540127143371814982,-330874,-303678,-361270,-472892
1783265568163442190,2026-07-05T22:32:48.163+07:00,540127143371814982,-330948,-303804,-361362,-472913
1783265568181624009,2026-07-05T22:32:48.181+07:00,540127143371814982,-330970,-304045,-361508,-472886
1783265568199805827,2026-07-05T22:32:48.199+07:00,540127143371814982,-330989,-304280,-361749,-472919
1783265568217987645,2026-07-05T22:32:48.217+07:00,540127143371814982,-331016,-304612,-361810,-472877
1783265568236169463,2026-07-05T22:32:48.236+07:00,540127143371814982,-331090,-304916,-362079,-472900
1783265568254351281,2026-07-05T22:32:48.254+07:00,540127143371814982,-331194,-305192,-362246,-472941
1783265568272533100,2026-07-05T22:32:48.272+07:00,540127143371814982,-331152,-305320,-362306,-472911
1783265568290714918,2026-07-05T22:32:48.290+07:00,540127143371814982,-331085,-305525,-362458,-472946
1783265568308896736,2026-07-05T22:32:48.308+07:00,540127143371814982,-330998,-305619,-362522,-472910
1783265568327078554,2026-07-05T22:32:48.327+07:00,540127143371814982,-330842,-305746,-362515,-472890
1783265568345260372,2026-07-05T22:32:48.345+07:00,540127143371814982,-330675,-305739,-362463,-472963
1783265568363442190,2026-07-05T22:32:48.363+07:00,540127143371814982,-330561,-305722,-362395,-472866
1783265568381624009,2026-07-05T22:32:48.381+07:00,540127143371814982,-330376,-305629,-362194,-472871
1783265568399805827,2026-07-05T22:32:48.399+07:00,540127143371814982,-330180,-305524,-362084,-472917
1783265568417987645,2026-07-05T22:32:48.417+07:00,540127143371814982,-329982,-305373,-361879,-472950
1783265568436169463,2026-07-05T22:32:48.436+07:00,540127143371814982,-329787,-305220,-361672,-472886
1783265568454351281,2026-07-05T22:32:48.454+07:00,540127143371814982,-329616,-305017,-361478,-472920
1783265568472533100,2026-07-05T22:32:48.472+07:00,540127143371814982,-329338,-304740,-361272,-472907
1783265568490714918,2026-07-05T22:32:48.490+07:00,540127143371814982,-329132,-304496,-361074,-472932
1783265568508896736,2026-07-05T22:32:48.508+07:00,540127143371814982,-328925,-304223,-360828,-472928
1783265568527078554,2026-07-05T22:32:48.527+07:00,540127143371814982,-328672,-303904,-360536,-472956
1783265568545260372,2026-07-05T22:32:48.545+07:00,540127143371814982,-328517,-303597,-360335,-472945
1783265568563442190,2026-07-05T22:32:48.563+07:00,540127143371814982,-328278,-303251,-360068,-472936
1783265568581624009,2026-07-05T22:32:48.581+07:00,540127143371814982,-328106,-303011,-359852,-472893
1783265568599805827,2026-07-05T22:32:48.599+07:00,540127143371814982,-327955,-302729,-359668,-472905
1783265568617987645,2026-07-05T22:32:48.617+07:00,540127143371814982,-327813,-302423,-359467,-472918
1783265568636169463,2026-07-05T22:32:48.636+07:00,540127143371814982,-327609,-302165,-359278,-472938
1783265568654351281,2026-07-05T22:32:48.654+07:00,540127143371814982,-327502,-301941,-359077,-472969
1783265568672533100,2026-07-05T22:32:48.672+07:00,540127143371814982,-327309,-301691,-358880,-472884
1783265568690714918,2026-07-05T22:32:48.690+07:00,540127143371814982,-327150,-301435,-358700,-472894
1783265568708896736,2026-07-05T22:32:48.708+07:00,540127143371814982,-327005,-301262,-358516,-472892
1783265568727078554,2026-07-05T22:32:48.727+07:00,540127143371814982,-326997,-301194,-358456,-472844
1783265568745260372,2026-07-05T22:32:48.745+07:00,540127143371814982,-327139,-301231,-358546,-472950
1783265568763442190,2026-07-05T22:32:48.763+07:00,540127143371814982,-327462,-301466,-358692,-472926
1783265568781624009,2026-07-05T22:32:48.781+07:00,540127143371814982,-327955,-301911,-359076,-472963
1783265568865279400,2026-07-05T22:32:48.865+07:00,540127144081382897,-328453,-302439,-359438,-472956
1783265568883461218,2026-07-05T22:32:48.883+07:00,540127144081382897,-328962,-302984,-359837,-472989
1783265568901643036,2026-07-05T22:32:48.901+07:00,540127144081382897,-329425,-303439,-360158,-472910
1783265568919824854,2026-07-05T22:32:48.919+07:00,540127144081382897,-329853,-303865,-360471,-472911
1783265568938006672,2026-07-05T22:32:48.938+07:00,540127144081382897,-330216,-304221,-360734,-472917
1783265568956188490,2026-07-05T22:32:48.956+07:00,540127144081382897,-330607,-304545,-361080,-472930
1783265568974370309,2026-07-05T22:32:48.974+07:00,540127144081382897,-330803,-304865,-361301,-472884
1783265568992552127,2026-07-05T22:32:48.992+07:00,540127144081382897,-331057,-305180,-361544,-472910
1783265569010733945,2026-07-05T22:32:49.010+07:00,540127144081382897,-331193,-305366,-361719,-472916
1783265569028915763,2026-07-05T22:32:49.028+07:00,540127144081382897,-331283,-305442,-361827,-472951
1783265569047097581,2026-07-05T22:32:49.047+07:00,540127144081382897,-331282,-305645,-361919,-472927
1783265569065279400,2026-07-05T22:32:49.065+07:00,540127144081382897,-331282,-305677,-361953,-472965
1783265569083461218,2026-07-05T22:32:49.083+07:00,540127144081382897,-331296,-305875,-362028,-472986
1783265569101643036,2026-07-05T22:32:49.101+07:00,540127144081382897,-331343,-306027,-362098,-472964
1783265569119824854,2026-07-05T22:32:49.119+07:00,540127144081382897,-331398,-306124,-362234,-472942
1783265569138006672,2026-07-05T22:32:49.138+07:00,540127144081382897,-331309,-306159,-362261,-472922
1783265569156188490,2026-07-05T22:32:49.156+07:00,540127144081382897,-331347,-306318,-362288,-472911
1783265569174370309,2026-07-05T22:32:49.174+07:00,540127144081382897,-331306,-306315,-362343,-472958
1783265569192552127,2026-07-05T22:32:49.192+07:00,540127144081382897,-331247,-306391,-362384,-472959
1783265569210733945,2026-07-05T22:32:49.210+07:00,540127144081382897,-331090,-306415,-362266,-472907
1783265569228915763,2026-07-05T22:32:49.228+07:00,540127144081382897,-331002,-306385,-362249,-472951
1783265569247097581,2026-07-05T22:32:49.247+07:00,540127144081382897,-330852,-306244,-362199,-472917
1783265569265279400,2026-07-05T22:32:49.265+07:00,540127144081382897,-330777,-306214,-362101,-472926
1783265569283461218,2026-07-05T22:32:49.283+07:00,540127144081382897,-330630,-306112,-362004,-472920
1783265569301643036,2026-07-05T22:32:49.301+07:00,540127144081382897,-330555,-306016,-361952,-472937
1783265569319824854,2026-07-05T22:32:49.319+07:00,540127144081382897,-330375,-305963,-361899,-472914
1783265569338006672,2026-07-05T22:32:49.338+07:00,540127144081382897,-330224,-305801,-361785,-472936
1783265569356188490,2026-07-05T22:32:49.356+07:00,540127144081382897,-330044,-305648,-361639,-472924
1783265569374370309,2026-07-05T22:32:49.374+07:00,540127144081382897,-329890,-305551,-361533,-472895
1783265569392552127,2026-07-05T22:32:49.392+07:00,540127144081382897,-329740,-305439,-361424,-472919
1783265569410733945,2026-07-05T22:32:49.410+07:00,540127144081382897,-329608,-305249,-361386,-472966
1783265569428915763,2026-07-05T22:32:49.428+07:00,540127144081382897,-329406,-305107,-361214,-472951
1783265569447097581,2026-07-05T22:32:49.447+07:00,540127144081382897,-329241,-304981,-361076,-472943
1783265569465279400,2026-07-05T22:32:49.465+07:00,540127144081382897,-329105,-304798,-360972,-472898
1783265569483461218,2026-07-05T22:32:49.483+07:00,540127144081382897,-328885,-304602,-360821,-472970
1783265569501643036,2026-07-05T22:32:49.501+07:00,540127144081382897,-328639,-304373,-360642,-472951
1783265569519824854,2026-07-05T22:32:49.519+07:00,540127144081382897,-328405,-304203,-360555,-472898
1783265569538006672,2026-07-05T22:32:49.538+07:00,540127144081382897,-328304,-304024,-360389,-472898
1783265569556188490,2026-07-05T22:32:49.556+07:00,540127144081382897,-328124,-303830,-360236,-472918
1783265569466137900,2026-07-05T22:32:49.466+07:00,540127144809153271,-327984,-303671,-360183,-472913
1783265569484319718,2026-07-05T22:32:49.484+07:00,540127144809153271,-327964,-303637,-360138,-472965
1783265569502501536,2026-07-05T22:32:49.502+07:00,540127144809153271,-328219,-303890,-360326,-472946
1783265569520683354,2026-07-05T22:32:49.520+07:00,540127144809153271,-328529,-304303,-360587,-472935
1783265569538865172,2026-07-05T22:32:49.538+07:00,540127144809153271,-329050,-304845,-360988,-472913
1783265569557046990,2026-07-05T22:32:49.557+07:00,540127144809153271,-329488,-305303,-361269,-472911
1783265569575228809,2026-07-05T22:32:49.575+07:00,540127144809153271,-329959,-305776,-361638,-472878
1783265569593410627,2026-07-05T22:32:49.593+07:00,540127144809153271,-330312,-306190,-361927,-472888
1783265569611592445,2026-07-05T22:32:49.611+07:00,540127144809153271,-330708,-306616,-362244,-472925
1783265569629774263,2026-07-05T22:32:49.629+07:00,540127144809153271,-330953,-306881,-362440,-472961
1783265569647956081,2026-07-05T22:32:49.647+07:00,540127144809153271,-331208,-307137,-362638,-472941
1783265569666137900,2026-07-05T22:32:49.666+07:00,540127144809153271,-331392,-307327,-362806,-472972
1783265569684319718,2026-07-05T22:32:49.684+07:00,540127144809153271,-331503,-307338,-362858,-472883
1783265569702501536,2026-07-05T22:32:49.702+07:00,540127144809153271,-331584,-307421,-362924,-472886
1783265569720683354,2026-07-05T22:32:49.720+07:00,540127144809153271,-331515,-307508,-362913,-472895
1783265569738865172,2026-07-05T22:32:49.738+07:00,540127144809153271,-331587,-307518,-362862,-472921
1783265569757046990,2026-07-05T22:32:49.757+07:00,540127144809153271,-331583,-307521,-362877,-472892
1783265569775228809,2026-07-05T22:32:49.775+07:00,540127144809153271,-331595,-307554,-362934,-472972
1783265569793410627,2026-07-05T22:32:49.793+07:00,540127144809153271,-331584,-307586,-362971,-472953
1783265569811592445,2026-07-05T22:32:49.811+07:00,540127144809153271,-331580,-307482,-362949,-472936
1783265569829774263,2026-07-05T22:32:49.829+07:00,540127144809153271,-331624,-307529,-362936,-472904
1783265569847956081,2026-07-05T22:32:49.847+07:00,540127144809153271,-331625,-307504,-362865,-472929
1783265569866137900,2026-07-05T22:32:49.866+07:00,540127144809153271,-331581,-307474,-362769,-472920
1783265569884319718,2026-07-05T22:32:49.884+07:00,540127144809153271,-331521,-307398,-362797,-472890
1783265569902501536,2026-07-05T22:32:49.902+07:00,540127144809153271,-331408,-307266,-362673,-472904
1783265569920683354,2026-07-05T22:32:49.920+07:00,540127144809153271,-331337,-307166,-362632,-472900
1783265569938865172,2026-07-05T22:32:49.938+07:00,540127144809153271,-331208,-307026,-362499,-472899
1783265569957046990,2026-07-05T22:32:49.957+07:00,540127144809153271,-331161,-306920,-362439,-472947
1783265569975228809,2026-07-05T22:32:49.975+07:00,540127144809153271,-330991,-306760,-362346,-472927
1783265569993410627,2026-07-05T22:32:49.993+07:00,540127144809153271,-330955,-306645,-362253,-472960
1783265570011592445,2026-07-05T22:32:50.011+07:00,540127144809153271,-330776,-306419,-362079,-472907
1783265570029774263,2026-07-05T22:32:50.029+07:00,540127144809153271,-330640,-306215,-361918,-472864
1783265570047956081,2026-07-05T22:32:50.047+07:00,540127144809153271,-330582,-306122,-361827,-472999
1783265570066137900,2026-07-05T22:32:50.066+07:00,540127144809153271,-330431,-305960,-361731,-472946
1783265570084319718,2026-07-05T22:32:50.084+07:00,540127144809153271,-330264,-305776,-361596,-472918
1783265570102501536,2026-07-05T22:32:50.102+07:00,540127144809153271,-330217,-305570,-361475,-472975
1783265570120683354,2026-07-05T22:32:50.120+07:00,540127144809153271,-330013,-305333,-361306,-472894
1783265570138865172,2026-07-05T22:32:50.138+07:00,540127144809153271,-329864,-305134,-361127,-472895
1783265570157046990,2026-07-05T22:32:50.157+07:00,540127144809153271,-329744,-304953,-361025,-472904
1783265570175228809,2026-07-05T22:32:50.175+07:00,540127144809153271,-329592,-304765,-360893,-472908
1783265570262634400,2026-07-05T22:32:50.262+07:00,540127145482336102,-329517,-304520,-360725,-472915
1783265570280816218,2026-07-05T22:32:50.280+07:00,540127145482336102,-329307,-304394,-360567,-472915
1783265570298998036,2026-07-05T22:32:50.298+07:00,540127145482336102,-329119,-304204,-360411,-472985
1783265570317179854,2026-07-05T22:32:50.317+07:00,540127145482336102,-328999,-304025,-360272,-472936
1783265570335361672,2026-07-05T22:32:50.335+07:00,540127145482336102,-328822,-303746,-360116,-472942
1783265570353543490,2026-07-05T22:32:50.353+07:00,540127145482336102,-328784,-303561,-360031,-472993
1783265570371725309,2026-07-05T22:32:50.371+07:00,540127145482336102,-328768,-303655,-360036,-472925
1783265570389907127,2026-07-05T22:32:50.389+07:00,540127145482336102,-329017,-303893,-360193,-472922
1783265570408088945,2026-07-05T22:32:50.408+07:00,540127145482336102,-329491,-304324,-360471,-472898
1783265570426270763,2026-07-05T22:32:50.426+07:00,540127145482336102,-329938,-304879,-360855,-472902
1783265570444452581,2026-07-05T22:32:50.444+07:00,540127145482336102,-330475,-305357,-361241,-472892
1783265570462634400,2026-07-05T22:32:50.462+07:00,540127145482336102,-330938,-305806,-361566,-472909
1783265570480816218,2026-07-05T22:32:50.480+07:00,540127145482336102,-331274,-306224,-361842,-472963
1783265570498998036,2026-07-05T22:32:50.498+07:00,540127145482336102,-331541,-306561,-362070,-472947
1783265570517179854,2026-07-05T22:32:50.517+07:00,540127145482336102,-331899,-306844,-362311,-472956
1783265570535361672,2026-07-05T22:32:50.535+07:00,540127145482336102,-332073,-307102,-362431,-472947
1783265570553543490,2026-07-05T22:32:50.553+07:00,540127145482336102,-332256,-307255,-362555,-472952
1783265570571725309,2026-07-05T22:32:50.571+07:00,540127145482336102,-332347,-307387,-362668,-472927
1783265570589907127,2026-07-05T22:32:50.589+07:00,540127145482336102,-332389,-307393,-362634,-472875
1783265570608088945,2026-07-05T22:32:50.608+07:00,540127145482336102,-332400,-307406,-362645,-472933
1783265570626270763,2026-07-05T22:32:50.626+07:00,540127145482336102,-332374,-307403,-362598,-472921
1783265570644452581,2026-07-05T22:32:50.644+07:00,540127145482336102,-332374,-307364,-362607,-472947
1783265570662634400,2026-07-05T22:32:50.662+07:00,540127145482336102,-332371,-307346,-362583,-472861
1783265570680816218,2026-07-05T22:32:50.680+07:00,540127145482336102,-332339,-307376,-362577,-472848
1783265570698998036,2026-07-05T22:32:50.698+07:00,540127145482336102,-332401,-307303,-362564,-472858
1783265570717179854,2026-07-05T22:32:50.717+07:00,540127145482336102,-332372,-307350,-362579,-472930
1783265570735361672,2026-07-05T22:32:50.735+07:00,540127145482336102,-332334,-307313,-362538,-472896
1783265570753543490,2026-07-05T22:32:50.753+07:00,540127145482336102,-332265,-307252,-362429,-472878
1783265570771725309,2026-07-05T22:32:50.771+07:00,540127145482336102,-332246,-307190,-362436,-472924
1783265570789907127,2026-07-05T22:32:50.789+07:00,540127145482336102,-332134,-307088,-362393,-472936
1783265570808088945,2026-07-05T22:32:50.808+07:00,540127145482336102,-332065,-307015,-362277,-472902
1783265570826270763,2026-07-05T22:32:50.826+07:00,540127145482336102,-331949,-306846,-362194,-472958
1783265570844452581,2026-07-05T22:32:50.844+07:00,540127145482336102,-331810,-306662,-362055,-472890
1783265570862634400,2026-07-05T22:32:50.862+07:00,540127145482336102,-331693,-306608,-362010,-472948
1783265570880816218,2026-07-05T22:32:50.880+07:00,540127145482336102,-331529,-306429,-361883,-472932
1783265570898998036,2026-07-05T22:32:50.898+07:00,540127145482336102,-331440,-306262,-361730,-472965
1783265570917179854,2026-07-05T22:32:50.917+07:00,540127145482336102,-331254,-306139,-361631,-472920
1783265570902901500,2026-07-05T22:32:50.902+07:00,540127146191922329,-331124,-305972,-361486,-472967
1783265570921083318,2026-07-05T22:32:50.921+07:00,540127146191922329,-330953,-305741,-361291,-472887
1783265570939265136,2026-07-05T22:32:50.939+07:00,540127146191922329,-330812,-305587,-361179,-472880
1783265570957446954,2026-07-05T22:32:50.957+07:00,540127146191922329,-330663,-305382,-361083,-472946
1783265570975628772,2026-07-05T22:32:50.975+07:00,540127146191922329,-330544,-305195,-360953,-472997
1783265570993810590,2026-07-05T22:32:50.993+07:00,540127146191922329,-330328,-304979,-360734,-472959
1783265571011992409,2026-07-05T22:32:51.011+07:00,540127146191922329,-330164,-304747,-360591,-472907
1783265571030174227,2026-07-05T22:32:51.030+07:00,540127146191922329,-330054,-304577,-360550,-472977
1783265571048356045,2026-07-05T22:32:51.048+07:00,540127146191922329,-329813,-304369,-360325,-472859
1783265571066537863,2026-07-05T22:32:51.066+07:00,540127146191922329,-329688,-304183,-360147,-472897
1783265571084719681,2026-07-05T22:32:51.084+07:00,540127146191922329,-329576,-303986,-360000,-472913
1783265571102901500,2026-07-05T22:32:51.102+07:00,540127146191922329,-329389,-303752,-359879,-472926
1783265571121083318,2026-07-05T22:32:51.121+07:00,540127146191922329,-329235,-303533,-359732,-472941
1783265571139265136,2026-07-05T22:32:51.139+07:00,540127146191922329,-329021,-303342,-359554,-472937
1783265571157446954,2026-07-05T22:32:51.157+07:00,540127146191922329,-328851,-303080,-359349,-472881
1783265571175628772,2026-07-05T22:32:51.175+07:00,540127146191922329,-328788,-302960,-359264,-472895
1783265571193810590,2026-07-05T22:32:51.193+07:00,540127146191922329,-328940,-303116,-359417,-472912
1783265571211992409,2026-07-05T22:32:51.211+07:00,540127146191922329,-329227,-303442,-359631,-472936
1783265571230174227,2026-07-05T22:32:51.230+07:00,540127146191922329,-329738,-303877,-359988,-472899
1783265571248356045,2026-07-05T22:32:51.248+07:00,540127146191922329,-330274,-304417,-360302,-472954
1783265571266537863,2026-07-05T22:32:51.266+07:00,540127146191922329,-330784,-304928,-360670,-472963
1783265571284719681,2026-07-05T22:32:51.284+07:00,540127146191922329,-331129,-305343,-360943,-472965
1783265571302901500,2026-07-05T22:32:51.302+07:00,540127146191922329,-331512,-305646,-361235,-472909
1783265571321083318,2026-07-05T22:32:51.321+07:00,540127146191922329,-331726,-305885,-361391,-472909
1783265571339265136,2026-07-05T22:32:51.339+07:00,540127146191922329,-332030,-306228,-361550,-472907
1783265571357446954,2026-07-05T22:32:51.357+07:00,540127146191922329,-332177,-306430,-361721,-472874
1783265571375628772,2026-07-05T22:32:51.375+07:00,540127146191922329,-332357,-306555,-361866,-472954
1783265571393810590,2026-07-05T22:32:51.393+07:00,540127146191922329,-332409,-306629,-361889,-472939
1783265571411992409,2026-07-05T22:32:51.411+07:00,540127146191922329,-332438,-306671,-361929,-472961
1783265571430174227,2026-07-05T22:32:51.430+07:00,540127146191922329,-332347,-306624,-361886,-472948
1783265571448356045,2026-07-05T22:32:51.448+07:00,540127146191922329,-332358,-306613,-361853,-472875
1783265571466537863,2026-07-05T22:32:51.466+07:00,540127146191922329,-332393,-306601,-361849,-472898
1783265571484719681,2026-07-05T22:32:51.484+07:00,540127146191922329,-332397,-306719,-361826,-472854
1783265571502901500,2026-07-05T22:32:51.502+07:00,540127146191922329,-332378,-306579,-361817,-472888
1783265571521083318,2026-07-05T22:32:51.521+07:00,540127146191922329,-332378,-306668,-361865,-472913
1783265571539265136,2026-07-05T22:32:51.539+07:00,540127146191922329,-332363,-306606,-361799,-472905
1783265571557446954,2026-07-05T22:32:51.557+07:00,540127146191922329,-332289,-306585,-361758,-472880
1783265571575628772,2026-07-05T22:32:51.575+07:00,540127146191922329,-332220,-306516,-361721,-472954
1783265571593810590,2026-07-05T22:32:51.593+07:00,540127146191922329,-332113,-306394,-361648,-472964
1783265571672591800,2026-07-05T22:32:51.672+07:00,540127146901505502,-332031,-306321,-361560,-472928
1783265571690773618,2026-07-05T22:32:51.690+07:00,540127146901505502,-331977,-306174,-361506,-472929
1783265571708955436,2026-07-05T22:32:51.708+07:00,540127146901505502,-331792,-306016,-361382,-472850
1783265571727137254,2026-07-05T22:32:51.727+07:00,540127146901505502,-331646,-305948,-361326,-472933
1783265571745319072,2026-07-05T22:32:51.745+07:00,540127146901505502,-331501,-305741,-361233,-472894
1783265571763500890,2026-07-05T22:32:51.763+07:00,540127146901505502,-331284,-305565,-361041,-472871
1783265571781682709,2026-07-05T22:32:51.781+07:00,540127146901505502,-331181,-305433,-360889,-472879
1783265571799864527,2026-07-05T22:32:51.799+07:00,540127146901505502,-331073,-305207,-360823,-472887
1783265571818046345,2026-07-05T22:32:51.818+07:00,540127146901505502,-330922,-305102,-360715,-472886
1783265571836228163,2026-07-05T22:32:51.836+07:00,540127146901505502,-330780,-304872,-360524,-472903
1783265571854409981,2026-07-05T22:32:51.854+07:00,540127146901505502,-330569,-304725,-360485,-472952
1783265571872591800,2026-07-05T22:32:51.872+07:00,540127146901505502,-330381,-304548,-360301,-472902
1783265571890773618,2026-07-05T22:32:51.890+07:00,540127146901505502,-330265,-304342,-360139,-472927
1783265571908955436,2026-07-05T22:32:51.908+07:00,540127146901505502,-330179,-304193,-360095,-472965
1783265571927137254,2026-07-05T22:32:51.927+07:00,540127146901505502,-329936,-304010,-359932,-472925
1783265571945319072,2026-07-05T22:32:51.945+07:00,540127146901505502,-329779,-303779,-359793,-472890
1783265571963500890,2026-07-05T22:32:51.963+07:00,540127146901505502,-329596,-303580,-359598,-472927
1783265571981682709,2026-07-05T22:32:51.981+07:00,540127146901505502,-329482,-303348,-359484,-472929
1783265571999864527,2026-07-05T22:32:51.999+07:00,540127146901505502,-329244,-303187,-359331,-472883
1783265572018046345,2026-07-05T22:32:52.018+07:00,540127146901505502,-329028,-302974,-359158,-472904
1783265572036228163,2026-07-05T22:32:52.036+07:00,540127146901505502,-328923,-302782,-359071,-472952
1783265572054409981,2026-07-05T22:32:52.054+07:00,540127146901505502,-328748,-302626,-358905,-472929
1783265572072591800,2026-07-05T22:32:52.072+07:00,540127146901505502,-328634,-302385,-358732,-472850
1783265572090773618,2026-07-05T22:32:52.090+07:00,540127146901505502,-328664,-302456,-358773,-472894
1783265572108955436,2026-07-05T22:32:52.108+07:00,540127146901505502,-328917,-302650,-358935,-472911
1783265572127137254,2026-07-05T22:32:52.127+07:00,540127146901505502,-329347,-303088,-359246,-472891
1783265572145319072,2026-07-05T22:32:52.145+07:00,540127146901505502,-329856,-303605,-359621,-472909
1783265572163500890,2026-07-05T22:32:52.163+07:00,540127146901505502,-330309,-304121,-359953,-472909
1783265572181682709,2026-07-05T22:32:52.181+07:00,540127146901505502,-330774,-304574,-360339,-472936
1783265572199864527,2026-07-05T22:32:52.199+07:00,540127146901505502,-331067,-304964,-360557,-472908
1783265572218046345,2026-07-05T22:32:52.218+07:00,540127146901505502,-331449,-305278,-360825,-472975
1783265572236228163,2026-07-05T22:32:52.236+07:00,540127146901505502,-331664,-305508,-360947,-472903
1783265572254409981,2026-07-05T22:32:52.254+07:00,540127146901505502,-331801,-305671,-361109,-472967
1783265572272591800,2026-07-05T22:32:52.272+07:00,540127146901505502,-331975,-305811,-361182,-472870
1783265572290773618,2026-07-05T22:32:52.290+07:00,540127146901505502,-331991,-305905,-361228,-472907
1783265572308955436,2026-07-05T22:32:52.308+07:00,540127146901505502,-332000,-305916,-361238,-472919
1783265572327137254,2026-07-05T22:32:52.327+07:00,540127146901505502,-332039,-305884,-361265,-472941
1783265572345319072,2026-07-05T22:32:52.345+07:00,540127146901505502,-331928,-305824,-361212,-472888
1783265572363500890,2026-07-05T22:32:52.363+07:00,540127146901505502,-331943,-305884,-361190,-472938
1783265572484556700,2026-07-05T22:32:52.484+07:00,540127147611088677,-331944,-305914,-361264,-472921
1783265572502738518,2026-07-05T22:32:52.502+07:00,540127147611088677,-331988,-305929,-361265,-472946
1783265572520920336,2026-07-05T22:32:52.520+07:00,540127147611088677,-331958,-305896,-361144,-472892
1783265572539102154,2026-07-05T22:32:52.539+07:00,540127147611088677,-332020,-305920,-361235,-472959
1783265572557283972,2026-07-05T22:32:52.557+07:00,540127147611088677,-331960,-305866,-361204,-472945
1783265572575465790,2026-07-05T22:32:52.575+07:00,540127147611088677,-331895,-305802,-361101,-472894
1783265572593647609,2026-07-05T22:32:52.593+07:00,540127147611088677,-331788,-305702,-361092,-472935
1783265572611829427,2026-07-05T22:32:52.611+07:00,540127147611088677,-331712,-305578,-360943,-472935
1783265572630011245,2026-07-05T22:32:52.630+07:00,540127147611088677,-331600,-305496,-360877,-472949
1783265572648193063,2026-07-05T22:32:52.648+07:00,540127147611088677,-331502,-305362,-360808,-472994
1783265572666374881,2026-07-05T22:32:52.666+07:00,540127147611088677,-331328,-305168,-360692,-472964
1783265572684556700,2026-07-05T22:32:52.684+07:00,540127147611088677,-331237,-304982,-360642,-472951
1783265572702738518,2026-07-05T22:32:52.702+07:00,540127147611088677,-331087,-304894,-360442,-472916
1783265572720920336,2026-07-05T22:32:52.720+07:00,540127147611088677,-330925,-304743,-360291,-472874
1783265572739102154,2026-07-05T22:32:52.739+07:00,540127147611088677,-330767,-304596,-360227,-472948
1783265572757283972,2026-07-05T22:32:52.757+07:00,540127147611088677,-330617,-304391,-360084,-472916
1783265572775465790,2026-07-05T22:32:52.775+07:00,540127147611088677,-330463,-304194,-359919,-472951
1783265572793647609,2026-07-05T22:32:52.793+07:00,540127147611088677,-330318,-304079,-359830,-472934
1783265572811829427,2026-07-05T22:32:52.811+07:00,540127147611088677,-330158,-303869,-359698,-472968
1783265572830011245,2026-07-05T22:32:52.830+07:00,540127147611088677,-329946,-303642,-359530,-472887
1783265572848193063,2026-07-05T22:32:52.848+07:00,540127147611088677,-329794,-303502,-359393,-472891
1783265572866374881,2026-07-05T22:32:52.866+07:00,540127147611088677,-329601,-303279,-359241,-472920
1783265572884556700,2026-07-05T22:32:52.884+07:00,540127147611088677,-329493,-303152,-359147,-472941
1783265572902738518,2026-07-05T22:32:52.902+07:00,540127147611088677,-329355,-302940,-359022,-472973
1783265572920920336,2026-07-05T22:32:52.920+07:00,540127147611088677,-329132,-302692,-358915,-472886
1783265572939102154,2026-07-05T22:32:52.939+07:00,540127147611088677,-329023,-302536,-358719,-472992
1783265572957283972,2026-07-05T22:32:52.957+07:00,540127147611088677,-328757,-302314,-358623,-472927
1783265572975465790,2026-07-05T22:32:52.975+07:00,540127147611088677,-328609,-302107,-358449,-472973
1783265572993647609,2026-07-05T22:32:52.993+07:00,540127147611088677,-328461,-301949,-358319,-472948
1783265573011829427,2026-07-05T22:32:53.011+07:00,540127147611088677,-328341,-301816,-358226,-472898
1783265573030011245,2026-07-05T22:32:53.030+07:00,540127147611088677,-328563,-301997,-358378,-472907
1783265573048193063,2026-07-05T22:32:53.048+07:00,540127147611088677,-328882,-302284,-358572,-472904
1783265573066374881,2026-07-05T22:32:53.066+07:00,540127147611088677,-329275,-302781,-358884,-472865
1783265573084556700,2026-07-05T22:32:53.084+07:00,540127147611088677,-329799,-303313,-359237,-472882
1783265573102738518,2026-07-05T22:32:53.102+07:00,540127147611088677,-330232,-303845,-359652,-472897
1783265573120920336,2026-07-05T22:32:53.120+07:00,540127147611088677,-330680,-304200,-359948,-472874
1783265573139102154,2026-07-05T22:32:53.139+07:00,540127147611088677,-331035,-304562,-360178,-472901
1783265573157283972,2026-07-05T22:32:53.157+07:00,540127147611088677,-331312,-304869,-360398,-472862
1783265573175465790,2026-07-05T22:32:53.175+07:00,540127147611088677,-331498,-305123,-360571,-472911
1783265573111694000,2026-07-05T22:32:53.111+07:00,540127148320687110,-331712,-305373,-360724,-472919
1783265573129875818,2026-07-05T22:32:53.129+07:00,540127148320687110,-331900,-305543,-360791,-472912
1783265573148057636,2026-07-05T22:32:53.148+07:00,540127148320687110,-331900,-305652,-360868,-472891
1783265573166239454,2026-07-05T22:32:53.166+07:00,540127148320687110,-331939,-305697,-360909,-472926
1783265573184421272,2026-07-05T22:32:53.184+07:00,540127148320687110,-332014,-305651,-360915,-472927
1783265573202603090,2026-07-05T22:32:53.202+07:00,540127148320687110,-331941,-305619,-360924,-472925
1783265573220784909,2026-07-05T22:32:53.220+07:00,540127148320687110,-331944,-305633,-360905,-472929
1783265573238966727,2026-07-05T22:32:53.238+07:00,540127148320687110,-331944,-305624,-360910,-472902
1783265573257148545,2026-07-05T22:32:53.257+07:00,540127148320687110,-331971,-305639,-360896,-472913
1783265573275330363,2026-07-05T22:32:53.275+07:00,540127148320687110,-331948,-305726,-360902,-472905
1783265573293512181,2026-07-05T22:32:53.293+07:00,540127148320687110,-331930,-305631,-360886,-472880
1783265573311694000,2026-07-05T22:32:53.311+07:00,540127148320687110,-331963,-305670,-360920,-473002
1783265573329875818,2026-07-05T22:32:53.329+07:00,540127148320687110,-331898,-305576,-360861,-472966
1783265573348057636,2026-07-05T22:32:53.348+07:00,540127148320687110,-331805,-305537,-360795,-472887
1783265573366239454,2026-07-05T22:32:53.366+07:00,540127148320687110,-331722,-305422,-360753,-472958
1783265573384421272,2026-07-05T22:32:53.384+07:00,540127148320687110,-331615,-305382,-360649,-472862
1783265573402603090,2026-07-05T22:32:53.402+07:00,540127148320687110,-331510,-305240,-360520,-472879
1783265573420784909,2026-07-05T22:32:53.420+07:00,540127148320687110,-331416,-305146,-360500,-472928
1783265573438966727,2026-07-05T22:32:53.438+07:00,540127148320687110,-331353,-304997,-360401,-472928
1783265573457148545,2026-07-05T22:32:53.457+07:00,540127148320687110,-331230,-304851,-360275,-472920
1783265573475330363,2026-07-05T22:32:53.475+07:00,540127148320687110,-331052,-304648,-360180,-472899
1783265573493512181,2026-07-05T22:32:53.493+07:00,540127148320687110,-330944,-304506,-360098,-472920
1783265573511694000,2026-07-05T22:32:53.511+07:00,540127148320687110,-330772,-304355,-359927,-472916
1783265573529875818,2026-07-05T22:32:53.529+07:00,540127148320687110,-330632,-304252,-359877,-472946
1783265573548057636,2026-07-05T22:32:53.548+07:00,540127148320687110,-330515,-304066,-359769,-472933
1783265573566239454,2026-07-05T22:32:53.566+07:00,540127148320687110,-330277,-303785,-359578,-472856
1783265573584421272,2026-07-05T22:32:53.584+07:00,540127148320687110,-330165,-303720,-359567,-472960
1783265573602603090,2026-07-05T22:32:53.602+07:00,540127148320687110,-330080,-303531,-359380,-472922
1783265573620784909,2026-07-05T22:32:53.620+07:00,540127148320687110,-329937,-303429,-359283,-472892
1783265573638966727,2026-07-05T22:32:53.638+07:00,540127148320687110,-329707,-303171,-359115,-472885
1783265573657148545,2026-07-05T22:32:53.657+07:00,540127148320687110,-329601,-302975,-358980,-472908
1783265573675330363,2026-07-05T22:32:53.675+07:00,540127148320687110,-329437,-302838,-358796,-472886
1783265573693512181,2026-07-05T22:32:53.693+07:00,540127148320687110,-329267,-302612,-358707,-472898
1783265573711694000,2026-07-05T22:32:53.711+07:00,540127148320687110,-329075,-302425,-358581,-472871
1783265573729875818,2026-07-05T22:32:53.729+07:00,540127148320687110,-328959,-302238,-358438,-472874
1783265573748057636,2026-07-05T22:32:53.748+07:00,540127148320687110,-328738,-302026,-358276,-472890
1783265573766239454,2026-07-05T22:32:53.766+07:00,540127148320687110,-328708,-301985,-358227,-472921
1783265573784421272,2026-07-05T22:32:53.784+07:00,540127148320687110,-328906,-302103,-358303,-472891
1783265573802603090,2026-07-05T22:32:53.802+07:00,540127148320687110,-329227,-302491,-358532,-472907
1783265573867048200,2026-07-05T22:32:53.867+07:00,540127149066675205,-329754,-302992,-358895,-472947
1783265573885230018,2026-07-05T22:32:53.885+07:00,540127149066675205,-330281,-303501,-359350,-472925
1783265573903411836,2026-07-05T22:32:53.903+07:00,540127149066675205,-330739,-304019,-359682,-472929
1783265573921593654,2026-07-05T22:32:53.921+07:00,540127149066675205,-331064,-304358,-359933,-472863
1783265573939775472,2026-07-05T22:32:53.939+07:00,540127149066675205,-331448,-304785,-360238,-472862
1783265573957957290,2026-07-05T22:32:53.957+07:00,540127149066675205,-331777,-305115,-360479,-472881
1783265573976139109,2026-07-05T22:32:53.976+07:00,540127149066675205,-331936,-305346,-360591,-472916
1783265573994320927,2026-07-05T22:32:53.994+07:00,540127149066675205,-332190,-305606,-360791,-472936
1783265574012502745,2026-07-05T22:32:54.012+07:00,540127149066675205,-332367,-305685,-360918,-472947
1783265574030684563,2026-07-05T22:32:54.030+07:00,540127149066675205,-332353,-305817,-361000,-472908
1783265574048866381,2026-07-05T22:32:54.048+07:00,540127149066675205,-332409,-305826,-361020,-472887
1783265574067048200,2026-07-05T22:32:54.067+07:00,540127149066675205,-332410,-305872,-361000,-472893
1783265574085230018,2026-07-05T22:32:54.085+07:00,540127149066675205,-332437,-305918,-361073,-472898
1783265574103411836,2026-07-05T22:32:54.103+07:00,540127149066675205,-332384,-305855,-360985,-472858
1783265574121593654,2026-07-05T22:32:54.121+07:00,540127149066675205,-332449,-305968,-361087,-472895
1783265574139775472,2026-07-05T22:32:54.139+07:00,540127149066675205,-332514,-306005,-361131,-472905
1783265574157957290,2026-07-05T22:32:54.157+07:00,540127149066675205,-332526,-305988,-361158,-472935
1783265574176139109,2026-07-05T22:32:54.176+07:00,540127149066675205,-332514,-305993,-361135,-472875
1783265574194320927,2026-07-05T22:32:54.194+07:00,540127149066675205,-332514,-305992,-361057,-472916
1783265574212502745,2026-07-05T22:32:54.212+07:00,540127149066675205,-332399,-305916,-361021,-472905
1783265574230684563,2026-07-05T22:32:54.230+07:00,540127149066675205,-332287,-305809,-360958,-472874
1783265574248866381,2026-07-05T22:32:54.248+07:00,540127149066675205,-332253,-305747,-360884,-472901
1783265574267048200,2026-07-05T22:32:54.267+07:00,540127149066675205,-332237,-305599,-360858,-472879
1783265574285230018,2026-07-05T22:32:54.285+07:00,540127149066675205,-332094,-305507,-360760,-472965
1783265574303411836,2026-07-05T22:32:54.303+07:00,540127149066675205,-332003,-305440,-360688,-472943
1783265574321593654,2026-07-05T22:32:54.321+07:00,540127149066675205,-331857,-305268,-360572,-472901
1783265574339775472,2026-07-05T22:32:54.339+07:00,540127149066675205,-331707,-305158,-360450,-472946
1783265574357957290,2026-07-05T22:32:54.357+07:00,540127149066675205,-331487,-305025,-360374,-472905
1783265574376139109,2026-07-05T22:32:54.376+07:00,540127149066675205,-331402,-304801,-360231,-472952
1783265574394320927,2026-07-05T22:32:54.394+07:00,540127149066675205,-331216,-304623,-360094,-472866
1783265574412502745,2026-07-05T22:32:54.412+07:00,540127149066675205,-331093,-304403,-359970,-472870
1783265574430684563,2026-07-05T22:32:54.430+07:00,540127149066675205,-330954,-304221,-359848,-472890
1783265574448866381,2026-07-05T22:32:54.448+07:00,540127149066675205,-330756,-304078,-359733,-472909
1783265574467048200,2026-07-05T22:32:54.467+07:00,540127149066675205,-330616,-303934,-359609,-472874
1783265574485230018,2026-07-05T22:32:54.485+07:00,540127149066675205,-330477,-303753,-359462,-472821
1783265574503411836,2026-07-05T22:32:54.503+07:00,540127149066675205,-330346,-303580,-359373,-472885
1783265574521593654,2026-07-05T22:32:54.521+07:00,540127149066675205,-330120,-303386,-359204,-472868
1783265574539775472,2026-07-05T22:32:54.539+07:00,540127149066675205,-329944,-303187,-359059,-472850
1783265574557957290,2026-07-05T22:32:54.557+07:00,540127149066675205,-329772,-303045,-358984,-472947
1783265574576139109,2026-07-05T22:32:54.576+07:00,540127149066675205,-329620,-302808,-358813,-472951
1783265574594320927,2026-07-05T22:32:54.594+07:00,540127149066675205,-329488,-302616,-358734,-472973
1783265574675690200,2026-07-05T22:32:54.675+07:00,540127149776261430,-329305,-302446,-358569,-472890
1783265574693872018,2026-07-05T22:32:54.693+07:00,540127149776261430,-329193,-302253,-358466,-472924
1783265574712053836,2026-07-05T22:32:54.712+07:00,540127149776261430,-328987,-302060,-358295,-472884
1783265574730235654,2026-07-05T22:32:54.730+07:00,540127149776261430,-329021,-302086,-358277,-472916
1783265574748417472,2026-07-05T22:32:54.748+07:00,540127149776261430,-329262,-302295,-358446,-472886
1783265574766599290,2026-07-05T22:32:54.766+07:00,540127149776261430,-329647,-302710,-358761,-472860
1783265574784781109,2026-07-05T22:32:54.784+07:00,540127149776261430,-330139,-303258,-359125,-472868
1783265574802962927,2026-07-05T22:32:54.802+07:00,540127149776261430,-330573,-303767,-359488,-472864
1783265574821144745,2026-07-05T22:32:54.821+07:00,540127149776261430,-331093,-304229,-359866,-472912
1783265574839326563,2026-07-05T22:32:54.839+07:00,540127149776261430,-331454,-304598,-360117,-472935
1783265574857508381,2026-07-05T22:32:54.857+07:00,540127149776261430,-331781,-304970,-360384,-472926
1783265574875690200,2026-07-05T22:32:54.875+07:00,540127149776261430,-332018,-305161,-360516,-472903
1783265574893872018,2026-07-05T22:32:54.893+07:00,540127149776261430,-332241,-305508,-360766,-472932
1783265574912053836,2026-07-05T22:32:54.912+07:00,540127149776261430,-332394,-305706,-360938,-472968
1783265574930235654,2026-07-05T22:32:54.930+07:00,540127149776261430,-332514,-305759,-361006,-472895
1783265574948417472,2026-07-05T22:32:54.948+07:00,540127149776261430,-332559,-305867,-361033,-472902
1783265574966599290,2026-07-05T22:32:54.966+07:00,540127149776261430,-332562,-305862,-361141,-472933
1783265574984781109,2026-07-05T22:32:54.984+07:00,540127149776261430,-332511,-305819,-361124,-472853
1783265575002962927,2026-07-05T22:32:55.002+07:00,540127149776261430,-332547,-305981,-361234,-472964
1783265575021144745,2026-07-05T22:32:55.021+07:00,540127149776261430,-332608,-305996,-361276,-472966
1783265575039326563,2026-07-05T22:32:55.039+07:00,540127149776261430,-332521,-305946,-361183,-472914
1783265575057508381,2026-07-05T22:32:55.057+07:00,540127149776261430,-332634,-306062,-361263,-472966
1783265575075690200,2026-07-05T22:32:55.075+07:00,540127149776261430,-332591,-305992,-361244,-472916
1783265575093872018,2026-07-05T22:32:55.093+07:00,540127149776261430,-332622,-305988,-361259,-472916
1783265575112053836,2026-07-05T22:32:55.112+07:00,540127149776261430,-332578,-306002,-361280,-472927
1783265575130235654,2026-07-05T22:32:55.130+07:00,540127149776261430,-332471,-305927,-361197,-472975
1783265575148417472,2026-07-05T22:32:55.148+07:00,540127149776261430,-332344,-305870,-361130,-472925
1783265575166599290,2026-07-05T22:32:55.166+07:00,540127149776261430,-332309,-305840,-361141,-472952
1783265575184781109,2026-07-05T22:32:55.184+07:00,540127149776261430,-332211,-305711,-361042,-472922
1783265575202962927,2026-07-05T22:32:55.202+07:00,540127149776261430,-332135,-305584,-361012,-472882
1783265575221144745,2026-07-05T22:32:55.221+07:00,540127149776261430,-332043,-305499,-360888,-472877
1783265575239326563,2026-07-05T22:32:55.239+07:00,540127149776261430,-331899,-305379,-360772,-472925
1783265575257508381,2026-07-05T22:32:55.257+07:00,540127149776261430,-331796,-305243,-360719,-472900
1783265575275690200,2026-07-05T22:32:55.275+07:00,540127149776261430,-331658,-305093,-360627,-472914
1783265575293872018,2026-07-05T22:32:55.293+07:00,540127149776261430,-331520,-304964,-360545,-472915
1783265575312053836,2026-07-05T22:32:55.312+07:00,540127149776261430,-331386,-304803,-360418,-472918
1783265575330235654,2026-07-05T22:32:55.330+07:00,540127149776261430,-331195,-304628,-360285,-472876
1783265575348417472,2026-07-05T22:32:55.348+07:00,540127149776261430,-331049,-304514,-360206,-472908
1783265575366599290,2026-07-05T22:32:55.366+07:00,540127149776261430,-330921,-304305,-359985,-472873
1783265575282509700,2026-07-05T22:32:55.282+07:00,540127150540441306,-330768,-304140,-359924,-472901
1783265575300691518,2026-07-05T22:32:55.300+07:00,540127150540441306,-330695,-303940,-359804,-472945
1783265575318873336,2026-07-05T22:32:55.318+07:00,540127150540441306,-330563,-303874,-359675,-472960
1783265575337055154,2026-07-05T22:32:55.337+07:00,540127150540441306,-330412,-303651,-359466,-472947
1783265575355236972,2026-07-05T22:32:55.355+07:00,540127150540441306,-330236,-303483,-359359,-472937
1783265575373418790,2026-07-05T22:32:55.373+07:00,540127150540441306,-329999,-303247,-359223,-472935
1783265575391600609,2026-07-05T22:32:55.391+07:00,540127150540441306,-329849,-303084,-359141,-472900
1783265575409782427,2026-07-05T22:32:55.409+07:00,540127150540441306,-329689,-302894,-359013,-472913
1783265575427964245,2026-07-05T22:32:55.427+07:00,540127150540441306,-329577,-302738,-358901,-472894
1783265575446146063,2026-07-05T22:32:55.446+07:00,540127150540441306,-329628,-302785,-358924,-472899
1783265575464327881,2026-07-05T22:32:55.464+07:00,540127150540441306,-329874,-303072,-359068,-472928
1783265575482509700,2026-07-05T22:32:55.482+07:00,540127150540441306,-330236,-303465,-359334,-472905
1783265575500691518,2026-07-05T22:32:55.500+07:00,540127150540441306,-330728,-303895,-359672,-472883
1783265575518873336,2026-07-05T22:32:55.518+07:00,540127150540441306,-331166,-304373,-360029,-472915
1783265575537055154,2026-07-05T22:32:55.537+07:00,540127150540441306,-331612,-304834,-360391,-472909
1783265575555236972,2026-07-05T22:32:55.555+07:00,540127150540441306,-331945,-305226,-360687,-472897
1783265575573418790,2026-07-05T22:32:55.573+07:00,540127150540441306,-332227,-305558,-360946,-472922
1783265575591600609,2026-07-05T22:32:55.591+07:00,540127150540441306,-332573,-305839,-361173,-472986
1783265575609782427,2026-07-05T22:32:55.609+07:00,540127150540441306,-332700,-306038,-361257,-472913
1783265575627964245,2026-07-05T22:32:55.627+07:00,540127150540441306,-332837,-306178,-361363,-472882
1783265575646146063,2026-07-05T22:32:55.646+07:00,540127150540441306,-332893,-306235,-361474,-472933
1783265575664327881,2026-07-05T22:32:55.664+07:00,540127150540441306,-332814,-306259,-361446,-472875
1783265575682509700,2026-07-05T22:32:55.682+07:00,540127150540441306,-332859,-306297,-361526,-472969
1783265575700691518,2026-07-05T22:32:55.700+07:00,540127150540441306,-332849,-306297,-361496,-472908
1783265575718873336,2026-07-05T22:32:55.718+07:00,540127150540441306,-332845,-306285,-361545,-472936
1783265575737055154,2026-07-05T22:32:55.737+07:00,540127150540441306,-332812,-306217,-361494,-472880
1783265575755236972,2026-07-05T22:32:55.755+07:00,540127150540441306,-332803,-306245,-361514,-472928
1783265575773418790,2026-07-05T22:32:55.773+07:00,540127150540441306,-332842,-306294,-361527,-472901
1783265575791600609,2026-07-05T22:32:55.791+07:00,540127150540441306,-332847,-306303,-361511,-472873
1783265575809782427,2026-07-05T22:32:55.809+07:00,540127150540441306,-332729,-306241,-361489,-472848
1783265575827964245,2026-07-05T22:32:55.827+07:00,540127150540441306,-332702,-306199,-361462,-472921
1783265575846146063,2026-07-05T22:32:55.846+07:00,540127150540441306,-332667,-306145,-361477,-472943
1783265575864327881,2026-07-05T22:32:55.864+07:00,540127150540441306,-332509,-306062,-361407,-472911
1783265575882509700,2026-07-05T22:32:55.882+07:00,540127150540441306,-332378,-305928,-361242,-472851
1783265575900691518,2026-07-05T22:32:55.900+07:00,540127150540441306,-332309,-305870,-361275,-472907
1783265575918873336,2026-07-05T22:32:55.918+07:00,540127150540441306,-332145,-305730,-361082,-472884
1783265575937055154,2026-07-05T22:32:55.937+07:00,540127150540441306,-332027,-305542,-360994,-472865
1783265575955236972,2026-07-05T22:32:55.955+07:00,540127150540441306,-331903,-305446,-360954,-472902
1783265575973418790,2026-07-05T22:32:55.973+07:00,540127150540441306,-331763,-305253,-360797,-472874
1783265575991600609,2026-07-05T22:32:55.991+07:00,540127150540441306,-331610,-305098,-360622,-472858
1783265576009782427,2026-07-05T22:32:56.009+07:00,540127150540441306,-331518,-304965,-360587,-472896
1783265576027964245,2026-07-05T22:32:56.027+07:00,540127150540441306,-331369,-304808,-360537,-472907
1783265576077855700,2026-07-05T22:32:56.077+07:00,540127151213665335,-331174,-304559,-360342,-472949
1783265576096037518,2026-07-05T22:32:56.096+07:00,540127151213665335,-331025,-304490,-360243,-472929
1783265576114219336,2026-07-05T22:32:56.114+07:00,540127151213665335,-330848,-304231,-360061,-472900
1783265576132401154,2026-07-05T22:32:56.132+07:00,540127151213665335,-330687,-304029,-359936,-472895
1783265576150582972,2026-07-05T22:32:56.150+07:00,540127151213665335,-330575,-303889,-359824,-472943
1783265576168764790,2026-07-05T22:32:56.168+07:00,540127151213665335,-330370,-303683,-359716,-472920
1783265576186946609,2026-07-05T22:32:56.186+07:00,540127151213665335,-330214,-303512,-359552,-472950
1783265576205128427,2026-07-05T22:32:56.205+07:00,540127151213665335,-330064,-303309,-359425,-472978
1783265576223310245,2026-07-05T22:32:56.223+07:00,540127151213665335,-329896,-303119,-359230,-472943
1783265576241492063,2026-07-05T22:32:56.241+07:00,540127151213665335,-329760,-302932,-359121,-472904
1783265576259673881,2026-07-05T22:32:56.259+07:00,540127151213665335,-329500,-302710,-358973,-472935
1783265576277855700,2026-07-05T22:32:56.277+07:00,540127151213665335,-329331,-302419,-358852,-472898
1783265576296037518,2026-07-05T22:32:56.296+07:00,540127151213665335,-329201,-302362,-358721,-472862
1783265576314219336,2026-07-05T22:32:56.314+07:00,540127151213665335,-329149,-302287,-358695,-472867
1783265576332401154,2026-07-05T22:32:56.332+07:00,540127151213665335,-329362,-302507,-358778,-472924
1783265576350582972,2026-07-05T22:32:56.350+07:00,540127151213665335,-329726,-302863,-359106,-472903
1783265576368764790,2026-07-05T22:32:56.368+07:00,540127151213665335,-330211,-303338,-359473,-472902
1783265576386946609,2026-07-05T22:32:56.386+07:00,540127151213665335,-330677,-303853,-359806,-472918
1783265576405128427,2026-07-05T22:32:56.405+07:00,540127151213665335,-331173,-304278,-360137,-472961
1783265576423310245,2026-07-05T22:32:56.423+07:00,540127151213665335,-331501,-304743,-360421,-472914
1783265576441492063,2026-07-05T22:32:56.441+07:00,540127151213665335,-331849,-305032,-360698,-472934
1783265576459673881,2026-07-05T22:32:56.459+07:00,540127151213665335,-332084,-305308,-360929,-472962
1783265576477855700,2026-07-05T22:32:56.477+07:00,540127151213665335,-332231,-305532,-361041,-472916
1783265576496037518,2026-07-05T22:32:56.496+07:00,540127151213665335,-332412,-305692,-361155,-472897
1783265576514219336,2026-07-05T22:32:56.514+07:00,540127151213665335,-332493,-305805,-361238,-472921
1783265576532401154,2026-07-05T22:32:56.532+07:00,540127151213665335,-332587,-305861,-361369,-472896
1783265576550582972,2026-07-05T22:32:56.550+07:00,540127151213665335,-332560,-305853,-361381,-472963
1783265576568764790,2026-07-05T22:32:56.568+07:00,540127151213665335,-332576,-305901,-361355,-472904
1783265576586946609,2026-07-05T22:32:56.586+07:00,540127151213665335,-332502,-305871,-361320,-472894
1783265576605128427,2026-07-05T22:32:56.605+07:00,540127151213665335,-332609,-305894,-361382,-472945
1783265576623310245,2026-07-05T22:32:56.623+07:00,540127151213665335,-332543,-305884,-361398,-472902
1783265576641492063,2026-07-05T22:32:56.641+07:00,540127151213665335,-332559,-305934,-361424,-472965
1783265576659673881,2026-07-05T22:32:56.659+07:00,540127151213665335,-332588,-305965,-361387,-472973
1783265576677855700,2026-07-05T22:32:56.677+07:00,540127151213665335,-332495,-305875,-361342,-472909
1783265576696037518,2026-07-05T22:32:56.696+07:00,540127151213665335,-332393,-305875,-361306,-472920
1783265576714219336,2026-07-05T22:32:56.714+07:00,540127151213665335,-332364,-305815,-361271,-472943
1783265576732401154,2026-07-05T22:32:56.732+07:00,540127151213665335,-332222,-305734,-361176,-472875
1783265576710215800,2026-07-05T22:32:56.710+07:00,540127151977865045,-332146,-305633,-361166,-472885
1783265576728397618,2026-07-05T22:32:56.728+07:00,540127151977865045,-332085,-305515,-361037,-472945
1783265576746579436,2026-07-05T22:32:56.746+07:00,540127151977865045,-331999,-305333,-361017,-472941
1783265576764761254,2026-07-05T22:32:56.764+07:00,540127151977865045,-331812,-305256,-360889,-472935
1783265576782943072,2026-07-05T22:32:56.782+07:00,540127151977865045,-331624,-305111,-360779,-472901
1783265576801124890,2026-07-05T22:32:56.801+07:00,540127151977865045,-331519,-304931,-360655,-472925
1783265576819306709,2026-07-05T22:32:56.819+07:00,540127151977865045,-331386,-304774,-360531,-472935
1783265576837488527,2026-07-05T22:32:56.837+07:00,540127151977865045,-331244,-304613,-360449,-472941
1783265576855670345,2026-07-05T22:32:56.855+07:00,540127151977865045,-331088,-304437,-360229,-472934
1783265576873852163,2026-07-05T22:32:56.873+07:00,540127151977865045,-330919,-304186,-360144,-472867
1783265576892033981,2026-07-05T22:32:56.892+07:00,540127151977865045,-330770,-304046,-360046,-472908
1783265576910215800,2026-07-05T22:32:56.910+07:00,540127151977865045,-330575,-303890,-359906,-472935
1783265576928397618,2026-07-05T22:32:56.928+07:00,540127151977865045,-330458,-303713,-359760,-472929
1783265576946579436,2026-07-05T22:32:56.946+07:00,540127151977865045,-330239,-303472,-359581,-472903
1783265576964761254,2026-07-05T22:32:56.964+07:00,540127151977865045,-330099,-303260,-359480,-472894
1783265576982943072,2026-07-05T22:32:56.982+07:00,540127151977865045,-329928,-303108,-359342,-472897
1783265577001124890,2026-07-05T22:32:57.001+07:00,540127151977865045,-329775,-302919,-359203,-472846
1783265577019306709,2026-07-05T22:32:57.019+07:00,540127151977865045,-329635,-302727,-359049,-472912
1783265577037488527,2026-07-05T22:32:57.037+07:00,540127151977865045,-329422,-302481,-358909,-472936
1783265577055670345,2026-07-05T22:32:57.055+07:00,540127151977865045,-329230,-302311,-358722,-472948
