host_timestamp_ns,host_timestamp_iso,pmd_timestamp,ppg0,ppg1,ppg2,ambient
1783771344078575360,2026-07-11T19:02:24.078+07:00,837086544489687243,223837,180947,201277,1371
1783771344096757178,2026-07-11T19:02:24.096+07:00,837086544489687243,223903,181051,201321,1362
1783771344114938996,2026-07-11T19:02:24.114+07:00,837086544489687243,224089,181281,201391,1323
1783771344133120814,2026-07-11T19:02:24.133+07:00,837086544489687243,224021,181302,201351,1279
1783771344151302632,2026-07-11T19:02:24.151+07:00,837086544489687243,223829,181181,201177,1338
1783771344169484450,2026-07-11T19:02:24.169+07:00,837086544489687243,223262,180796,200723,1350
1783771344187666268,2026-07-11T19:02:24.187+07:00,837086544489687243,222448,180101,199946,1328
1783771344205848086,2026-07-11T19:02:24.205+07:00,837086544489687243,221576,179386,199188,1336
1783771344224029904,2026-07-11T19:02:24.224+07:00,837086544489687243,220650,178639,198386,1315
1783771344242211722,2026-07-11T19:02:24.242+07:00,837086544489687243,220097,178027,197762,1281
1783771344260393540,2026-07-11T19:02:24.260+07:00,837086544489687243,219638,177693,197383,1321
1783771344278575358,2026-07-11T19:02:24.278+07:00,837086544489687243,219326,177416,197060,1353
1783771344296757176,2026-07-11T19:02:24.296+07:00,837086544489687243,219044,177213,196770,1288
1783771344314938994,2026-07-11T19:02:24.314+07:00,837086544489687243,218902,177065,196663,1348
1783771344333120812,2026-07-11T19:02:24.333+07:00,837086544489687243,218794,176857,196460,1293
1783771344351302630,2026-07-11T19:02:24.351+07:00,837086544489687243,218601,176620,196311,1331
1783771344369484448,2026-07-11T19:02:24.369+07:00,837086544489687243,218396,176462,196084,1331
1783771344387666266,2026-07-11T19:02:24.387+07:00,837086544489687243,218063,176130,195741,1267
1783771344405848084,2026-07-11T19:02:24.405+07:00,837086544489687243,217777,175848,195459,1325
1783771344424029902,2026-07-11T19:02:24.424+07:00,837086544489687243,217438,175541,195133,1277
1783771344442211720,2026-07-11T19:02:24.442+07:00,837086544489687243,217224,175343,194906,1257
1783771344460393538,2026-07-11T19:02:24.460+07:00,837086544489687243,216991,175140,194694,1282
1783771344478575356,2026-07-11T19:02:24.478+07:00,837086544489687243,216780,174968,194555,1309
1783771344496757174,2026-07-11T19:02:24.496+07:00,837086544489687243,216686,174869,194344,1361
1783771344514938992,2026-07-11T19:02:24.514+07:00,837086544489687243,216473,174706,194262,1314
1783771344533120810,2026-07-11T19:02:24.533+07:00,837086544489687243,216295,174535,194047,1344
1783771344551302628,2026-07-11T19:02:24.551+07:00,837086544489687243,216017,174237,193751,1307
1783771344569484446,2026-07-11T19:02:24.569+07:00,837086544489687243,215726,173930,193469,1282
1783771344587666264,2026-07-11T19:02:24.587+07:00,837086544489687243,215263,173487,193039,1256
1783771344605848082,2026-07-11T19:02:24.605+07:00,837086544489687243,214701,172921,192435,1338
1783771344624029900,2026-07-11T19:02:24.624+07:00,837086544489687243,213966,172315,191772,1411
1783771344642211718,2026-07-11T19:02:24.642+07:00,837086544489687243,213315,171755,191159,1389
1783771344660393536,2026-07-11T19:02:24.660+07:00,837086544489687243,212770,171234,190722,1396
1783771344678575354,2026-07-11T19:02:24.678+07:00,837086544489687243,212217,170763,190255,1297
1783771344696757172,2026-07-11T19:02:24.696+07:00,837086544489687243,211901,170529,189968,1321
1783771344714938990,2026-07-11T19:02:24.714+07:00,837086545253896111,211792,170458,189803,1345
1783771344733120808,2026-07-11T19:02:24.733+07:00,837086545253896111,211621,170242,189694,1343
1783771344751302626,2026-07-11T19:02:24.751+07:00,837086545253896111,211572,170229,189746,1304
1783771344769484444,2026-07-11T19:02:24.769+07:00,837086545253896111,211596,170262,189702,1358
1783771344787666262,2026-07-11T19:02:24.787+07:00,837086545253896111,211714,170319,189899,1400
1783771344805848080,2026-07-11T19:02:24.805+07:00,837086545253896111,211713,170349,189881,1338
1783771344824029898,2026-07-11T19:02:24.824+07:00,837086545253896111,211790,170442,190009,1355
1783771344842211716,2026-07-11T19:02:24.842+07:00,837086545253896111,211937,170526,190133,1350
1783771344860393534,2026-07-11T19:02:24.860+07:00,837086545253896111,212058,170655,190225,1290
1783771344878575352,2026-07-11T19:02:24.878+07:00,837086545253896111,212159,170735,190341,1316
1783771344896757170,2026-07-11T19:02:24.896+07:00,837086545253896111,212270,170909,190534,1275
1783771344914938988,2026-07-11T19:02:24.914+07:00,837086545253896111,212532,171211,190785,1328
1783771344933120806,2026-07-11T19:02:24.933+07:00,837086545253896111,212798,171413,191059,1273
1783771344951302624,2026-07-11T19:02:24.951+07:00,837086545253896111,213071,171739,191328,1300
1783771344969484442,2026-07-11T19:02:24.969+07:00,837086545253896111,213339,172073,191628,1336
1783771344987666260,2026-07-11T19:02:24.987+07:00,837086545253896111,213701,172375,192002,1307
1783771345005848078,2026-07-11T19:02:25.005+07:00,837086545253896111,214066,172709,192389,1318
1783771345024029896,2026-07-11T19:02:25.024+07:00,837086545253896111,214421,173071,192732,1340
1783771345042211714,2026-07-11T19:02:25.042+07:00,837086545253896111,214896,173416,193071,1309
1783771345060393532,2026-07-11T19:02:25.060+07:00,837086545253896111,215185,173668,193352,1316
1783771345078575350,2026-07-11T19:02:25.078+07:00,837086545253896111,215345,173791,193454,1386
1783771345096757168,2026-07-11T19:02:25.096+07:00,837086545253896111,215428,173926,193529,1348
1783771345114938986,2026-07-11T19:02:25.114+07:00,837086545253896111,215423,173912,193493,1275
1783771345133120804,2026-07-11T19:02:25.133+07:00,837086545253896111,215533,174126,193572,1384
1783771345151302622,2026-07-11T19:02:25.151+07:00,837086545253896111,215675,174274,193632,1267
1783771345169484440,2026-07-11T19:02:25.169+07:00,837086545253896111,215867,174577,193857,1327
1783771345187666258,2026-07-11T19:02:25.187+07:00,837086545253896111,216159,174805,194108,1330
1783771345205848076,2026-07-11T19:02:25.205+07:00,837086545253896111,216412,175157,194463,1316
1783771345224029894,2026-07-11T19:02:25.224+07:00,837086545253896111,216796,175574,194839,1327
1783771345242211712,2026-07-11T19:02:25.242+07:00,837086545253896111,217132,175912,195171,1306
1783771345260393530,2026-07-11T19:02:25.260+07:00,837086545253896111,217544,176333,195616,1340
1783771345278575348,2026-07-11T19:02:25.278+07:00,837086545253896111,217941,176712,195937,1308
1783771345296757166,2026-07-11T19:02:25.296+07:00,837086545253896111,218294,177103,196304,1316
1783771345314938984,2026-07-11T19:02:25.314+07:00,837086545253896111,218701,177477,196650,1330
1783771345333120802,2026-07-11T19:02:25.333+07:00,837086545253896111,218992,177809,196971,1328
1783771345351302620,2026-07-11T19:02:25.351+07:00,837086545253896111,219353,178134,197304,1360
1783771345369484438,2026-07-11T19:02:25.369+07:00,837086545253896111,219639,178448,197613,1324
1783771345387666256,2026-07-11T19:02:25.387+07:00,837086545253896111,219884,178702,197851,1379
1783771345405848074,2026-07-11T19:02:25.405+07:00,837086545253896111,220133,178940,198075,1320
1783771345424029892,2026-07-11T19:02:25.424+07:00,837086545253896111,220369,179124,198353,1300
1783771345442211710,2026-07-11T19:02:25.442+07:00,837086545253896111,220661,179322,198643,1334
1783771345460393528,2026-07-11T19:02:25.460+07:00,837086545253896111,220922,179459,198778,1355
1783771345478575346,2026-07-11T19:02:25.478+07:00,837086546018173643,221003,179486,198923,1368
1783771345496757164,2026-07-11T19:02:25.496+07:00,837086546018173643,221001,179430,198824,1360
1783771345514938982,2026-07-11T19:02:25.514+07:00,837086546018173643,220883,179336,198693,1370
1783771345533120800,2026-07-11T19:02:25.533+07:00,837086546018173643,220826,179199,198608,1344
1783771345551302618,2026-07-11T19:02:25.551+07:00,837086546018173643,220789,179072,198438,1321
1783771345569484436,2026-07-11T19:02:25.569+07:00,837086546018173643,220801,179034,198473,1316
1783771345587666254,2026-07-11T19:02:25.587+07:00,837086546018173643,220913,179126,198576,1309
1783771345605848072,2026-07-11T19:02:25.605+07:00,837086546018173643,221073,179287,198776,1339
1783771345624029890,2026-07-11T19:02:25.624+07:00,837086546018173643,221279,179437,198980,1350
1783771345642211708,2026-07-11T19:02:25.642+07:00,837086546018173643,221560,179694,199304,1298
1783771345660393526,2026-07-11T19:02:25.660+07:00,837086546018173643,221800,179958,199594,1296
1783771345678575344,2026-07-11T19:02:25.678+07:00,837086546018173643,222091,180233,199860,1320
1783771345696757162,2026-07-11T19:02:25.696+07:00,837086546018173643,222449,180472,200174,1351
1783771345714938980,2026-07-11T19:02:25.714+07:00,837086546018173643,222743,180732,200471,1340
1783771345733120798,2026-07-11T19:02:25.733+07:00,837086546018173643,222877,180883,200629,1319
1783771345751302616,2026-07-11T19:02:25.751+07:00,837086546018173643,223157,181108,200885,1358
1783771345769484434,2026-07-11T19:02:25.769+07:00,837086546018173643,223337,181327,201069,1380
1783771345787666252,2026-07-11T19:02:25.787+07:00,837086546018173643,223573,181520,201298,1315
1783771345805848070,2026-07-11T19:02:25.805+07:00,837086546018173643,223798,181672,201500,1324
1783771345824029888,2026-07-11T19:02:25.824+07:00,837086546018173643,224111,181956,201805,1369
1783771345842211706,2026-07-11T19:02:25.842+07:00,837086546018173643,224329,182193,201945,1361
1783771345860393524,2026-07-11T19:02:25.860+07:00,837086546018173643,224548,182424,202198,1338
1783771345878575342,2026-07-11T19:02:25.878+07:00,837086546018173643,224782,182531,202331,1339
1783771345896757160,2026-07-11T19:02:25.896+07:00,837086546018173643,224753,182462,202191,1309
1783771345914938978,2026-07-11T19:02:25.914+07:00,837086546018173643,224586,182271,201961,1285
1783771345933120796,2026-07-11T19:02:25.933+07:00,837086546018173643,224295,181988,201672,1316
1783771345951302614,2026-07-11T19:02:25.951+07:00,837086546018173643,224018,181733,201308,1389
1783771345969484432,2026-07-11T19:02:25.969+07:00,837086546018173643,223706,181517,201030,1358
1783771345987666250,2026-07-11T19:02:25.987+07:00,837086546018173643,223516,181283,200838,1303
1783771346005848068,2026-07-11T19:02:26.005+07:00,837086546018173643,223454,181226,200747,1330
1783771346024029886,2026-07-11T19:02:26.024+07:00,837086546018173643,223489,181279,200791,1332
1783771346042211704,2026-07-11T19:02:26.042+07:00,837086546018173643,223526,181393,200887,1284
1783771346060393522,2026-07-11T19:02:26.060+07:00,837086546018173643,223725,181508,201070,1348
1783771346078575340,2026-07-11T19:02:26.078+07:00,837086546018173643,223984,181746,201325,1350
1783771346096757158,2026-07-11T19:02:26.096+07:00,837086546018173643,224222,181972,201601,1336
1783771346114938976,2026-07-11T19:02:26.114+07:00,837086546018173643,224460,182225,201835,1288
1783771346133120794,2026-07-11T19:02:26.133+07:00,837086546018173643,224689,182374,202028,1307
1783771346151302612,2026-07-11T19:02:26.151+07:00,837086546018173643,224934,182649,202286,1335
1783771346169484430,2026-07-11T19:02:26.169+07:00,837086546018173643,225111,182745,202351,1291
1783771346187666248,2026-07-11T19:02:26.187+07:00,837086546018173643,225269,182944,202549,1382
1783771346205848066,2026-07-11T19:02:26.205+07:00,837086546018173643,225395,182984,202574,1372
1783771346224029884,2026-07-11T19:02:26.224+07:00,837086546018173643,225484,183036,202626,1317
1783771346242211702,2026-07-11T19:02:26.242+07:00,837086546782452711,225542,183085,202706,1344
1783771346260393520,2026-07-11T19:02:26.260+07:00,837086546782452711,225611,183107,202734,1273
1783771346278575338,2026-07-11T19:02:26.278+07:00,837086546782452711,225730,183248,202843,1341
1783771346296757156,2026-07-11T19:02:26.296+07:00,837086546782452711,225649,183173,202726,1308
1783771346314938974,2026-07-11T19:02:26.314+07:00,837086546782452711,225506,182971,202501,1361
1783771346333120792,2026-07-11T19:02:26.333+07:00,837086546782452711,225102,182579,202013,1316
1783771346351302610,2026-07-11T19:02:26.351+07:00,837086546782452711,224652,182204,201579,1324
1783771346369484428,2026-07-11T19:02:26.369+07:00,837086546782452711,224253,181753,201104,1334
1783771346387666246,2026-07-11T19:02:26.387+07:00,837086546782452711,223962,181464,200755,1350
1783771346405848064,2026-07-11T19:02:26.405+07:00,837086546782452711,223728,181275,200590,1350
1783771346424029882,2026-07-11T19:02:26.424+07:00,837086546782452711,223569,181128,200405,1296
1783771346442211700,2026-07-11T19:02:26.442+07:00,837086546782452711,223624,181126,200454,1362
1783771346460393518,2026-07-11T19:02:26.460+07:00,837086546782452711,223647,181150,200471,1316
1783771346478575336,2026-07-11T19:02:26.478+07:00,837086546782452711,223845,181235,200624,1361
1783771346496757154,2026-07-11T19:02:26.496+07:00,837086546782452711,224048,181438,200820,1360
1783771346514938972,2026-07-11T19:02:26.514+07:00,837086546782452711,224193,181599,200976,1347
1783771346533120790,2026-07-11T19:02:26.533+07:00,837086546782452711,224350,181729,201150,1361
1783771346551302608,2026-07-11T19:02:26.551+07:00,837086546782452711,224552,181961,201342,1355
1783771346569484426,2026-07-11T19:02:26.569+07:00,837086546782452711,224684,181981,201441,1285
1783771346587666244,2026-07-11T19:02:26.587+07:00,837086546782452711,224740,182070,201502,1284
1783771346605848062,2026-07-11T19:02:26.605+07:00,837086546782452711,224857,182117,201556,1395
1783771346624029880,2026-07-11T19:02:26.624+07:00,837086546782452711,224854,182147,201535,1293
1783771346642211698,2026-07-11T19:02:26.642+07:00,837086546782452711,224945,182215,201640,1359
1783771346660393516,2026-07-11T19:02:26.660+07:00,837086546782452711,225032,182267,201707,1303
1783771346678575334,2026-07-11T19:02:26.678+07:00,837086546782452711,225088,182357,201766,1300
1783771346696757152,2026-07-11T19:02:26.696+07:00,837086546782452711,225306,182581,201993,1335
1783771346714938970,2026-07-11T19:02:26.714+07:00,837086546782452711,225371,182576,201986,1338
1783771346733120788,2026-07-11T19:02:26.733+07:00,837086546782452711,225254,182503,201905,1340
1783771346751302606,2026-07-11T19:02:26.751+07:00,837086546782452711,224936,182164,201576,1389
1783771346769484424,2026-07-11T19:02:26.769+07:00,837086546782452711,224523,181838,201130,1362
1783771346787666242,2026-07-11T19:02:26.787+07:00,837086546782452711,224071,181446,200634,1361
1783771346805848060,2026-07-11T19:02:26.805+07:00,837086546782452711,223757,181007,200292,1350
1783771346824029878,2026-07-11T19:02:26.824+07:00,837086546782452711,223473,180780,199947,1316
1783771346842211696,2026-07-11T19:02:26.842+07:00,837086546782452711,223289,180612,199753,1308
1783771346860393514,2026-07-11T19:02:26.860+07:00,837086546782452711,223215,180550,199710,1347
1783771346878575332,2026-07-11T19:02:26.878+07:00,837086546782452711,223269,180540,199659,1330
1783771346896757150,2026-07-11T19:02:26.896+07:00,837086546782452711,223338,180614,199773,1340
1783771346914938968,2026-07-11T19:02:26.914+07:00,837086546782452711,223426,180712,199868,1300
1783771346933120786,2026-07-11T19:02:26.933+07:00,837086546782452711,223627,180846,200065,1328
1783771346951302604,2026-07-11T19:02:26.951+07:00,837086546782452711,223808,180993,200267,1313
1783771346969484422,2026-07-11T19:02:26.969+07:00,837086546782452711,223928,181118,200385,1335
1783771346987666240,2026-07-11T19:02:26.987+07:00,837086546782452711,224103,181261,200567,1308
1783771347005848058,2026-07-11T19:02:27.005+07:00,837086547546733295,224222,181349,200698,1332
1783771347024029876,2026-07-11T19:02:27.024+07:00,837086547546733295,224344,181438,200753,1319
1783771347042211694,2026-07-11T19:02:27.042+07:00,837086547546733295,224400,181502,200864,1341
1783771347060393512,2026-07-11T19:02:27.060+07:00,837086547546733295,224523,181600,200924,1365
1783771347078575330,2026-07-11T19:02:27.078+07:00,837086547546733295,224576,181690,201056,1342
1783771347096757148,2026-07-11T19:02:27.096+07:00,837086547546733295,224716,181769,201134,1350
1783771347114938966,2026-07-11T19:02:27.114+07:00,837086547546733295,224892,181910,201416,1384
1783771347133120784,2026-07-11T19:02:27.133+07:00,837086547546733295,224972,181980,201439,1336
1783771347151302602,2026-07-11T19:02:27.151+07:00,837086547546733295,225050,182047,201419,1388
1783771347169484420,2026-07-11T19:02:27.169+07:00,837086547546733295,224778,181831,201187,1321
1783771347187666238,2026-07-11T19:02:27.187+07:00,837086547546733295,224388,181539,200884,1357
1783771347205848056,2026-07-11T19:02:27.205+07:00,837086547546733295,224008,181105,200430,1350
1783771347224029874,2026-07-11T19:02:27.224+07:00,837086547546733295,223621,180736,200027,1330
1783771347242211692,2026-07-11T19:02:27.242+07:00,837086547546733295,223406,180542,199862,1327
1783771347260393510,2026-07-11T19:02:27.260+07:00,837086547546733295,223175,180391,199634,1277
1783771347278575328,2026-07-11T19:02:27.278+07:00,837086547546733295,223131,180322,199621,1285
1783771347296757146,2026-07-11T19:02:27.296+07:00,837086547546733295,223194,180382,199639,1347
1783771347314938964,2026-07-11T19:02:27.314+07:00,837086547546733295,223228,180432,199793,1369
1783771347333120782,2026-07-11T19:02:27.333+07:00,837086547546733295,223482,180563,199942,1373
1783771347351302600,2026-07-11T19:02:27.351+07:00,837086547546733295,223578,180716,200148,1341
1783771347369484418,2026-07-11T19:02:27.369+07:00,837086547546733295,223778,180823,200311,1393
1783771347387666236,2026-07-11T19:02:27.387+07:00,837086547546733295,223979,180992,200501,1360
1783771347405848054,2026-07-11T19:02:27.405+07:00,837086547546733295,224104,181156,200678,1330
1783771347424029872,2026-07-11T19:02:27.424+07:00,837086547546733295,224218,181287,200780,1343
1783771347442211690,2026-07-11T19:02:27.442+07:00,837086547546733295,224303,181423,200918,1382
1783771347460393508,2026-07-11T19:02:27.460+07:00,837086547546733295,224412,181495,200992,1396
1783771347478575326,2026-07-11T19:02:27.478+07:00,837086547546733295,224511,181548,201079,1340
1783771347496757144,2026-07-11T19:02:27.496+07:00,837086547546733295,224537,181627,201144,1326
1783771347514938962,2026-07-11T19:02:27.514+07:00,837086547546733295,224699,181739,201317,1344
1783771347533120780,2026-07-11T19:02:27.533+07:00,837086547546733295,224781,181835,201429,1286
1783771347551302598,2026-07-11T19:02:27.551+07:00,837086547546733295,224965,181973,201593,1321
1783771347569484416,2026-07-11T19:02:27.569+07:00,837086547546733295,225064,182093,201754,1344
1783771347587666234,2026-07-11T19:02:27.587+07:00,837086547546733295,224996,181997,201689,1345
1783771347605848052,2026-07-11T19:02:27.605+07:00,837086547546733295,224786,181804,201436,1340
1783771347624029870,2026-07-11T19:02:27.624+07:00,837086547546733295,224354,181410,201031,1323
1783771347642211688,2026-07-11T19:02:27.642+07:00,837086547546733295,223989,181087,200618,1347
1783771347660393506,2026-07-11T19:02:27.660+07:00,837086547546733295,223633,180788,200371,1336
1783771347678575324,2026-07-11T19:02:27.678+07:00,837086547546733295,223416,180572,200154,1344
1783771347696757142,2026-07-11T19:02:27.696+07:00,837086547546733295,223367,180487,200055,1353
1783771347714938960,2026-07-11T19:02:27.714+07:00,837086547546733295,223325,180484,200017,1367
1783771347733120778,2026-07-11T19:02:27.733+07:00,837086547546733295,223393,180525,200078,1333
1783771347751302596,2026-07-11T19:02:27.751+07:00,837086547546733295,223525,180579,200196,1326
1783771347769484414,2026-07-11T19:02:27.769+07:00,837086548311013879,223708,180761,200430,1373
1783771347787666232,2026-07-11T19:02:27.787+07:00,837086548311013879,223901,181008,200675,1356
1783771347805848050,2026-07-11T19:02:27.805+07:00,837086548311013879,224014,181152,200853,1358
1783771347824029868,2026-07-11T19:02:27.824+07:00,837086548311013879,224258,181353,201050,1389
1783771347842211686,2026-07-11T19:02:27.842+07:00,837086548311013879,224397,181434,201204,1392
1783771347860393504,2026-07-11T19:02:27.860+07:00,837086548311013879,224499,181524,201281,1353
1783771347878575322,2026-07-11T19:02:27.878+07:00,837086548311013879,224645,181675,201418,1354
1783771347896757140,2026-07-11T19:02:27.896+07:00,837086548311013879,224737,181755,201538,1324
1783771347914938958,2026-07-11T19:02:27.914+07:00,837086548311013879,224830,181854,201649,1360
1783771347933120776,2026-07-11T19:02:27.933+07:00,837086548311013879,224925,181971,201803,1328
1783771347951302594,2026-07-11T19:02:27.951+07:00,837086548311013879,225093,182074,201915,1333
1783771347969484412,2026-07-11T19:02:27.969+07:00,837086548311013879,225285,182222,202097,1307
1783771347987666230,2026-07-11T19:02:27.987+07:00,837086548311013879,225402,182365,202293,1365
1783771348005848048,2026-07-11T19:02:28.005+07:00,837086548311013879,225491,182410,202332,1321
1783771348024029866,2026-07-11T19:02:28.024+07:00,837086548311013879,225430,182406,202351,1296
1783771348042211684,2026-07-11T19:02:28.042+07:00,837086548311013879,225119,182145,202072,1286
1783771348060393502,2026-07-11T19:02:28.060+07:00,837086548311013879,224811,181925,201767,1324
1783771348078575320,2026-07-11T19:02:28.078+07:00,837086548311013879,224536,181584,201527,1367
1783771348096757138,2026-07-11T19:02:28.096+07:00,837086548311013879,224334,181377,201373,1378
1783771348114938956,2026-07-11T19:02:28.114+07:00,837086548311013879,224214,181254,201160,1349
1783771348133120774,2026-07-11T19:02:28.133+07:00,837086548311013879,224138,181293,201203,1341
1783771348151302592,2026-07-11T19:02:28.151+07:00,837086548311013879,224168,181296,201271,1319
1783771348169484410,2026-07-11T19:02:28.169+07:00,837086548311013879,224300,181399,201399,1350
1783771348187666228,2026-07-11T19:02:28.187+07:00,837086548311013879,224491,181542,201581,1291
1783771348205848046,2026-07-11T19:02:28.205+07:00,837086548311013879,224673,181674,201791,1304
1783771348224029864,2026-07-11T19:02:28.224+07:00,837086548311013879,224921,181854,202034,1366
1783771348242211682,2026-07-11T19:02:28.242+07:00,837086548311013879,225090,182069,202200,1335
1783771348260393500,2026-07-11T19:02:28.260+07:00,837086548311013879,225200,182183,202310,1324
1783771348278575318,2026-07-11T19:02:28.278+07:00,837086548311013879,225374,182394,202514,1341
1783771348296757136,2026-07-11T19:02:28.296+07:00,837086548311013879,225529,182505,202611,1345
1783771348314938954,2026-07-11T19:02:28.314+07:00,837086548311013879,225681,182588,202760,1359
1783771348333120772,2026-07-11T19:02:28.333+07:00,837086548311013879,225720,182658,202847,1360
1783771348351302590,2026-07-11T19:02:28.351+07:00,837086548311013879,225817,182729,202918,1339
1783771348369484408,2026-07-11T19:02:28.369+07:00,837086548311013879,225973,182879,203127,1367
1783771348387666226,2026-07-11T19:02:28.387+07:00,837086548311013879,226078,182964,203311,1315
1783771348405848044,2026-07-11T19:02:28.405+07:00,837086548311013879,226168,183106,203501,1336
1783771348424029862,2026-07-11T19:02:28.424+07:00,837086548311013879,226370,183285,203658,1355
1783771348442211680,2026-07-11T19:02:28.442+07:00,837086548311013879,226405,183288,203681,1374
1783771348460393498,2026-07-11T19:02:28.460+07:00,837086548311013879,226304,183246,203560,1351
1783771348478575316,2026-07-11T19:02:28.478+07:00,837086548311013879,226004,182998,203304,1303
1783771348496757134,2026-07-11T19:02:28.496+07:00,837086548311013879,225746,182769,203114,1307
1783771348514938952,2026-07-11T19:02:28.514+07:00,837086548311013879,225522,182500,202953,1332
1783771348533120770,2026-07-11T19:02:28.533+07:00,837086549075324981,225328,182387,202779,1326
1783771348551302588,2026-07-11T19:02:28.551+07:00,837086549075324981,225294,182312,202737,1390
1783771348569484406,2026-07-11T19:02:28.569+07:00,837086549075324981,225322,182318,202792,1361
1783771348587666224,2026-07-11T19:02:28.587+07:00,837086549075324981,225412,182443,202952,1391
1783771348605848042,2026-07-11T19:02:28.605+07:00,837086549075324981,225606,182581,203187,1338
1783771348624029860,2026-07-11T19:02:28.624+07:00,837086549075324981,225750,182729,203375,1331
1783771348642211678,2026-07-11T19:02:28.642+07:00,837086549075324981,225920,182921,203548,1274
1783771348660393496,2026-07-11T19:02:28.660+07:00,837086549075324981,226144,183136,203814,1288
1783771348678575314,2026-07-11T19:02:28.678+07:00,837086549075324981,226302,183316,204021,1248
1783771348696757132,2026-07-11T19:02:28.696+07:00,837086549075324981,226514,183480,204253,1280
1783771348714938950,2026-07-11T19:02:28.714+07:00,837086549075324981,226625,183616,204345,1291
1783771348733120768,2026-07-11T19:02:28.733+07:00,837086549075324981,226758,183738,204479,1357
1783771348751302586,2026-07-11T19:02:28.751+07:00,837086549075324981,226890,183852,204610,1374
1783771348769484404,2026-07-11T19:02:28.769+07:00,837086549075324981,226963,183973,204628,1315
1783771348787666222,2026-07-11T19:02:28.787+07:00,837086549075324981,227058,184043,204795,1322
1783771348805848040,2026-07-11T19:02:28.805+07:00,837086549075324981,227217,184192,204995,1345
1783771348824029858,2026-07-11T19:02:28.824+07:00,837086549075324981,227404,184344,205162,1353
1783771348842211676,2026-07-11T19:02:28.842+07:00,837086549075324981,227593,184568,205324,1383
1783771348860393494,2026-07-11T19:02:28.860+07:00,837086549075324981,227739,184675,205524,1375
1783771348878575312,2026-07-11T19:02:28.878+07:00,837086549075324981,227808,184722,205566,1365
1783771348896757130,2026-07-11T19:02:28.896+07:00,837086549075324981,227730,184669,205484,1388
1783771348914938948,2026-07-11T19:02:28.914+07:00,837086549075324981,227520,184477,205269,1359
1783771348933120766,2026-07-11T19:02:28.933+07:00,837086549075324981,227247,184191,205030,1378
1783771348951302584,2026-07-11T19:02:28.951+07:00,837086549075324981,226924,183967,204795,1379
1783771348969484402,2026-07-11T19:02:28.969+07:00,837086549075324981,226681,183767,204625,1338
1783771348987666220,2026-07-11T19:02:28.987+07:00,837086549075324981,226614,183664,204553,1341
1783771349005848038,2026-07-11T19:02:29.005+07:00,837086549075324981,226548,183633,204590,1348
1783771349024029856,2026-07-11T19:02:29.024+07:00,837086549075324981,226631,183783,204716,1368
1783771349042211674,2026-07-11T19:02:29.042+07:00,837086549075324981,226765,183891,204887,1344
1783771349060393492,2026-07-11T19:02:29.060+07:00,837086549075324981,226990,184064,205041,1320
1783771349078575310,2026-07-11T19:02:29.078+07:00,837086549075324981,227124,184272,205256,1317
1783771349096757128,2026-07-11T19:02:29.096+07:00,837086549075324981,227312,184403,205404,1299
1783771349114938946,2026-07-11T19:02:29.114+07:00,837086549075324981,227497,184579,205643,1321
1783771349133120764,2026-07-11T19:02:29.133+07:00,837086549075324981,227645,184731,205761,1332
1783771349151302582,2026-07-11T19:02:29.151+07:00,837086549075324981,227661,184791,205836,1289
1783771349169484400,2026-07-11T19:02:29.169+07:00,837086549075324981,227764,184895,205965,1299
1783771349187666218,2026-07-11T19:02:29.187+07:00,837086549075324981,227948,185004,206074,1344
1783771349205848036,2026-07-11T19:02:29.205+07:00,837086549075324981,228000,185159,206188,1358
1783771349224029854,2026-07-11T19:02:29.224+07:00,837086549075324981,228093,185216,206340,1343
1783771349242211672,2026-07-11T19:02:29.242+07:00,837086549075324981,228193,185279,206407,1311
1783771349260393490,2026-07-11T19:02:29.260+07:00,837086549075324981,228348,185380,206501,1267
1783771349278575308,2026-07-11T19:02:29.278+07:00,837086549075324981,228445,185473,206581,1316
1783771349296757126,2026-07-11T19:02:29.296+07:00,837086549839636083,228587,185682,206916,1309
1783771349314938944,2026-07-11T19:02:29.314+07:00,837086549839636083,228802,185813,206991,1311
1783771349333120762,2026-07-11T19:02:29.333+07:00,837086549839636083,228825,185771,207068,1382
1783771349351302580,2026-07-11T19:02:29.351+07:00,837086549839636083,228633,185663,206875,1375
1783771349369484398,2026-07-11T19:02:29.369+07:00,837086549839636083,228372,185402,206664,1445
1783771349387666216,2026-07-11T19:02:29.387+07:00,837086549839636083,228063,185084,206326,1365
1783771349405848034,2026-07-11T19:02:29.405+07:00,837086549839636083,227753,184816,206084,1315
1783771349424029852,2026-07-11T19:02:29.424+07:00,837086549839636083,227579,184620,205967,1323
1783771349442211670,2026-07-11T19:02:29.442+07:00,837086549839636083,227487,184642,205940,1345
1783771349460393488,2026-07-11T19:02:29.460+07:00,837086549839636083,227437,184623,205915,1330
1783771349478575306,2026-07-11T19:02:29.478+07:00,837086549839636083,227537,184728,205930,1315
1783771349496757124,2026-07-11T19:02:29.496+07:00,837086549839636083,227641,184869,206102,1321
1783771349514938942,2026-07-11T19:02:29.514+07:00,837086549839636083,227777,184938,206245,1262
1783771349533120760,2026-07-11T19:02:29.533+07:00,837086549839636083,227931,185121,206457,1323
1783771349551302578,2026-07-11T19:02:29.551+07:00,837086549839636083,228217,185320,206693,1336
1783771349569484396,2026-07-11T19:02:29.569+07:00,837086549839636083,228303,185402,206787,1301
1783771349587666214,2026-07-11T19:02:29.587+07:00,837086549839636083,228427,185567,206886,1273
1783771349605848032,2026-07-11T19:02:29.605+07:00,837086549839636083,228576,185668,207040,1367
1783771349624029850,2026-07-11T19:02:29.624+07:00,837086549839636083,228646,185749,207130,1331
1783771349642211668,2026-07-11T19:02:29.642+07:00,837086549839636083,228684,185890,207237,1330
1783771349660393486,2026-07-11T19:02:29.660+07:00,837086549839636083,228832,185952,207402,1391
1783771349678575304,2026-07-11T19:02:29.678+07:00,837086549839636083,228850,186035,207466,1395
1783771349696757122,2026-07-11T19:02:29.696+07:00,837086549839636083,228969,186117,207518,1371
1783771349714938940,2026-07-11T19:02:29.714+07:00,837086549839636083,229109,186235,207736,1289
1783771349733120758,2026-07-11T19:02:29.733+07:00,837086549839636083,229290,186391,207866,1311
1783771349751302576,2026-07-11T19:02:29.751+07:00,837086549839636083,229418,186521,208043,1314
1783771349769484394,2026-07-11T19:02:29.769+07:00,837086549839636083,229636,186648,208227,1330
1783771349787666212,2026-07-11T19:02:29.787+07:00,837086549839636083,229705,186762,208277,1326
1783771349805848030,2026-07-11T19:02:29.805+07:00,837086549839636083,229556,186637,208111,1287
1783771349824029848,2026-07-11T19:02:29.824+07:00,837086549839636083,229374,186391,207916,1344
1783771349842211666,2026-07-11T19:02:29.842+07:00,837086549839636083,229010,186135,207648,1316
1783771349860393484,2026-07-11T19:02:29.860+07:00,837086549839636083,228739,185886,207411,1275
1783771349878575302,2026-07-11T19:02:29.878+07:00,837086549839636083,228519,185704,207239,1291
1783771349896757120,2026-07-11T19:02:29.896+07:00,837086549839636083,228376,185590,207150,1338
1783771349914938938,2026-07-11T19:02:29.914+07:00,837086549839636083,228308,185582,207129,1330
1783771349933120756,2026-07-11T19:02:29.933+07:00,837086549839636083,228417,185654,207228,1321
1783771349951302574,2026-07-11T19:02:29.951+07:00,837086549839636083,228507,185760,207368,1308
1783771349969484392,2026-07-11T19:02:29.969+07:00,837086549839636083,228667,185902,207474,1298
1783771349987666210,2026-07-11T19:02:29.987+07:00,837086549839636083,228831,186073,207667,1324
1783771350005848028,2026-07-11T19:02:30.005+07:00,837086549839636083,229026,186228,207807,1348
1783771350024029846,2026-07-11T19:02:30.024+07:00,837086549839636083,229174,186371,208002,1297
1783771350042211664,2026-07-11T19:02:30.042+07:00,837086549839636083,229263,186498,208067,1314
1783771350060393482,2026-07-11T19:02:30.060+07:00,837086550603899881,229400,186639,208252,1336
1783771350078575300,2026-07-11T19:02:30.078+07:00,837086550603899881,229535,186729,208394,1333
1783771350096757118,2026-07-11T19:02:30.096+07:00,837086550603899881,229545,186726,208415,1331
1783771350114938936,2026-07-11T19:02:30.114+07:00,837086550603899881,229662,186914,208506,1352
1783771350133120754,2026-07-11T19:02:30.133+07:00,837086550603899881,229721,186930,208611,1343
1783771350151302572,2026-07-11T19:02:30.151+07:00,837086550603899881,229841,187079,208715,1359
1783771350169484390,2026-07-11T19:02:30.169+07:00,837086550603899881,229915,187118,208836,1348
1783771350187666208,2026-07-11T19:02:30.187+07:00,837086550603899881,230117,187365,208973,1349
1783771350205848026,2026-07-11T19:02:30.205+07:00,837086550603899881,230299,187528,209132,1361
1783771350224029844,2026-07-11T19:02:30.224+07:00,837086550603899881,230390,187626,209309,1298
1783771350242211662,2026-07-11T19:02:30.242+07:00,837086550603899881,230607,187798,209494,1340
1783771350260393480,2026-07-11T19:02:30.260+07:00,837086550603899881,230551,187687,209416,1311
1783771350278575298,2026-07-11T19:02:30.278+07:00,837086550603899881,230472,187531,209237,1336
1783771350296757116,2026-07-11T19:02:30.296+07:00,837086550603899881,230176,187274,208958,1315
1783771350314938934,2026-07-11T19:02:30.314+07:00,837086550603899881,229790,186978,208718,1315
1783771350333120752,2026-07-11T19:02:30.333+07:00,837086550603899881,229459,186793,208432,1282
1783771350351302570,2026-07-11T19:02:30.351+07:00,837086550603899881,229253,186648,208249,1290
1783771350369484388,2026-07-11T19:02:30.369+07:00,837086550603899881,229159,186477,208131,1347
1783771350387666206,2026-07-11T19:02:30.387+07:00,837086550603899881,229098,186534,208091,1365
1783771350405848024,2026-07-11T19:02:30.405+07:00,837086550603899881,229159,186561,208153,1336
1783771350424029842,2026-07-11T19:02:30.424+07:00,837086550603899881,229241,186686,208394,1362
1783771350442211660,2026-07-11T19:02:30.442+07:00,837086550603899881,229467,186849,208557,1342
1783771350460393478,2026-07-11T19:02:30.460+07:00,837086550603899881,229596,187060,208760,1301
1783771350478575296,2026-07-11T19:02:30.478+07:00,837086550603899881,229777,187180,208849,1299
1783771350496757114,2026-07-11T19:02:30.496+07:00,837086550603899881,229920,187293,209058,1374
1783771350514938932,2026-07-11T19:02:30.514+07:00,837086550603899881,230075,187421,209173,1348
1783771350533120750,2026-07-11T19:02:30.533+07:00,837086550603899881,230227,187577,209283,1327
1783771350551302568,2026-07-11T19:02:30.551+07:00,837086550603899881,230283,187634,209354,1320
1783771350569484386,2026-07-11T19:02:30.569+07:00,837086550603899881,230394,187705,209435,1331
1783771350587666204,2026-07-11T19:02:30.587+07:00,837086550603899881,230429,187795,209551,1341
1783771350605848022,2026-07-11T19:02:30.605+07:00,837086550603899881,230511,187863,209606,1345
1783771350624029840,2026-07-11T19:02:30.624+07:00,837086550603899881,230655,187985,209772,1399
1783771350642211658,2026-07-11T19:02:30.642+07:00,837086550603899881,230759,188158,209861,1314
1783771350660393476,2026-07-11T19:02:30.660+07:00,837086550603899881,230907,188236,210012,1323
1783771350678575294,2026-07-11T19:02:30.678+07:00,837086550603899881,231081,188448,210138,1322
1783771350696757112,2026-07-11T19:02:30.696+07:00,837086550603899881,231243,188558,210378,1318
1783771350714938930,2026-07-11T19:02:30.714+07:00,837086550603899881,231435,188726,210545,1345
1783771350733120748,2026-07-11T19:02:30.733+07:00,837086550603899881,231403,188621,210456,1319
1783771350751302566,2026-07-11T19:02:30.751+07:00,837086550603899881,231173,188460,210251,1321
1783771350769484384,2026-07-11T19:02:30.769+07:00,837086550603899881,230930,188214,210012,1335
1783771350787666202,2026-07-11T19:02:30.787+07:00,837086550603899881,230653,187958,209729,1289
1783771350805848020,2026-07-11T19:02:30.805+07:00,837086550603899881,230321,187748,209484,1327
1783771350824029838,2026-07-11T19:02:30.824+07:00,837086551368157575,230125,187563,209340,1350
1783771350842211656,2026-07-11T19:02:30.842+07:00,837086551368157575,230058,187529,209284,1340
1783771350860393474,2026-07-11T19:02:30.860+07:00,837086551368157575,230089,187502,209345,1409
1783771350878575292,2026-07-11T19:02:30.878+07:00,837086551368157575,230122,187692,209462,1359
1783771350896757110,2026-07-11T19:02:30.896+07:00,837086551368157575,230264,187800,209551,1376
1783771350914938928,2026-07-11T19:02:30.914+07:00,837086551368157575,230438,188029,209756,1388
1783771350933120746,2026-07-11T19:02:30.933+07:00,837086551368157575,230595,188155,209902,1371
1783771350951302564,2026-07-11T19:02:30.951+07:00,837086551368157575,230712,188328,210050,1341
1783771350969484382,2026-07-11T19:02:30.969+07:00,837086551368157575,230912,188439,210162,1377
1783771350987666200,2026-07-11T19:02:30.987+07:00,837086551368157575,231048,188567,210333,1384
1783771351005848018,2026-07-11T19:02:31.005+07:00,837086551368157575,231109,188691,210467,1359
1783771351024029836,2026-07-11T19:02:31.024+07:00,837086551368157575,231201,188689,210526,1280
1783771351042211654,2026-07-11T19:02:31.042+07:00,837086551368157575,231288,188803,210588,1334
1783771351060393472,2026-07-11T19:02:31.060+07:00,837086551368157575,231312,188839,210640,1315
1783771351078575290,2026-07-11T19:02:31.078+07:00,837086551368157575,231403,188928,210710,1319
1783771351096757108,2026-07-11T19:02:31.096+07:00,837086551368157575,231557,189067,210801,1332
1783771351114938926,2026-07-11T19:02:31.114+07:00,837086551368157575,231632,189154,210927,1319
1783771351133120744,2026-07-11T19:02:31.133+07:00,837086551368157575,231786,189321,211071,1305
1783771351151302562,2026-07-11T19:02:31.151+07:00,837086551368157575,231871,189416,211227,1306
1783771351169484380,2026-07-11T19:02:31.169+07:00,837086551368157575,232109,189592,211451,1336
1783771351187666198,2026-07-11T19:02:31.187+07:00,837086551368157575,232235,189646,211513,1368
1783771351205848016,2026-07-11T19:02:31.205+07:00,837086551368157575,232282,189689,211529,1377
1783771351224029834,2026-07-11T19:02:31.224+07:00,837086551368157575,232086,189557,211328,1368
1783771351242211652,2026-07-11T19:02:31.242+07:00,837086551368157575,231777,189281,211000,1387
1783771351260393470,2026-07-11T19:02:31.260+07:00,837086551368157575,231348,188947,210654,1344
1783771351278575288,2026-07-11T19:02:31.278+07:00,837086551368157575,231079,188698,210355,1333
1783771351296757106,2026-07-11T19:02:31.296+07:00,837086551368157575,230848,188554,210240,1400
1783771351314938924,2026-07-11T19:02:31.314+07:00,837086551368157575,230741,188456,210078,1431
1783771351333120742,2026-07-11T19:02:31.333+07:00,837086551368157575,230676,188457,210050,1386
1783771351351302560,2026-07-11T19:02:31.351+07:00,837086551368157575,230672,188434,210101,1375
1783771351369484378,2026-07-11T19:02:31.369+07:00,837086551368157575,230799,188638,210281,1351
1783771351387666196,2026-07-11T19:02:31.387+07:00,837086551368157575,230901,188715,210446,1332
1783771351405848014,2026-07-11T19:02:31.405+07:00,837086551368157575,231040,188885,210546,1344
1783771351424029832,2026-07-11T19:02:31.424+07:00,837086551368157575,231200,189023,210707,1273
1783771351442211650,2026-07-11T19:02:31.442+07:00,837086551368157575,231374,189230,210827,1344
1783771351460393468,2026-07-11T19:02:31.460+07:00,837086551368157575,231530,189333,210953,1395
1783771351478575286,2026-07-11T19:02:31.478+07:00,837086551368157575,231565,189378,211012,1339
1783771351496757104,2026-07-11T19:02:31.496+07:00,837086551368157575,231671,189435,211122,1378
1783771351514938922,2026-07-11T19:02:31.514+07:00,837086551368157575,231759,189542,211174,1390
1783771351533120740,2026-07-11T19:02:31.533+07:00,837086551368157575,231761,189599,211302,1333
1783771351551302558,2026-07-11T19:02:31.551+07:00,837086551368157575,231872,189677,211376,1309
1783771351569484376,2026-07-11T19:02:31.569+07:00,837086551368157575,232018,189788,211450,1362
1783771351587666194,2026-07-11T19:02:31.587+07:00,837086552077804838,232088,189883,211559,1350
1783771351605848012,2026-07-11T19:02:31.605+07:00,837086552077804838,232245,189968,211677,1387
1783771351624029830,2026-07-11T19:02:31.624+07:00,837086552077804838,232318,190144,211838,1331
1783771351642211648,2026-07-11T19:02:31.642+07:00,837086552077804838,232576,190286,211992,1376
1783771351660393466,2026-07-11T19:02:31.660+07:00,837086552077804838,232708,190447,212140,1377
1783771351678575284,2026-07-11T19:02:31.678+07:00,837086552077804838,232658,190434,212088,1379
1783771351696757102,2026-07-11T19:02:31.696+07:00,837086552077804838,232511,190272,211914,1386
1783771351714938920,2026-07-11T19:02:31.714+07:00,837086552077804838,232189,189966,211614,1332
1783771351733120738,2026-07-11T19:02:31.733+07:00,837086552077804838,231753,189686,211219,1365
1783771351751302556,2026-07-11T19:02:31.751+07:00,837086552077804838,231442,189388,210838,1416
1783771351769484374,2026-07-11T19:02:31.769+07:00,837086552077804838,231155,189127,210600,1422
1783771351787666192,2026-07-11T19:02:31.787+07:00,837086552077804838,230962,189026,210368,1377
1783771351805848010,2026-07-11T19:02:31.805+07:00,837086552077804838,230775,188925,210239,1349
1783771351824029828,2026-07-11T19:02:31.824+07:00,837086552077804838,230809,188947,210241,1378
1783771351842211646,2026-07-11T19:02:31.842+07:00,837086552077804838,230903,189023,210363,1407
1783771351860393464,2026-07-11T19:02:31.860+07:00,837086552077804838,231038,189164,210519,1409
1783771351878575282,2026-07-11T19:02:31.878+07:00,837086552077804838,231119,189253,210551,1409
1783771351896757100,2026-07-11T19:02:31.896+07:00,837086552077804838,231242,189397,210685,1332
1783771351914938918,2026-07-11T19:02:31.914+07:00,837086552077804838,231357,189453,210862,1370
1783771351933120736,2026-07-11T19:02:31.933+07:00,837086552077804838,231463,189547,210944,1387
1783771351951302554,2026-07-11T19:02:31.951+07:00,837086552077804838,231562,189603,211042,1390
1783771351969484372,2026-07-11T19:02:31.969+07:00,837086552077804838,231541,189649,211048,1349
1783771351987666190,2026-07-11T19:02:31.987+07:00,837086552077804838,231601,189808,211040,1328
1783771352005848008,2026-07-11T19:02:32.005+07:00,837086552077804838,231612,189754,211034,1328
1783771352024029826,2026-07-11T19:02:32.024+07:00,837086552077804838,231706,189850,211152,1348
1783771352042211644,2026-07-11T19:02:32.042+07:00,837086552077804838,231768,189927,211201,1379
1783771352060393462,2026-07-11T19:02:32.060+07:00,837086552077804838,231872,190043,211295,1391
1783771352078575280,2026-07-11T19:02:32.078+07:00,837086552077804838,231991,190144,211404,1359
1783771352096757098,2026-07-11T19:02:32.096+07:00,837086552077804838,232097,190218,211503,1368
1783771352114938916,2026-07-11T19:02:32.114+07:00,837086552077804838,232242,190362,211667,1335
1783771352133120734,2026-07-11T19:02:32.133+07:00,837086552077804838,232387,190510,211815,1419
1783771352151302552,2026-07-11T19:02:32.151+07:00,837086552077804838,232606,190653,211922,1403
1783771352169484370,2026-07-11T19:02:32.169+07:00,837086552077804838,232626,190703,211973,1464
1783771352187666188,2026-07-11T19:02:32.187+07:00,837086552077804838,232428,190457,211752,1394
1783771352205848006,2026-07-11T19:02:32.205+07:00,837086552077804838,232011,190085,211311,1371
1783771352224029824,2026-07-11T19:02:32.224+07:00,837086552077804838,231517,189725,210795,1325
1783771352242211642,2026-07-11T19:02:32.242+07:00,837086552077804838,231087,189355,210321,1361
1783771352260393460,2026-07-11T19:02:32.260+07:00,837086552077804838,230699,189021,210056,1389
1783771352278575278,2026-07-11T19:02:32.278+07:00,837086552077804838,230420,188856,209777,1393
1783771352296757096,2026-07-11T19:02:32.296+07:00,837086552787476513,230277,188757,209634,1376
1783771352314938914,2026-07-11T19:02:32.314+07:00,837086552787476513,230226,188708,209562,1344
1783771352333120732,2026-07-11T19:02:32.333+07:00,837086552787476513,230159,188735,209581,1339
1783771352351302550,2026-07-11T19:02:32.351+07:00,837086552787476513,230336,188857,209703,1365
1783771352369484368,2026-07-11T19:02:32.369+07:00,837086552787476513,230413,188925,209770,1366
1783771352387666186,2026-07-11T19:02:32.387+07:00,837086552787476513,230554,189014,209875,1320
1783771352405848004,2026-07-11T19:02:32.405+07:00,837086552787476513,230648,189097,210013,1358
1783771352424029822,2026-07-11T19:02:32.424+07:00,837086552787476513,230795,189189,210023,1352
1783771352442211640,2026-07-11T19:02:32.442+07:00,837086552787476513,230828,189237,210085,1341
1783771352460393458,2026-07-11T19:02:32.460+07:00,837086552787476513,230779,189236,210034,1386
1783771352478575276,2026-07-11T19:02:32.478+07:00,837086552787476513,230883,189315,210099,1383
1783771352496757094,2026-07-11T19:02:32.496+07:00,837086552787476513,230876,189348,210136,1356
1783771352514938912,2026-07-11T19:02:32.514+07:00,837086552787476513,230917,189422,210220,1372
1783771352533120730,2026-07-11T19:02:32.533+07:00,837086552787476513,230912,189380,210169,1318
1783771352551302548,2026-07-11T19:02:32.551+07:00,837086552787476513,231040,189542,210308,1380
1783771352569484366,2026-07-11T19:02:32.569+07:00,837086552787476513,231166,189598,210424,1366
1783771352587666184,2026-07-11T19:02:32.587+07:00,837086552787476513,231288,189722,210553,1352
1783771352605848002,2026-07-11T19:02:32.605+07:00,837086552787476513,231482,189848,210697,1411
1783771352624029820,2026-07-11T19:02:32.624+07:00,837086552787476513,231542,189925,210794,1393
1783771352642211638,2026-07-11T19:02:32.642+07:00,837086552787476513,231731,190161,210985,1395
1783771352660393456,2026-07-11T19:02:32.660+07:00,837086552787476513,231825,190171,210986,1384
1783771352678575274,2026-07-11T19:02:32.678+07:00,837086552787476513,231727,190054,210764,1304
1783771352696757092,2026-07-11T19:02:32.696+07:00,837086552787476513,231455,189795,210404,1407
1783771352714938910,2026-07-11T19:02:32.714+07:00,837086552787476513,230985,189431,209969,1354
1783771352733120728,2026-07-11T19:02:32.733+07:00,837086552787476513,230484,189035,209435,1356
1783771352751302546,2026-07-11T19:02:32.751+07:00,837086552787476513,230067,188684,209034,1387
1783771352769484364,2026-07-11T19:02:32.769+07:00,837086552787476513,229741,188418,208727,1336
1783771352787666182,2026-07-11T19:02:32.787+07:00,837086552787476513,229526,188276,208481,1314
1783771352805848000,2026-07-11T19:02:32.805+07:00,837086552787476513,229445,188189,208427,1324
1783771352824029818,2026-07-11T19:02:32.824+07:00,837086552787476513,229415,188172,208439,1355
1783771352842211636,2026-07-11T19:02:32.842+07:00,837086552787476513,229441,188278,208450,1342
1783771352860393454,2026-07-11T19:02:32.860+07:00,837086552787476513,229572,188294,208574,1380
1783771352878575272,2026-07-11T19:02:32.878+07:00,837086552787476513,229690,188441,208674,1359
1783771352896757090,2026-07-11T19:02:32.896+07:00,837086552787476513,229851,188559,208827,1406
1783771352914938908,2026-07-11T19:02:32.914+07:00,837086552787476513,229947,188630,208873,1392
1783771352933120726,2026-07-11T19:02:32.933+07:00,837086552787476513,229939,188622,208938,1366
1783771352951302544,2026-07-11T19:02:32.951+07:00,837086552787476513,229961,188652,208916,1347
1783771352969484362,2026-07-11T19:02:32.969+07:00,837086552787476513,230021,188738,208994,1350
1783771352987666180,2026-07-11T19:02:32.987+07:00,837086552787476513,230131,188758,209005,1350
1783771353005847998,2026-07-11T19:02:33.005+07:00,837086553551709795,230129,188794,208994,1352
1783771353024029816,2026-07-11T19:02:33.024+07:00,837086553551709795,230146,188842,209066,1311
1783771353042211634,2026-07-11T19:02:33.042+07:00,837086553551709795,230310,188902,209087,1320
1783771353060393452,2026-07-11T19:02:33.060+07:00,837086553551709795,230408,189030,209220,1336
1783771353078575270,2026-07-11T19:02:33.078+07:00,837086553551709795,230490,189131,209350,1304
1783771353096757088,2026-07-11T19:02:33.096+07:00,837086553551709795,230648,189231,209510,1323
1783771353114938906,2026-07-11T19:02:33.114+07:00,837086553551709795,230833,189343,209605,1339
1783771353133120724,2026-07-11T19:02:33.133+07:00,837086553551709795,230907,189481,209673,1289
1783771353151302542,2026-07-11T19:02:33.151+07:00,837086553551709795,231079,189616,209878,1287
1783771353169484360,2026-07-11T19:02:33.169+07:00,837086553551709795,231321,189808,210116,1340
1783771353187666178,2026-07-11T19:02:33.187+07:00,837086553551709795,231512,189919,210307,1374
1783771353205847996,2026-07-11T19:02:33.205+07:00,837086553551709795,231682,190023,210387,1351
1783771353224029814,2026-07-11T19:02:33.224+07:00,837086553551709795,231481,189885,210184,1332
1783771353242211632,2026-07-11T19:02:33.242+07:00,837086553551709795,231177,189657,209761,1343
1783771353260393450,2026-07-11T19:02:33.260+07:00,837086553551709795,230736,189230,209323,1371
1783771353278575268,2026-07-11T19:02:33.278+07:00,837086553551709795,230309,188893,208823,1338
1783771353296757086,2026-07-11T19:02:33.296+07:00,837086553551709795,229898,188682,208501,1348
1783771353314938904,2026-07-11T19:02:33.314+07:00,837086553551709795,229661,188398,208205,1323
1783771353333120722,2026-07-11T19:02:33.333+07:00,837086553551709795,229515,188259,208052,1391
1783771353351302540,2026-07-11T19:02:33.351+07:00,837086553551709795,229469,188208,207928,1328
1783771353369484358,2026-07-11T19:02:33.369+07:00,837086553551709795,229519,188287,208023,1348
1783771353387666176,2026-07-11T19:02:33.387+07:00,837086553551709795,229555,188335,208080,1366
1783771353405847994,2026-07-11T19:02:33.405+07:00,837086553551709795,229655,188389,208163,1317
1783771353424029812,2026-07-11T19:02:33.424+07:00,837086553551709795,229770,188477,208287,1345
1783771353442211630,2026-07-11T19:02:33.442+07:00,837086553551709795,229930,188699,208421,1324
1783771353460393448,2026-07-11T19:02:33.460+07:00,837086553551709795,230040,188755,208572,1360
1783771353478575266,2026-07-11T19:02:33.478+07:00,837086553551709795,230129,188806,208641,1337
1783771353496757084,2026-07-11T19:02:33.496+07:00,837086553551709795,230213,188797,208672,1333
1783771353514938902,2026-07-11T19:02:33.514+07:00,837086553551709795,230179,188853,208685,1276
1783771353533120720,2026-07-11T19:02:33.533+07:00,837086553551709795,230259,188954,208760,1341
1783771353551302538,2026-07-11T19:02:33.551+07:00,837086553551709795,230328,188969,208807,1321
1783771353569484356,2026-07-11T19:02:33.569+07:00,837086553551709795,230416,188974,208894,1389
1783771353587666174,2026-07-11T19:02:33.587+07:00,837086553551709795,230517,189096,208978,1325
1783771353605847992,2026-07-11T19:02:33.605+07:00,837086553551709795,230679,189173,209100,1326
1783771353624029810,2026-07-11T19:02:33.624+07:00,837086553551709795,230795,189326,209216,1353
1783771353642211628,2026-07-11T19:02:33.642+07:00,837086553551709795,230912,189457,209333,1327
1783771353660393446,2026-07-11T19:02:33.660+07:00,837086553551709795,231018,189548,209477,1314
1783771353678575264,2026-07-11T19:02:33.678+07:00,837086553551709795,231199,189678,209688,1366
1783771353696757082,2026-07-11T19:02:33.696+07:00,837086553551709795,231363,189826,209821,1311
1783771353714938900,2026-07-11T19:02:33.714+07:00,837086553551709795,231592,190011,209980,1370
1783771353733120718,2026-07-11T19:02:33.733+07:00,837086553551709795,231747,190187,210156,1280
1783771353751302536,2026-07-11T19:02:33.751+07:00,837086553551709795,231761,190176,210175,1263
1783771353769484354,2026-07-11T19:02:33.769+07:00,837086554315956809,231723,190108,210030,1287
1783771353787666172,2026-07-11T19:02:33.787+07:00,837086554315956809,231491,189902,209749,1382
1783771353805847990,2026-07-11T19:02:33.805+07:00,837086554315956809,231041,189552,209341,1302
1783771353824029808,2026-07-11T19:02:33.824+07:00,837086554315956809,230706,189253,208936,1367
1783771353842211626,2026-07-11T19:02:33.842+07:00,837086554315956809,230385,189005,208564,1360
1783771353860393444,2026-07-11T19:02:33.860+07:00,837086554315956809,230145,188831,208433,1316
1783771353878575262,2026-07-11T19:02:33.878+07:00,837086554315956809,230093,188684,208306,1323
1783771353896757080,2026-07-11T19:02:33.896+07:00,837086554315956809,230130,188763,208341,1351
1783771353914938898,2026-07-11T19:02:33.914+07:00,837086554315956809,230129,188719,208377,1319
1783771353933120716,2026-07-11T19:02:33.933+07:00,837086554315956809,230237,188848,208465,1397
1783771353951302534,2026-07-11T19:02:33.951+07:00,837086554315956809,230358,188945,208592,1349
1783771353969484352,2026-07-11T19:02:33.969+07:00,837086554315956809,230455,189080,208739,1359
1783771353987666170,2026-07-11T19:02:33.987+07:00,837086554315956809,230648,189166,208858,1361
1783771354005847988,2026-07-11T19:02:34.005+07:00,837086554315956809,230716,189245,209004,1365
1783771354024029806,2026-07-11T19:02:34.024+07:00,837086554315956809,230845,189427,209106,1373
1783771354042211624,2026-07-11T19:02:34.042+07:00,837086554315956809,230952,189471,209076,1391
1783771354060393442,2026-07-11T19:02:34.060+07:00,837086554315956809,230977,189525,209137,1391
1783771354078575260,2026-07-11T19:02:34.078+07:00,837086554315956809,231038,189514,209206,1388
1783771354096757078,2026-07-11T19:02:34.096+07:00,837086554315956809,231106,189629,209311,1422
1783771354114938896,2026-07-11T19:02:34.114+07:00,837086554315956809,231228,189655,209375,1409
1783771354133120714,2026-07-11T19:02:34.133+07:00,837086554315956809,231310,189698,209451,1286
1783771354151302532,2026-07-11T19:02:34.151+07:00,837086554315956809,231436,189856,209587,1390
1783771354169484350,2026-07-11T19:02:34.169+07:00,837086554315956809,231547,189884,209719,1400
1783771354187666168,2026-07-11T19:02:34.187+07:00,837086554315956809,231700,190060,209879,1380
1783771354205847986,2026-07-11T19:02:34.205+07:00,837086554315956809,231876,190158,210008,1355
1783771354224029804,2026-07-11T19:02:34.224+07:00,837086554315956809,232017,190340,210187,1340
1783771354242211622,2026-07-11T19:02:34.242+07:00,837086554315956809,232150,190480,210368,1327
1783771354260393440,2026-07-11T19:02:34.260+07:00,837086554315956809,232334,190575,210543,1334
1783771354278575258,2026-07-11T19:02:34.278+07:00,837086554315956809,232477,190695,210676,1354
1783771354296757076,2026-07-11T19:02:34.296+07:00,837086554315956809,232565,190758,210695,1331
1783771354314938894,2026-07-11T19:02:34.314+07:00,837086554315956809,232522,190735,210583,1396
1783771354333120712,2026-07-11T19:02:34.333+07:00,837086554315956809,232197,190436,210231,1298
1783771354351302530,2026-07-11T19:02:34.351+07:00,837086554315956809,231893,190161,209969,1386
1783771354369484348,2026-07-11T19:02:34.369+07:00,837086554315956809,231555,189848,209555,1319
1783771354387666166,2026-07-11T19:02:34.387+07:00,837086554315956809,231323,189630,209334,1330
1783771354405847984,2026-07-11T19:02:34.405+07:00,837086554315956809,231187,189544,209243,1352
1783771354424029802,2026-07-11T19:02:34.424+07:00,837086554315956809,231171,189462,209180,1384
1783771354442211620,2026-07-11T19:02:34.442+07:00,837086554315956809,231231,189554,209212,1396
1783771354460393438,2026-07-11T19:02:34.460+07:00,837086554315956809,231296,189599,209332,1370
1783771354478575256,2026-07-11T19:02:34.478+07:00,837086554315956809,231360,189708,209430,1378
1783771354496757074,2026-07-11T19:02:34.496+07:00,837086554315956809,231481,189832,209571,1406
1783771354514938892,2026-07-11T19:02:34.514+07:00,837086554315956809,231586,189948,209682,1334
1783771354533120710,2026-07-11T19:02:34.533+07:00,837086555080203823,231770,189961,209798,1369
1783771354551302528,2026-07-11T19:02:34.551+07:00,837086555080203823,231864,190106,209829,1332
1783771354569484346,2026-07-11T19:02:34.569+07:00,837086555080203823,231860,190161,209950,1343
1783771354587666164,2026-07-11T19:02:34.587+07:00,837086555080203823,231882,190137,209946,1290
1783771354605847982,2026-07-11T19:02:34.605+07:00,837086555080203823,231986,190207,210002,1316
1783771354624029800,2026-07-11T19:02:34.624+07:00,837086555080203823,232123,190212,210142,1380
1783771354642211618,2026-07-11T19:02:34.642+07:00,837086555080203823,232191,190284,210178,1371
1783771354660393436,2026-07-11T19:02:34.660+07:00,837086555080203823,232254,190352,210219,1281
1783771354678575254,2026-07-11T19:02:34.678+07:00,837086555080203823,232352,190432,210248,1315
1783771354696757072,2026-07-11T19:02:34.696+07:00,837086555080203823,232480,190541,210428,1372
1783771354714938890,2026-07-11T19:02:34.714+07:00,837086555080203823,232598,190666,210631,1335
1783771354733120708,2026-07-11T19:02:34.733+07:00,837086555080203823,232736,190777,210813,1311
1783771354751302526,2026-07-11T19:02:34.751+07:00,837086555080203823,232786,190814,210939,1318
1783771354769484344,2026-07-11T19:02:34.769+07:00,837086555080203823,232984,190990,211105,1263
1783771354787666162,2026-07-11T19:02:34.787+07:00,837086555080203823,233057,191123,211248,1248
1783771354805847980,2026-07-11T19:02:34.805+07:00,837086555080203823,233278,191270,211409,1350
1783771354824029798,2026-07-11T19:02:34.824+07:00,837086555080203823,233352,191333,211498,1353
1783771354842211616,2026-07-11T19:02:34.842+07:00,837086555080203823,233432,191376,211498,1366
1783771354860393434,2026-07-11T19:02:34.860+07:00,837086555080203823,233199,191164,211327,1300
1783771354878575252,2026-07-11T19:02:34.878+07:00,837086555080203823,232978,190932,211060,1296
1783771354896757070,2026-07-11T19:02:34.896+07:00,837086555080203823,232746,190694,210785,1366
1783771354914938888,2026-07-11T19:02:34.914+07:00,837086555080203823,232471,190510,210559,1370
1783771354933120706,2026-07-11T19:02:34.933+07:00,837086555080203823,232402,190400,210510,1419
1783771354951302524,2026-07-11T19:02:34.951+07:00,837086555080203823,232273,190324,210407,1355
1783771354969484342,2026-07-11T19:02:34.969+07:00,837086555080203823,232288,190291,210385,1320
1783771354987666160,2026-07-11T19:02:34.987+07:00,837086555080203823,232374,190404,210489,1307
1783771355005847978,2026-07-11T19:02:35.005+07:00,837086555080203823,232479,190396,210623,1322
1783771355024029796,2026-07-11T19:02:35.024+07:00,837086555080203823,232578,190540,210770,1338
1783771355042211614,2026-07-11T19:02:35.042+07:00,837086555080203823,232746,190679,210883,1336
1783771355060393432,2026-07-11T19:02:35.060+07:00,837086555080203823,232879,190777,211105,1344
1783771355078575250,2026-07-11T19:02:35.078+07:00,837086555080203823,232979,190882,211176,1317
1783771355096757068,2026-07-11T19:02:35.096+07:00,837086555080203823,233053,190954,211217,1337
1783771355114938886,2026-07-11T19:02:35.114+07:00,837086555080203823,233217,191032,211376,1411
1783771355133120704,2026-07-11T19:02:35.133+07:00,837086555080203823,233224,191062,211389,1368
1783771355151302522,2026-07-11T19:02:35.151+07:00,837086555080203823,233284,191110,211451,1313
1783771355169484340,2026-07-11T19:02:35.169+07:00,837086555080203823,233416,191128,211550,1341
1783771355187666158,2026-07-11T19:02:35.187+07:00,837086555080203823,233496,191217,211620,1324
1783771355205847976,2026-07-11T19:02:35.205+07:00,837086555080203823,233566,191261,211673,1320
1783771355224029794,2026-07-11T19:02:35.224+07:00,837086555080203823,233676,191403,211809,1303
1783771355242211612,2026-07-11T19:02:35.242+07:00,837086555080203823,233847,191530,211952,1334
1783771355260393430,2026-07-11T19:02:35.260+07:00,837086555080203823,233970,191668,212161,1286
1783771355278575248,2026-07-11T19:02:35.278+07:00,837086555080203823,234185,191804,212366,1362
1783771355296757066,2026-07-11T19:02:35.296+07:00,837086555844450837,234293,191909,212527,1307
1783771355314938884,2026-07-11T19:02:35.314+07:00,837086555844450837,234408,191994,212713,1275
1783771355333120702,2026-07-11T19:02:35.333+07:00,837086555844450837,234565,192195,212788,1323
1783771355351302520,2026-07-11T19:02:35.351+07:00,837086555844450837,234607,192186,212822,1343
1783771355369484338,2026-07-11T19:02:35.369+07:00,837086555844450837,234473,192050,212718,1301
1783771355387666156,2026-07-11T19:02:35.387+07:00,837086555844450837,234309,191925,212618,1288
1783771355405847974,2026-07-11T19:02:35.405+07:00,837086555844450837,234131,191751,212428,1332
1783771355424029792,2026-07-11T19:02:35.424+07:00,837086555844450837,233955,191563,212237,1330
1783771355442211610,2026-07-11T19:02:35.442+07:00,837086555844450837,233835,191465,212170,1359
1783771355460393428,2026-07-11T19:02:35.460+07:00,837086555844450837,233837,191425,212160,1314
1783771355478575246,2026-07-11T19:02:35.478+07:00,837086555844450837,233867,191510,212246,1297
1783771355496757064,2026-07-11T19:02:35.496+07:00,837086555844450837,233954,191561,212367,1373
1783771355514938882,2026-07-11T19:02:35.514+07:00,837086555844450837,234066,191670,212535,1429
1783771355533120700,2026-07-11T19:02:35.533+07:00,837086555844450837,234221,191831,212661,1416
1783771355551302518,2026-07-11T19:02:35.551+07:00,837086555844450837,234399,191919,212811,1359
1783771355569484336,2026-07-11T19:02:35.569+07:00,837086555844450837,234554,192044,212958,1339
1783771355587666154,2026-07-11T19:02:35.587+07:00,837086555844450837,234654,192184,213044,1345
1783771355605847972,2026-07-11T19:02:35.605+07:00,837086555844450837,234790,192275,213181,1388
1783771355624029790,2026-07-11T19:02:35.624+07:00,837086555844450837,234831,192338,213291,1392
1783771355642211608,2026-07-11T19:02:35.642+07:00,837086555844450837,234948,192445,213329,1412
1783771355660393426,2026-07-11T19:02:35.660+07:00,837086555844450837,234984,192489,213355,1401
1783771355678575244,2026-07-11T19:02:35.678+07:00,837086555844450837,235063,192587,213503,1401
1783771355696757062,2026-07-11T19:02:35.696+07:00,837086555844450837,235179,192607,213624,1370
1783771355714938880,2026-07-11T19:02:35.714+07:00,837086555844450837,235202,192693,213685,1341
1783771355733120698,2026-07-11T19:02:35.733+07:00,837086555844450837,235377,192867,213810,1332
1783771355751302516,2026-07-11T19:02:35.751+07:00,837086555844450837,235523,192936,213976,1341
1783771355769484334,2026-07-11T19:02:35.769+07:00,837086555844450837,235687,193094,214147,1368
1783771355787666152,2026-07-11T19:02:35.787+07:00,837086555844450837,235820,193189,214242,1347
1783771355805847970,2026-07-11T19:02:35.805+07:00,837086555844450837,236028,193375,214462,1344
1783771355824029788,2026-07-11T19:02:35.824+07:00,837086555844450837,236116,193403,214570,1347
1783771355842211606,2026-07-11T19:02:35.842+07:00,837086555844450837,236182,193428,214619,1326
1783771355860393424,2026-07-11T19:02:35.860+07:00,837086555844450837,236129,193425,214564,1290
1783771355878575242,2026-07-11T19:02:35.878+07:00,837086555844450837,236003,193295,214437,1366
1783771355896757060,2026-07-11T19:02:35.896+07:00,837086555844450837,235762,193068,214229,1351
1783771355914938878,2026-07-11T19:02:35.914+07:00,837086555844450837,235578,192860,213977,1383
1783771355933120696,2026-07-11T19:02:35.933+07:00,837086555844450837,235422,192734,213891,1356
1783771355951302514,2026-07-11T19:02:35.951+07:00,837086555844450837,235344,192755,213869,1385
1783771355969484332,2026-07-11T19:02:35.969+07:00,837086555844450837,235384,192701,213848,1385
1783771355987666150,2026-07-11T19:02:35.987+07:00,837086555844450837,235346,192650,213905,1348
1783771356005847968,2026-07-11T19:02:36.005+07:00,837086555844450837,235441,192793,214039,1318
1783771356024029786,2026-07-11T19:02:36.024+07:00,837086555844450837,235557,192882,214135,1334
1783771356042211604,2026-07-11T19:02:36.042+07:00,837086555844450837,235672,192952,214237,1358
1783771356060393422,2026-07-11T19:02:36.060+07:00,837086556608697861,235781,193065,214403,1371
1783771356078575240,2026-07-11T19:02:36.078+07:00,837086556608697861,235945,193178,214530,1345
1783771356096757058,2026-07-11T19:02:36.096+07:00,837086556608697861,236052,193196,214619,1318
1783771356114938876,2026-07-11T19:02:36.114+07:00,837086556608697861,236115,193276,214721,1315
1783771356133120694,2026-07-11T19:02:36.133+07:00,837086556608697861,236201,193387,214776,1388
1783771356151302512,2026-07-11T19:02:36.151+07:00,837086556608697861,236204,193377,214839,1357
1783771356169484330,2026-07-11T19:02:36.169+07:00,837086556608697861,236302,193444,214872,1315
1783771356187666148,2026-07-11T19:02:36.187+07:00,837086556608697861,236411,193498,214926,1368
1783771356205847966,2026-07-11T19:02:36.205+07:00,837086556608697861,236438,193515,214990,1262
1783771356224029784,2026-07-11T19:02:36.224+07:00,837086556608697861,236526,193616,215084,1356
1783771356242211602,2026-07-11T19:02:36.242+07:00,837086556608697861,236608,193687,215185,1316
1783771356260393420,2026-07-11T19:02:36.260+07:00,837086556608697861,236740,193839,215258,1395
1783771356278575238,2026-07-11T19:02:36.278+07:00,837086556608697861,236892,193860,215385,1384
1783771356296757056,2026-07-11T19:02:36.296+07:00,837086556608697861,236957,194043,215508,1337
1783771356314938874,2026-07-11T19:02:36.314+07:00,837086556608697861,237123,194124,215597,1320
1783771356333120692,2026-07-11T19:02:36.333+07:00,837086556608697861,237168,194078,215645,1336
1783771356351302510,2026-07-11T19:02:36.351+07:00,837086556608697861,237066,193973,215536,1356
1783771356369484328,2026-07-11T19:02:36.369+07:00,837086556608697861,236948,193895,215410,1382
1783771356387666146,2026-07-11T19:02:36.387+07:00,837086556608697861,236658,193577,215092,1410
1783771356405847964,2026-07-11T19:02:36.405+07:00,837086556608697861,236329,193279,214802,1322
1783771356424029782,2026-07-11T19:02:36.424+07:00,837086556608697861,236085,193075,214603,1309
1783771356442211600,2026-07-11T19:02:36.442+07:00,837086556608697861,235928,192902,214452,1335
1783771356460393418,2026-07-11T19:02:36.460+07:00,837086556608697861,235766,192759,214312,1333
1783771356478575236,2026-07-11T19:02:36.478+07:00,837086556608697861,235706,192678,214260,1331
1783771356496757054,2026-07-11T19:02:36.496+07:00,837086556608697861,235739,192684,214265,1391
1783771356514938872,2026-07-11T19:02:36.514+07:00,837086556608697861,235783,192694,214360,1378
1783771356533120690,2026-07-11T19:02:36.533+07:00,837086556608697861,235804,192706,214387,1291
1783771356551302508,2026-07-11T19:02:36.551+07:00,837086556608697861,235879,192755,214377,1320
1783771356569484326,2026-07-11T19:02:36.569+07:00,837086556608697861,235927,192767,214382,1392
1783771356587666144,2026-07-11T19:02:36.587+07:00,837086556608697861,235866,192752,214345,1288
1783771356605847962,2026-07-11T19:02:36.605+07:00,837086556608697861,235936,192783,214380,1345
1783771356624029780,2026-07-11T19:02:36.624+07:00,837086556608697861,235891,192645,214390,1317
1783771356642211598,2026-07-11T19:02:36.642+07:00,837086556608697861,235828,192684,214278,1341
1783771356660393416,2026-07-11T19:02:36.660+07:00,837086556608697861,235796,192608,214233,1359
1783771356678575234,2026-07-11T19:02:36.678+07:00,837086556608697861,235730,192535,214180,1354
1783771356696757052,2026-07-11T19:02:36.696+07:00,837086556608697861,235823,192537,214280,1355
1783771356714938870,2026-07-11T19:02:36.714+07:00,837086556608697861,235812,192506,214238,1345
1783771356733120688,2026-07-11T19:02:36.733+07:00,837086556608697861,235857,192558,214317,1387
1783771356751302506,2026-07-11T19:02:36.751+07:00,837086556608697861,235931,192620,214435,1355
1783771356769484324,2026-07-11T19:02:36.769+07:00,837086556608697861,235999,192701,214528,1378
1783771356787666142,2026-07-11T19:02:36.787+07:00,837086556608697861,236094,192731,214590,1303
1783771356805847960,2026-07-11T19:02:36.805+07:00,837086556608697861,236168,192748,214670,1386
1783771356824029778,2026-07-11T19:02:36.824+07:00,837086557372979971,236086,192663,214524,1356
1783771356842211596,2026-07-11T19:02:36.842+07:00,837086557372979971,235837,192426,214298,1377
1783771356860393414,2026-07-11T19:02:36.860+07:00,837086557372979971,235443,192035,213919,1373
1783771356878575232,2026-07-11T19:02:36.878+07:00,837086557372979971,235136,191750,213679,1387
1783771356896757050,2026-07-11T19:02:36.896+07:00,837086557372979971,234787,191437,213318,1330
1783771356914938868,2026-07-11T19:02:36.914+07:00,837086557372979971,234589,191139,213107,1350
1783771356933120686,2026-07-11T19:02:36.933+07:00,837086557372979971,234415,191050,212999,1378
1783771356951302504,2026-07-11T19:02:36.951+07:00,837086557372979971,234397,190930,213011,1383
1783771356969484322,2026-07-11T19:02:36.969+07:00,837086557372979971,234368,190897,212909,1354
1783771356987666140,2026-07-11T19:02:36.987+07:00,837086557372979971,234378,190971,212997,1356
1783771357005847958,2026-07-11T19:02:37.005+07:00,837086557372979971,234462,191070,213112,1402
1783771357024029776,2026-07-11T19:02:37.024+07:00,837086557372979971,234467,191089,213076,1325
1783771357042211594,2026-07-11T19:02:37.042+07:00,837086557372979971,234612,191169,213217,1350
1783771357060393412,2026-07-11T19:02:37.060+07:00,837086557372979971,234614,191207,213316,1350
1783771357078575230,2026-07-11T19:02:37.078+07:00,837086557372979971,234687,191191,213319,1348
1783771357096757048,2026-07-11T19:02:37.096+07:00,837086557372979971,234722,191220,213300,1354
1783771357114938866,2026-07-11T19:02:37.114+07:00,837086557372979971,234758,191253,213309,1374
1783771357133120684,2026-07-11T19:02:37.133+07:00,837086557372979971,234861,191242,213407,1369
1783771357151302502,2026-07-11T19:02:37.151+07:00,837086557372979971,234829,191329,213404,1350
1783771357169484320,2026-07-11T19:02:37.169+07:00,837086557372979971,234880,191317,213438,1358
1783771357187666138,2026-07-11T19:02:37.187+07:00,837086557372979971,234947,191316,213459,1383
1783771357205847956,2026-07-11T19:02:37.205+07:00,837086557372979971,234990,191384,213591,1319
1783771357224029774,2026-07-11T19:02:37.224+07:00,837086557372979971,235136,191504,213741,1357
1783771357242211592,2026-07-11T19:02:37.242+07:00,837086557372979971,235270,191602,213795,1356
1783771357260393410,2026-07-11T19:02:37.260+07:00,837086557372979971,235245,191615,213879,1324
1783771357278575228,2026-07-11T19:02:37.278+07:00,837086557372979971,235146,191530,213782,1349
1783771357296757046,2026-07-11T19:02:37.296+07:00,837086557372979971,234885,191324,213525,1339
1783771357314938864,2026-07-11T19:02:37.314+07:00,837086557372979971,234492,190970,213158,1399
1783771357333120682,2026-07-11T19:02:37.333+07:00,837086557372979971,234039,190519,212757,1356
1783771357351302500,2026-07-11T19:02:37.351+07:00,837086557372979971,233609,190115,212374,1355
1783771357369484318,2026-07-11T19:02:37.369+07:00,837086557372979971,233293,189721,211989,1373
1783771357387666136,2026-07-11T19:02:37.387+07:00,837086557372979971,232984,189390,211703,1353
1783771357405847954,2026-07-11T19:02:37.405+07:00,837086557372979971,232756,189258,211491,1315
1783771357424029772,2026-07-11T19:02:37.424+07:00,837086557372979971,232661,189111,211372,1330
1783771357442211590,2026-07-11T19:02:37.442+07:00,837086557372979971,232601,189036,211323,1345
1783771357460393408,2026-07-11T19:02:37.460+07:00,837086557372979971,232579,188975,211292,1386
1783771357478575226,2026-07-11T19:02:37.478+07:00,837086557372979971,232513,188970,211259,1370
1783771357496757044,2026-07-11T19:02:37.496+07:00,837086557372979971,232552,188991,211219,1331
1783771357514938862,2026-07-11T19:02:37.514+07:00,837086557372979971,232556,188954,211205,1309
1783771357533120680,2026-07-11T19:02:37.533+07:00,837086557372979971,232561,188960,211214,1344
1783771357551302498,2026-07-11T19:02:37.551+07:00,837086557372979971,232466,188859,211066,1281
1783771357569484316,2026-07-11T19:02:37.569+07:00,837086557372979971,232473,188817,211107,1343
1783771357587666134,2026-07-11T19:02:37.587+07:00,837086558082666906,232378,188725,211005,1341
1783771357605847952,2026-07-11T19:02:37.605+07:00,837086558082666906,232319,188679,210978,1314
1783771357624029770,2026-07-11T19:02:37.624+07:00,837086558082666906,232299,188635,210935,1328
1783771357642211588,2026-07-11T19:02:37.642+07:00,837086558082666906,232239,188628,210893,1387
1783771357660393406,2026-07-11T19:02:37.660+07:00,837086558082666906,232288,188686,210938,1382
1783771357678575224,2026-07-11T19:02:37.678+07:00,837086558082666906,232329,188644,210922,1407
1783771357696757042,2026-07-11T19:02:37.696+07:00,837086558082666906,232416,188640,210963,1367
1783771357714938860,2026-07-11T19:02:37.714+07:00,837086558082666906,232379,188602,210965,1309
1783771357733120678,2026-07-11T19:02:37.733+07:00,837086558082666906,232310,188524,210849,1383
1783771357751302496,2026-07-11T19:02:37.751+07:00,837086558082666906,231989,188216,210543,1327
1783771357769484314,2026-07-11T19:02:37.769+07:00,837086558082666906,231538,187773,210110,1324
1783771357787666132,2026-07-11T19:02:37.787+07:00,837086558082666906,230994,187186,209581,1321
1783771357805847950,2026-07-11T19:02:37.805+07:00,837086558082666906,230468,186733,209094,1359
1783771357824029768,2026-07-11T19:02:37.824+07:00,837086558082666906,230040,186348,208684,1362
1783771357842211586,2026-07-11T19:02:37.842+07:00,837086558082666906,229679,185973,208341,1359
1783771357860393404,2026-07-11T19:02:37.860+07:00,837086558082666906,229422,185728,208160,1389
1783771357878575222,2026-07-11T19:02:37.878+07:00,837086558082666906,229227,185529,208014,1334
1783771357896757040,2026-07-11T19:02:37.896+07:00,837086558082666906,229173,185450,207948,1324
1783771357914938858,2026-07-11T19:02:37.914+07:00,837086558082666906,229108,185370,207859,1327
1783771357933120676,2026-07-11T19:02:37.933+07:00,837086558082666906,229203,185450,207970,1397
1783771357951302494,2026-07-11T19:02:37.951+07:00,837086558082666906,229159,185475,207985,1385
1783771357969484312,2026-07-11T19:02:37.969+07:00,837086558082666906,229159,185398,207961,1353
1783771357987666130,2026-07-11T19:02:37.987+07:00,837086558082666906,229176,185416,208031,1373
1783771358005847948,2026-07-11T19:02:38.005+07:00,837086558082666906,229146,185418,208050,1345
1783771358024029766,2026-07-11T19:02:38.024+07:00,837086558082666906,229099,185319,207954,1319
1783771358042211584,2026-07-11T19:02:38.042+07:00,837086558082666906,229087,185273,207923,1368
1783771358060393402,2026-07-11T19:02:38.060+07:00,837086558082666906,229076,185232,207875,1419
1783771358078575220,2026-07-11T19:02:38.078+07:00,837086558082666906,229034,185180,207798,1378
1783771358096757038,2026-07-11T19:02:38.096+07:00,837086558082666906,228996,185249,207859,1360
1783771358114938856,2026-07-11T19:02:38.114+07:00,837086558082666906,228983,185147,207824,1311
1783771358133120674,2026-07-11T19:02:38.133+07:00,837086558082666906,229048,185256,207946,1331
1783771358151302492,2026-07-11T19:02:38.151+07:00,837086558082666906,229119,185317,208021,1376
1783771358169484310,2026-07-11T19:02:38.169+07:00,837086558082666906,229188,185422,208107,1313
1783771358187666128,2026-07-11T19:02:38.187+07:00,837086558082666906,229232,185382,208114,1307
1783771358205847946,2026-07-11T19:02:38.205+07:00,837086558082666906,229058,185210,207992,1360
1783771358224029764,2026-07-11T19:02:38.224+07:00,837086558082666906,228631,184808,207559,1282
1783771358242211582,2026-07-11T19:02:38.242+07:00,837086558082666906,228156,184389,207044,1285
1783771358260393400,2026-07-11T19:02:38.260+07:00,837086558082666906,227650,183880,206486,1356
1783771358278575218,2026-07-11T19:02:38.278+07:00,837086558082666906,227142,183424,206026,1366
1783771358296757036,2026-07-11T19:02:38.296+07:00,837086558755959591,226746,183007,205590,1331
1783771358314938854,2026-07-11T19:02:38.314+07:00,837086558755959591,226363,182655,205251,1277
1783771358333120672,2026-07-11T19:02:38.333+07:00,837086558755959591,226164,182450,205053,1317
1783771358351302490,2026-07-11T19:02:38.351+07:00,837086558755959591,226056,182272,204867,1323
1783771358369484308,2026-07-11T19:02:38.369+07:00,837086558755959591,225920,182224,204827,1386
1783771358387666126,2026-07-11T19:02:38.387+07:00,837086558755959591,225904,182162,204829,1347
1783771358405847944,2026-07-11T19:02:38.405+07:00,837086558755959591,225893,182180,204767,1326
1783771358424029762,2026-07-11T19:02:38.424+07:00,837086558755959591,225930,182142,204812,1383
1783771358442211580,2026-07-11T19:02:38.442+07:00,837086558755959591,225908,182098,204764,1335
1783771358460393398,2026-07-11T19:02:38.460+07:00,837086558755959591,225922,182054,204726,1368
1783771358478575216,2026-07-11T19:02:38.478+07:00,837086558755959591,225936,182069,204720,1384
1783771358496757034,2026-07-11T19:02:38.496+07:00,837086558755959591,225820,181997,204630,1284
1783771358514938852,2026-07-11T19:02:38.514+07:00,837086558755959591,225762,181926,204583,1241
1783771358533120670,2026-07-11T19:02:38.533+07:00,837086558755959591,225738,181921,204531,1301
1783771358551302488,2026-07-11T19:02:38.551+07:00,837086558755959591,225683,181940,204501,1330
1783771358569484306,2026-07-11T19:02:38.569+07:00,837086558755959591,225765,181951,204521,1332
1783771358587666124,2026-07-11T19:02:38.587+07:00,837086558755959591,225784,181927,204614,1394
1783771358605847942,2026-07-11T19:02:38.605+07:00,837086558755959591,225764,181944,204580,1342
1783771358624029760,2026-07-11T19:02:38.624+07:00,837086558755959591,225922,182040,204682,1367
1783771358642211578,2026-07-11T19:02:38.642+07:00,837086558755959591,225946,182101,204721,1331
1783771358660393396,2026-07-11T19:02:38.660+07:00,837086558755959591,226055,182165,204771,1333
1783771358678575214,2026-07-11T19:02:38.678+07:00,837086558755959591,226167,182235,204915,1394
1783771358696757032,2026-07-11T19:02:38.696+07:00,837086558755959591,226209,182251,204877,1303
1783771358714938850,2026-07-11T19:02:38.714+07:00,837086558755959591,226005,182045,204679,1279
1783771358733120668,2026-07-11T19:02:38.733+07:00,837086558755959591,225595,181725,204319,1347
1783771358751302486,2026-07-11T19:02:38.751+07:00,837086558755959591,225059,181147,203757,1303
1783771358769484304,2026-07-11T19:02:38.769+07:00,837086558755959591,224573,180688,203225,1379
1783771358787666122,2026-07-11T19:02:38.787+07:00,837086558755959591,224125,180259,202776,1317
1783771358805847940,2026-07-11T19:02:38.805+07:00,837086558755959591,223760,179883,202468,1303
1783771358824029758,2026-07-11T19:02:38.824+07:00,837086558755959591,223520,179629,202152,1319
1783771358842211576,2026-07-11T19:02:38.842+07:00,837086558755959591,223341,179402,201970,1293
1783771358860393394,2026-07-11T19:02:38.860+07:00,837086558755959591,223252,179388,201949,1316
1783771358878575212,2026-07-11T19:02:38.878+07:00,837086558755959591,223140,179202,201744,1281
1783771358896757030,2026-07-11T19:02:38.896+07:00,837086558755959591,223134,179220,201744,1277
1783771358914938848,2026-07-11T19:02:38.914+07:00,837086558755959591,223169,179209,201762,1350
1783771358933120666,2026-07-11T19:02:38.933+07:00,837086558755959591,223165,179290,201795,1302
1783771358951302484,2026-07-11T19:02:38.951+07:00,837086558755959591,223206,179271,201729,1287
1783771358969484302,2026-07-11T19:02:38.969+07:00,837086559520237133,223202,179273,201819,1307
1783771358987666120,2026-07-11T19:02:38.987+07:00,837086559520237133,223206,179199,201759,1323
1783771359005847938,2026-07-11T19:02:39.005+07:00,837086559520237133,223152,179154,201733,1268
1783771359024029756,2026-07-11T19:02:39.024+07:00,837086559520237133,223115,179146,201623,1299
1783771359042211574,2026-07-11T19:02:39.042+07:00,837086559520237133,223169,179216,201740,1334
1783771359060393392,2026-07-11T19:02:39.060+07:00,837086559520237133,223145,179170,201735,1285
1783771359078575210,2026-07-11T19:02:39.078+07:00,837086559520237133,223270,179227,201782,1332
1783771359096757028,2026-07-11T19:02:39.096+07:00,837086559520237133,223340,179309,201872,1356
1783771359114938846,2026-07-11T19:02:39.114+07:00,837086559520237133,223397,179301,201891,1326
1783771359133120664,2026-07-11T19:02:39.133+07:00,837086559520237133,223539,179354,201986,1343
1783771359151302482,2026-07-11T19:02:39.151+07:00,837086559520237133,223576,179440,202023,1315
1783771359169484300,2026-07-11T19:02:39.169+07:00,837086559520237133,223678,179574,202127,1279
1783771359187666118,2026-07-11T19:02:39.187+07:00,837086559520237133,223832,179656,202238,1249
1783771359205847936,2026-07-11T19:02:39.205+07:00,837086559520237133,223903,179743,202308,1308
1783771359224029754,2026-07-11T19:02:39.224+07:00,837086559520237133,224108,179872,202480,1321
1783771359242211572,2026-07-11T19:02:39.242+07:00,837086559520237133,224205,179984,202574,1277
1783771359260393390,2026-07-11T19:02:39.260+07:00,837086559520237133,224305,180102,202679,1331
1783771359278575208,2026-07-11T19:02:39.278+07:00,837086559520237133,224341,180051,202713,1404
1783771359296757026,2026-07-11T19:02:39.296+07:00,837086559520237133,224129,179882,202499,1349
1783771359314938844,2026-07-11T19:02:39.314+07:00,837086559520237133,223788,179486,202122,1293
1783771359333120662,2026-07-11T19:02:39.333+07:00,837086559520237133,223411,179070,201736,1318
1783771359351302480,2026-07-11T19:02:39.351+07:00,837086559520237133,222966,178684,201254,1275
1783771359369484298,2026-07-11T19:02:39.369+07:00,837086559520237133,222709,178369,200975,1266
1783771359387666116,2026-07-11T19:02:39.387+07:00,837086559520237133,222392,178127,200716,1217
1783771359405847934,2026-07-11T19:02:39.405+07:00,837086559520237133,222270,177992,200552,1209
1783771359424029752,2026-07-11T19:02:39.424+07:00,837086559520237133,222245,177883,200473,1255
1783771359442211570,2026-07-11T19:02:39.442+07:00,837086559520237133,222160,177827,200425,1257
1783771359460393388,2026-07-11T19:02:39.460+07:00,837086559520237133,222191,177893,200512,1273
1783771359478575206,2026-07-11T19:02:39.478+07:00,837086559520237133,222230,177789,200457,1225
1783771359496757024,2026-07-11T19:02:39.496+07:00,837086559520237133,222347,177890,200538,1291
1783771359514938842,2026-07-11T19:02:39.514+07:00,837086559520237133,222376,177938,200571,1280
1783771359533120660,2026-07-11T19:02:39.533+07:00,837086559520237133,222482,178001,200629,1288
1783771359551302478,2026-07-11T19:02:39.551+07:00,837086559520237133,222463,178009,200667,1285
1783771359569484296,2026-07-11T19:02:39.569+07:00,837086559520237133,222439,178059,200731,1294
1783771359587666114,2026-07-11T19:02:39.587+07:00,837086559520237133,222581,178074,200766,1317
1783771359605847932,2026-07-11T19:02:39.605+07:00,837086559520237133,222553,178136,200764,1324
1783771359624029750,2026-07-11T19:02:39.624+07:00,837086559520237133,222642,178159,200869,1319
1783771359642211568,2026-07-11T19:02:39.642+07:00,837086559520237133,222691,178173,200908,1328
1783771359660393386,2026-07-11T19:02:39.660+07:00,837086559520237133,222757,178195,200956,1272
1783771359678575204,2026-07-11T19:02:39.678+07:00,837086559520237133,222874,178329,201058,1321
1783771359696757022,2026-07-11T19:02:39.696+07:00,837086559520237133,222995,178383,201173,1357
1783771359714938840,2026-07-11T19:02:39.714+07:00,837086559520237133,223118,178520,201332,1298
1783771359733120658,2026-07-11T19:02:39.733+07:00,837086560284488725,223266,178693,201412,1299
1783771359751302476,2026-07-11T19:02:39.751+07:00,837086560284488725,223402,178836,201587,1294
1783771359769484294,2026-07-11T19:02:39.769+07:00,837086560284488725,223607,178973,201748,1331
1783771359787666112,2026-07-11T19:02:39.787+07:00,837086560284488725,223682,179033,201869,1265
1783771359805847930,2026-07-11T19:02:39.805+07:00,837086560284488725,223800,179147,202005,1286
1783771359824029748,2026-07-11T19:02:39.824+07:00,837086560284488725,224001,179369,202168,1300
1783771359842211566,2026-07-11T19:02:39.842+07:00,837086560284488725,224154,179533,202329,1325
1783771359860393384,2026-07-11T19:02:39.860+07:00,837086560284488725,224274,179649,202495,1337
1783771359878575202,2026-07-11T19:02:39.878+07:00,837086560284488725,224454,179743,202628,1300
1783771359896757020,2026-07-11T19:02:39.896+07:00,837086560284488725,224644,179966,202788,1337
1783771359914938838,2026-07-11T19:02:39.914+07:00,837086560284488725,224667,179969,202771,1284
1783771359933120656,2026-07-11T19:02:39.933+07:00,837086560284488725,224644,179992,202903,1321
1783771359951302474,2026-07-11T19:02:39.951+07:00,837086560284488725,224479,179815,202641,1303
1783771359969484292,2026-07-11T19:02:39.969+07:00,837086560284488725,224202,179436,202387,1299
1783771359987666110,2026-07-11T19:02:39.987+07:00,837086560284488725,224019,179202,202129,1273
1783771360005847928,2026-07-11T19:02:40.005+07:00,837086560284488725,223803,178991,201958,1321
1783771360024029746,2026-07-11T19:02:40.024+07:00,837086560284488725,223636,178866,201856,1354
1783771360042211564,2026-07-11T19:02:40.042+07:00,837086560284488725,223596,178844,201819,1313
1783771360060393382,2026-07-11T19:02:40.060+07:00,837086560284488725,223605,178783,201744,1345
1783771360078575200,2026-07-11T19:02:40.078+07:00,837086560284488725,223590,178846,201819,1397
1783771360096757018,2026-07-11T19:02:40.096+07:00,837086560284488725,223628,178823,201824,1318
1783771360114938836,2026-07-11T19:02:40.114+07:00,837086560284488725,223750,178903,201952,1304
1783771360133120654,2026-07-11T19:02:40.133+07:00,837086560284488725,223901,178960,202085,1293
1783771360151302472,2026-07-11T19:02:40.151+07:00,837086560284488725,223965,179044,202144,1322
1783771360169484290,2026-07-11T19:02:40.169+07:00,837086560284488725,224033,179146,202251,1297
1783771360187666108,2026-07-11T19:02:40.187+07:00,837086560284488725,224095,179199,202321,1288
1783771360205847926,2026-07-11T19:02:40.205+07:00,837086560284488725,224218,179292,202460,1383
1783771360224029744,2026-07-11T19:02:40.224+07:00,837086560284488725,224191,179268,202432,1306
1783771360242211562,2026-07-11T19:02:40.242+07:00,837086560284488725,224236,179369,202537,1319
1783771360260393380,2026-07-11T19:02:40.260+07:00,837086560284488725,224325,179399,202574,1263
1783771360278575198,2026-07-11T19:02:40.278+07:00,837086560284488725,224457,179514,202679,1298
1783771360296757016,2026-07-11T19:02:40.296+07:00,837086560284488725,224553,179577,202796,1345
1783771360314938834,2026-07-11T19:02:40.314+07:00,837086560284488725,224688,179723,202910,1321
1783771360333120652,2026-07-11T19:02:40.333+07:00,837086560284488725,224850,179872,203073,1314
1783771360351302470,2026-07-11T19:02:40.351+07:00,837086560284488725,224944,179925,203183,1305
1783771360369484288,2026-07-11T19:02:40.369+07:00,837086560284488725,225073,180097,203327,1323
1783771360387666106,2026-07-11T19:02:40.387+07:00,837086560284488725,225188,180220,203483,1317
1783771360405847924,2026-07-11T19:02:40.405+07:00,837086560284488725,225373,180350,203610,1306
1783771360424029742,2026-07-11T19:02:40.424+07:00,837086560284488725,225557,180491,203824,1294
1783771360442211560,2026-07-11T19:02:40.442+07:00,837086560284488725,225779,180642,203974,1368
1783771360460393378,2026-07-11T19:02:40.460+07:00,837086560284488725,225844,180821,204115,1326
1783771360478575196,2026-07-11T19:02:40.478+07:00,837086560284488725,226041,180986,204316,1330
1783771360496757014,2026-07-11T19:02:40.496+07:00,837086561048761679,226207,181127,204498,1332
1783771360514938832,2026-07-11T19:02:40.514+07:00,837086561048761679,226398,181351,204660,1396
1783771360533120650,2026-07-11T19:02:40.533+07:00,837086561048761679,226569,181460,204840,1373
1783771360551302468,2026-07-11T19:02:40.551+07:00,837086561048761679,226718,181692,205027,1327
1783771360569484286,2026-07-11T19:02:40.569+07:00,837086561048761679,226928,181858,205168,1317
1783771360587666104,2026-07-11T19:02:40.587+07:00,837086561048761679,227038,181882,205343,1369
1783771360605847922,2026-07-11T19:02:40.605+07:00,837086561048761679,227045,181927,205278,1369
1783771360624029740,2026-07-11T19:02:40.624+07:00,837086561048761679,226847,181770,205241,1335
1783771360642211558,2026-07-11T19:02:40.642+07:00,837086561048761679,226701,181704,205126,1353
1783771360660393376,2026-07-11T19:02:40.660+07:00,837086561048761679,226690,181620,205096,1402
1783771360678575194,2026-07-11T19:02:40.678+07:00,837086561048761679,226647,181535,205019,1357
1783771360696757012,2026-07-11T19:02:40.696+07:00,837086561048761679,226669,181524,205111,1336
1783771360714938830,2026-07-11T19:02:40.714+07:00,837086561048761679,226716,181554,205128,1356
1783771360733120648,2026-07-11T19:02:40.733+07:00,837086561048761679,226806,181725,205266,1321
1783771360751302466,2026-07-11T19:02:40.751+07:00,837086561048761679,226895,181739,205288,1273
1783771360769484284,2026-07-11T19:02:40.769+07:00,837086561048761679,227008,181865,205433,1311
1783771360787666102,2026-07-11T19:02:40.787+07:00,837086561048761679,227133,181947,205601,1366
1783771360805847920,2026-07-11T19:02:40.805+07:00,837086561048761679,227221,182036,205699,1323
1783771360824029738,2026-07-11T19:02:40.824+07:00,837086561048761679,227325,182091,205811,1347
1783771360842211556,2026-07-11T19:02:40.842+07:00,837086561048761679,227409,182280,205798,1324
1783771360860393374,2026-07-11T19:02:40.860+07:00,837086561048761679,227495,182332,205934,1297
1783771360878575192,2026-07-11T19:02:40.878+07:00,837086561048761679,227556,182428,206067,1320
1783771360896757010,2026-07-11T19:02:40.896+07:00,837086561048761679,227605,182522,206092,1307
1783771360914938828,2026-07-11T19:02:40.914+07:00,837086561048761679,227778,182637,206253,1315
1783771360933120646,2026-07-11T19:02:40.933+07:00,837086561048761679,227853,182694,206389,1344
1783771360951302464,2026-07-11T19:02:40.951+07:00,837086561048761679,227937,182802,206426,1388
1783771360969484282,2026-07-11T19:02:40.969+07:00,837086561048761679,228105,182878,206587,1379
1783771360987666100,2026-07-11T19:02:40.987+07:00,837086561048761679,228218,182985,206612,1338
1783771361005847918,2026-07-11T19:02:41.005+07:00,837086561048761679,228302,183057,206749,1284
1783771361024029736,2026-07-11T19:02:41.024+07:00,837086561048761679,228434,183242,206983,1296
1783771361042211554,2026-07-11T19:02:41.042+07:00,837086561048761679,228607,183431,207076,1325
1783771361060393372,2026-07-11T19:02:41.060+07:00,837086561048761679,228709,183543,207198,1344
1783771361078575190,2026-07-11T19:02:41.078+07:00,837086561048761679,228818,183638,207318,1297
1783771361096757008,2026-07-11T19:02:41.096+07:00,837086561048761679,229004,183784,207489,1340
1783771361114938826,2026-07-11T19:02:41.114+07:00,837086561048761679,229119,183947,207608,1379
1783771361133120644,2026-07-11T19:02:41.133+07:00,837086561048761679,229255,184078,207716,1316
1783771361151302462,2026-07-11T19:02:41.151+07:00,837086561048761679,229398,184172,207834,1335
1783771361169484280,2026-07-11T19:02:41.169+07:00,837086561048761679,229502,184259,208005,1326
1783771361187666098,2026-07-11T19:02:41.187+07:00,837086561048761679,229706,184440,208162,1316
1783771361205847916,2026-07-11T19:02:41.205+07:00,837086561048761679,229824,184593,208304,1306
1783771361224029734,2026-07-11T19:02:41.224+07:00,837086561048761679,229920,184663,208394,1317
1783771361242211552,2026-07-11T19:02:41.242+07:00,837086561048761679,229890,184653,208388,1340
1783771361260393370,2026-07-11T19:02:41.260+07:00,837086561813039211,229846,184550,208313,1365
1783771361278575188,2026-07-11T19:02:41.278+07:00,837086561813039211,229734,184472,208230,1376
1783771361296757006,2026-07-11T19:02:41.296+07:00,837086561813039211,229650,184466,208218,1353
1783771361314938824,2026-07-11T19:02:41.314+07:00,837086561813039211,229567,184414,208150,1297
1783771361333120642,2026-07-11T19:02:41.333+07:00,837086561813039211,229586,184414,208265,1332
1783771361351302460,2026-07-11T19:02:41.351+07:00,837086561813039211,229669,184419,208291,1366
1783771361369484278,2026-07-11T19:02:41.369+07:00,837086561813039211,229755,184485,208389,1375
1783771361387666096,2026-07-11T19:02:41.387+07:00,837086561813039211,229812,184565,208508,1351
1783771361405847914,2026-07-11T19:02:41.405+07:00,837086561813039211,229876,184697,208640,1301
1783771361424029732,2026-07-11T19:02:41.424+07:00,837086561813039211,230097,184867,208784,1341
1783771361442211550,2026-07-11T19:02:41.442+07:00,837086561813039211,230205,184968,208876,1342
1783771361460393368,2026-07-11T19:02:41.460+07:00,837086561813039211,230290,185095,209041,1342
1783771361478575186,2026-07-11T19:02:41.478+07:00,837086561813039211,230484,185221,209152,1397
1783771361496757004,2026-07-11T19:02:41.496+07:00,837086561813039211,230544,185329,209262,1357
1783771361514938822,2026-07-11T19:02:41.514+07:00,837086561813039211,230669,185503,209365,1374
1783771361533120640,2026-07-11T19:02:41.533+07:00,837086561813039211,230753,185591,209426,1389
1783771361551302458,2026-07-11T19:02:41.551+07:00,837086561813039211,230818,185652,209506,1310
1783771361569484276,2026-07-11T19:02:41.569+07:00,837086561813039211,230929,185696,209669,1348
1783771361587666094,2026-07-11T19:02:41.587+07:00,837086561813039211,230958,185839,209777,1300
1783771361605847912,2026-07-11T19:02:41.605+07:00,837086561813039211,231125,185993,209912,1350
1783771361624029730,2026-07-11T19:02:41.624+07:00,837086561813039211,231150,186063,209937,1259
1783771361642211548,2026-07-11T19:02:41.642+07:00,837086561813039211,231307,186220,210095,1271
1783771361660393366,2026-07-11T19:02:41.660+07:00,837086561813039211,231457,186412,210192,1348
1783771361678575184,2026-07-11T19:02:41.678+07:00,837086561813039211,231581,186511,210313,1354
1783771361696757002,2026-07-11T19:02:41.696+07:00,837086561813039211,231703,186607,210478,1283
1783771361714938820,2026-07-11T19:02:41.714+07:00,837086561813039211,231845,186755,210564,1349
1783771361733120638,2026-07-11T19:02:41.733+07:00,837086561813039211,232000,186900,210753,1317
1783771361751302456,2026-07-11T19:02:41.751+07:00,837086561813039211,232084,186989,210841,1370
1783771361769484274,2026-07-11T19:02:41.769+07:00,837086561813039211,232198,187142,210911,1311
1783771361787666092,2026-07-11T19:02:41.787+07:00,837086561813039211,232343,187288,211032,1303
1783771361805847910,2026-07-11T19:02:41.805+07:00,837086561813039211,232428,187426,211144,1300
1783771361824029728,2026-07-11T19:02:41.824+07:00,837086561813039211,232580,187581,211297,1289
1783771361842211546,2026-07-11T19:02:41.842+07:00,837086561813039211,232651,187682,211426,1355
1783771361860393364,2026-07-11T19:02:41.860+07:00,837086561813039211,232656,187667,211395,1315
1783771361878575182,2026-07-11T19:02:41.878+07:00,837086561813039211,232591,187604,211334,1313
1783771361896757000,2026-07-11T19:02:41.896+07:00,837086561813039211,232427,187426,211228,1322
1783771361914938818,2026-07-11T19:02:41.914+07:00,837086561813039211,232340,187300,211039,1319
1783771361933120636,2026-07-11T19:02:41.933+07:00,837086561813039211,232272,187280,210982,1375
1783771361951302454,2026-07-11T19:02:41.951+07:00,837086561813039211,232191,187209,211000,1314
1783771361969484272,2026-07-11T19:02:41.969+07:00,837086561813039211,232187,187216,211004,1285
1783771361987666090,2026-07-11T19:02:41.987+07:00,837086561813039211,232187,187261,210984,1291
1783771362005847908,2026-07-11T19:02:42.005+07:00,837086561813039211,232307,187313,211064,1317
1783771362024029726,2026-07-11T19:02:42.024+07:00,837086562577299959,232302,187342,211123,1300
1783771362042211544,2026-07-11T19:02:42.042+07:00,837086562577299959,232401,187473,211221,1287
1783771362060393362,2026-07-11T19:02:42.060+07:00,837086562577299959,232511,187579,211343,1311
1783771362078575180,2026-07-11T19:02:42.078+07:00,837086562577299959,232640,187699,211466,1314
1783771362096756998,2026-07-11T19:02:42.096+07:00,837086562577299959,232709,187785,211575,1328
1783771362114938816,2026-07-11T19:02:42.114+07:00,837086562577299959,232784,187858,211666,1271
1783771362133120634,2026-07-11T19:02:42.133+07:00,837086562577299959,232869,187922,211731,1299
1783771362151302452,2026-07-11T19:02:42.151+07:00,837086562577299959,232878,187949,211732,1290
1783771362169484270,2026-07-11T19:02:42.169+07:00,837086562577299959,232997,188069,211842,1303
1783771362187666088,2026-07-11T19:02:42.187+07:00,837086562577299959,233046,188156,211884,1253
1783771362205847906,2026-07-11T19:02:42.205+07:00,837086562577299959,233129,188223,211982,1309
1783771362224029724,2026-07-11T19:02:42.224+07:00,837086562577299959,233208,188327,212035,1319
1783771362242211542,2026-07-11T19:02:42.242+07:00,837086562577299959,233303,188397,212133,1309
1783771362260393360,2026-07-11T19:02:42.260+07:00,837086562577299959,233402,188526,212291,1291
1783771362278575178,2026-07-11T19:02:42.278+07:00,837086562577299959,233507,188635,212396,1267
1783771362296756996,2026-07-11T19:02:42.296+07:00,837086562577299959,233596,188821,212601,1333
1783771362314938814,2026-07-11T19:02:42.314+07:00,837086562577299959,233747,188939,212707,1333
1783771362333120632,2026-07-11T19:02:42.333+07:00,837086562577299959,233929,189012,212902,1296
1783771362351302450,2026-07-11T19:02:42.351+07:00,837086562577299959,234029,189130,212943,1274
1783771362369484268,2026-07-11T19:02:42.369+07:00,837086562577299959,234208,189303,213151,1328
1783771362387666086,2026-07-11T19:02:42.387+07:00,837086562577299959,234286,189441,213248,1305
1783771362405847904,2026-07-11T19:02:42.405+07:00,837086562577299959,234414,189542,213358,1283
1783771362424029722,2026-07-11T19:02:42.424+07:00,837086562577299959,234616,189680,213521,1337
1783771362442211540,2026-07-11T19:02:42.442+07:00,837086562577299959,234670,189738,213549,1338
1783771362460393358,2026-07-11T19:02:42.460+07:00,837086562577299959,234662,189831,213620,1293
1783771362478575176,2026-07-11T19:02:42.478+07:00,837086562577299959,234565,189714,213487,1286
1783771362496756994,2026-07-11T19:02:42.496+07:00,837086562577299959,234486,189647,213354,1259
1783771362514938812,2026-07-11T19:02:42.514+07:00,837086562577299959,234354,189564,213282,1317
1783771362533120630,2026-07-11T19:02:42.533+07:00,837086562577299959,234218,189430,213181,1330
1783771362551302448,2026-07-11T19:02:42.551+07:00,837086562577299959,234179,189397,213178,1294
1783771362569484266,2026-07-11T19:02:42.569+07:00,837086562577299959,234134,189349,213131,1298
1783771362587666084,2026-07-11T19:02:42.587+07:00,837086562577299959,234110,189383,213172,1353
1783771362605847902,2026-07-11T19:02:42.605+07:00,837086562577299959,234099,189441,213242,1319
1783771362624029720,2026-07-11T19:02:42.624+07:00,837086562577299959,234135,189454,213196,1296
1783771362642211538,2026-07-11T19:02:42.642+07:00,837086562577299959,234163,189550,213255,1229
1783771362660393356,2026-07-11T19:02:42.660+07:00,837086562577299959,234394,189707,213364,1340
1783771362678575174,2026-07-11T19:02:42.678+07:00,837086562577299959,234411,189763,213393,1296
1783771362696756992,2026-07-11T19:02:42.696+07:00,837086562577299959,234485,189833,213449,1304
1783771362714938810,2026-07-11T19:02:42.714+07:00,837086562577299959,234509,189892,213497,1309
1783771362733120628,2026-07-11T19:02:42.733+07:00,837086562577299959,234593,189941,213592,1372
1783771362751302446,2026-07-11T19:02:42.751+07:00,837086562577299959,234626,190034,213611,1283
1783771362769484264,2026-07-11T19:02:42.769+07:00,837086562577299959,234594,190016,213608,1256
1783771362787666082,2026-07-11T19:02:42.787+07:00,837086563341594275,234686,190171,213639,1317
1783771362805847900,2026-07-11T19:02:42.805+07:00,837086563341594275,234628,190151,213665,1347
1783771362824029718,2026-07-11T19:02:42.824+07:00,837086563341594275,234728,190187,213714,1296
1783771362842211536,2026-07-11T19:02:42.842+07:00,837086563341594275,234807,190259,213791,1280
1783771362860393354,2026-07-11T19:02:42.860+07:00,837086563341594275,234835,190334,213790,1365
1783771362878575172,2026-07-11T19:02:42.878+07:00,837086563341594275,234927,190459,213918,1414
1783771362896756990,2026-07-11T19:02:42.896+07:00,837086563341594275,235141,190527,214014,1325
1783771362914938808,2026-07-11T19:02:42.914+07:00,837086563341594275,235217,190669,214178,1324
1783771362933120626,2026-07-11T19:02:42.933+07:00,837086563341594275,235384,190784,214283,1319
1783771362951302444,2026-07-11T19:02:42.951+07:00,837086563341594275,235509,190923,214433,1350
1783771362969484262,2026-07-11T19:02:42.969+07:00,837086563341594275,235674,191088,214618,1359
1783771362987666080,2026-07-11T19:02:42.987+07:00,837086563341594275,235788,191206,214745,1378
1783771363005847898,2026-07-11T19:02:43.005+07:00,837086563341594275,235955,191355,214947,1302
1783771363024029716,2026-07-11T19:02:43.024+07:00,837086563341594275,236122,191551,215136,1367
1783771363042211534,2026-07-11T19:02:43.042+07:00,837086563341594275,236170,191617,215137,1322
1783771363060393352,2026-07-11T19:02:43.060+07:00,837086563341594275,236188,191630,215189,1315
1783771363078575170,2026-07-11T19:02:43.078+07:00,837086563341594275,236132,191620,215093,1334
1783771363096756988,2026-07-11T19:02:43.096+07:00,837086563341594275,235874,191390,214888,1319
1783771363114938806,2026-07-11T19:02:43.114+07:00,837086563341594275,235733,191292,214757,1300
1783771363133120624,2026-07-11T19:02:43.133+07:00,837086563341594275,235639,191144,214634,1319
1783771363151302442,2026-07-11T19:02:43.151+07:00,837086563341594275,235443,191071,214507,1331
1783771363169484260,2026-07-11T19:02:43.169+07:00,837086563341594275,235386,190978,214460,1343
1783771363187666078,2026-07-11T19:02:43.187+07:00,837086563341594275,235323,191056,214426,1341
1783771363205847896,2026-07-11T19:02:43.205+07:00,837086563341594275,235284,191016,214441,1322
1783771363224029714,2026-07-11T19:02:43.224+07:00,837086563341594275,235316,190965,214419,1325
1783771363242211532,2026-07-11T19:02:43.242+07:00,837086563341594275,235350,191032,214478,1337
1783771363260393350,2026-07-11T19:02:43.260+07:00,837086563341594275,235417,191146,214468,1339
1783771363278575168,2026-07-11T19:02:43.278+07:00,837086563341594275,235441,191191,214526,1321
1783771363296756986,2026-07-11T19:02:43.296+07:00,837086563341594275,235485,191213,214528,1390
1783771363314938804,2026-07-11T19:02:43.314+07:00,837086563341594275,235507,191247,214555,1315
1783771363333120622,2026-07-11T19:02:43.333+07:00,837086563341594275,235565,191319,214649,1357
1783771363351302440,2026-07-11T19:02:43.351+07:00,837086563341594275,235571,191285,214617,1411
1783771363369484258,2026-07-11T19:02:43.369+07:00,837086563341594275,235635,191399,214604,1421
1783771363387666076,2026-07-11T19:02:43.387+07:00,837086563341594275,235690,191335,214666,1353
1783771363405847894,2026-07-11T19:02:43.405+07:00,837086563341594275,235709,191366,214761,1343
1783771363424029712,2026-07-11T19:02:43.424+07:00,837086563341594275,235735,191424,214752,1347
1783771363442211530,2026-07-11T19:02:43.442+07:00,837086563341594275,235782,191601,214797,1361
1783771363460393348,2026-07-11T19:02:43.460+07:00,837086563341594275,235841,191648,214891,1337
1783771363478575166,2026-07-11T19:02:43.478+07:00,837086563341594275,235878,191667,214975,1288
1783771363496756984,2026-07-11T19:02:43.496+07:00,837086563341594275,236013,191752,215141,1324
1783771363514938802,2026-07-11T19:02:43.514+07:00,837086563341594275,236107,191873,215262,1313
1783771363533120620,2026-07-11T19:02:43.533+07:00,837086563341594275,236237,191998,215325,1315
1783771363551302438,2026-07-11T19:02:43.551+07:00,837086564105891645,236352,192097,215485,1332
1783771363569484256,2026-07-11T19:02:43.569+07:00,837086564105891645,236497,192246,215629,1259
1783771363587666074,2026-07-11T19:02:43.587+07:00,837086564105891645,236651,192377,215759,1335
1783771363605847892,2026-07-11T19:02:43.605+07:00,837086564105891645,236773,192522,215909,1335
1783771363624029710,2026-07-11T19:02:43.624+07:00,837086564105891645,236886,192632,216045,1284
1783771363642211528,2026-07-11T19:02:43.642+07:00,837086564105891645,237003,192714,216154,1311
1783771363660393346,2026-07-11T19:02:43.660+07:00,837086564105891645,237050,192804,216246,1268
1783771363678575164,2026-07-11T19:02:43.678+07:00,837086564105891645,237127,192850,216243,1387
1783771363696756982,2026-07-11T19:02:43.696+07:00,837086564105891645,236958,192638,216050,1362
1783771363714938800,2026-07-11T19:02:43.714+07:00,837086564105891645,236774,192499,215908,1339
1783771363733120618,2026-07-11T19:02:43.733+07:00,837086564105891645,236521,192289,215640,1305
1783771363751302436,2026-07-11T19:02:43.751+07:00,837086564105891645,236333,192192,215506,1289
1783771363769484254,2026-07-11T19:02:43.769+07:00,837086564105891645,236172,192036,215449,1250
1783771363787666072,2026-07-11T19:02:43.787+07:00,837086564105891645,236120,192043,215415,1293
1783771363805847890,2026-07-11T19:02:43.805+07:00,837086564105891645,236059,191970,215356,1324
1783771363824029708,2026-07-11T19:02:43.824+07:00,837086564105891645,236073,192018,215404,1289
1783771363842211526,2026-07-11T19:02:43.842+07:00,837086564105891645,236070,192115,215338,1285
1783771363860393344,2026-07-11T19:02:43.860+07:00,837086564105891645,236114,192212,215365,1277
1783771363878575162,2026-07-11T19:02:43.878+07:00,837086564105891645,236207,192241,215448,1354
1783771363896756980,2026-07-11T19:02:43.896+07:00,837086564105891645,236259,192286,215469,1277
1783771363914938798,2026-07-11T19:02:43.914+07:00,837086564105891645,236267,192316,215404,1322
1783771363933120616,2026-07-11T19:02:43.933+07:00,837086564105891645,236306,192405,215450,1328
1783771363951302434,2026-07-11T19:02:43.951+07:00,837086564105891645,236377,192406,215514,1309
1783771363969484252,2026-07-11T19:02:43.969+07:00,837086564105891645,236330,192388,215445,1319
1783771363987666070,2026-07-11T19:02:43.987+07:00,837086564105891645,236320,192387,215436,1337
1783771364005847888,2026-07-11T19:02:44.005+07:00,837086564105891645,236379,192436,215440,1299
1783771364024029706,2026-07-11T19:02:44.024+07:00,837086564105891645,236389,192475,215418,1311
1783771364042211524,2026-07-11T19:02:44.042+07:00,837086564105891645,236501,192467,215518,1384
1783771364060393342,2026-07-11T19:02:44.060+07:00,837086564105891645,236574,192564,215542,1350
1783771364078575160,2026-07-11T19:02:44.078+07:00,837086564105891645,236649,192647,215644,1336
1783771364096756978,2026-07-11T19:02:44.096+07:00,837086564105891645,236646,192728,215744,1375
1783771364114938796,2026-07-11T19:02:44.114+07:00,837086564105891645,236813,192836,215845,1371
1783771364133120614,2026-07-11T19:02:44.133+07:00,837086564105891645,236888,192946,215973,1304
1783771364151302432,2026-07-11T19:02:44.151+07:00,837086564105891645,237010,192991,216058,1282
1783771364169484250,2026-07-11T19:02:44.169+07:00,837086564105891645,237063,193109,216140,1273
1783771364187666068,2026-07-11T19:02:44.187+07:00,837086564105891645,237206,193264,216213,1300
1783771364205847886,2026-07-11T19:02:44.205+07:00,837086564105891645,237335,193349,216366,1370
1783771364224029704,2026-07-11T19:02:44.224+07:00,837086564105891645,237441,193463,216427,1300
1783771364242211522,2026-07-11T19:02:44.242+07:00,837086564105891645,237540,193575,216550,1337
1783771364260393340,2026-07-11T19:02:44.260+07:00,837086564105891645,237607,193654,216633,1362
1783771364278575158,2026-07-11T19:02:44.278+07:00,837086564105891645,237621,193629,216622,1376
1783771364296756976,2026-07-11T19:02:44.296+07:00,837086564105891645,237537,193560,216533,1414
1783771364314938794,2026-07-11T19:02:44.314+07:00,837086564888400630,237316,193365,216279,1310
1783771364333120612,2026-07-11T19:02:44.333+07:00,837086564888400630,236943,193088,215958,1388
1783771364351302430,2026-07-11T19:02:44.351+07:00,837086564888400630,236666,192842,215693,1387
1783771364369484248,2026-07-11T19:02:44.369+07:00,837086564888400630,236446,192608,215462,1347
1783771364387666066,2026-07-11T19:02:44.387+07:00,837086564888400630,236290,192524,215286,1370
1783771364405847884,2026-07-11T19:02:44.405+07:00,837086564888400630,236172,192301,215109,1354
1783771364424029702,2026-07-11T19:02:44.424+07:00,837086564888400630,236095,192281,215131,1389
1783771364442211520,2026-07-11T19:02:44.442+07:00,837086564888400630,235995,192234,215098,1422
1783771364460393338,2026-07-11T19:02:44.460+07:00,837086564888400630,236032,192247,215081,1369
1783771364478575156,2026-07-11T19:02:44.478+07:00,837086564888400630,236023,192239,215120,1373
1783771364496756974,2026-07-11T19:02:44.496+07:00,837086564888400630,236006,192303,215114,1359
1783771364514938792,2026-07-11T19:02:44.514+07:00,837086564888400630,236072,192305,215072,1357
1783771364533120610,2026-07-11T19:02:44.533+07:00,837086564888400630,236088,192383,215119,1359
1783771364551302428,2026-07-11T19:02:44.551+07:00,837086564888400630,236096,192417,215130,1382
1783771364569484246,2026-07-11T19:02:44.569+07:00,837086564888400630,236093,192386,215169,1319
1783771364587666064,2026-07-11T19:02:44.587+07:00,837086564888400630,236177,192409,215198,1314
1783771364605847882,2026-07-11T19:02:44.605+07:00,837086564888400630,236159,192419,215244,1382
1783771364624029700,2026-07-11T19:02:44.624+07:00,837086564888400630,236130,192402,215151,1343
1783771364642211518,2026-07-11T19:02:44.642+07:00,837086564888400630,236141,192447,215228,1360
1783771364660393336,2026-07-11T19:02:44.660+07:00,837086564888400630,236259,192538,215290,1347
1783771364678575154,2026-07-11T19:02:44.678+07:00,837086564888400630,236328,192591,215384,1391
1783771364696756972,2026-07-11T19:02:44.696+07:00,837086564888400630,236358,192610,215422,1369
1783771364714938790,2026-07-11T19:02:44.714+07:00,837086564888400630,236428,192731,215527,1351
1783771364733120608,2026-07-11T19:02:44.733+07:00,837086564888400630,236560,192804,215645,1333
1783771364751302426,2026-07-11T19:02:44.751+07:00,837086564888400630,236608,192903,215721,1341
1783771364769484244,2026-07-11T19:02:44.769+07:00,837086564888400630,236677,193003,215761,1301
1783771364787666062,2026-07-11T19:02:44.787+07:00,837086564888400630,236856,193235,215916,1340
1783771364805847880,2026-07-11T19:02:44.805+07:00,837086564888400630,236961,193217,215965,1331
1783771364824029698,2026-07-11T19:02:44.824+07:00,837086564888400630,237066,193355,216063,1319
1783771364842211516,2026-07-11T19:02:44.842+07:00,837086564888400630,237217,193468,216231,1359
1783771364860393334,2026-07-11T19:02:44.860+07:00,837086564888400630,237349,193531,216328,1350
1783771364878575152,2026-07-11T19:02:44.878+07:00,837086564888400630,237340,193560,216390,1332
1783771364896756970,2026-07-11T19:02:44.896+07:00,837086564888400630,237197,193485,216257,1307
1783771364914938788,2026-07-11T19:02:44.914+07:00,837086564888400630,236986,193215,215990,1302
1783771364933120606,2026-07-11T19:02:44.933+07:00,837086564888400630,236633,192898,215637,1319
1783771364951302424,2026-07-11T19:02:44.951+07:00,837086564888400630,236251,192585,215316,1276
1783771364969484242,2026-07-11T19:02:44.969+07:00,837086564888400630,235984,192263,214963,1315
1783771364987666060,2026-07-11T19:02:44.987+07:00,837086564888400630,235787,192134,214753,1384
1783771365005847878,2026-07-11T19:02:45.005+07:00,837086564888400630,235553,191893,214527,1324
1783771365024029696,2026-07-11T19:02:45.024+07:00,837086564888400630,235423,191756,214439,1313
1783771365042211514,2026-07-11T19:02:45.042+07:00,837086564888400630,235288,191719,214348,1354
1783771365060393332,2026-07-11T19:02:45.060+07:00,837086564888400630,235204,191661,214306,1310
1783771365078575150,2026-07-11T19:02:45.078+07:00,837086564888400630,235258,191625,214271,1322
1783771365096756968,2026-07-11T19:02:45.096+07:00,837086565652626278,235271,191588,214246,1336
1783771365114938786,2026-07-11T19:02:45.114+07:00,837086565652626278,235232,191699,214277,1307
1783771365133120604,2026-07-11T19:02:45.133+07:00,837086565652626278,235300,191725,214326,1351
1783771365151302422,2026-07-11T19:02:45.151+07:00,837086565652626278,235296,191746,214362,1362
1783771365169484240,2026-07-11T19:02:45.169+07:00,837086565652626278,235346,191736,214369,1347
1783771365187666058,2026-07-11T19:02:45.187+07:00,837086565652626278,235320,191628,214319,1350
1783771365205847876,2026-07-11T19:02:45.205+07:00,837086565652626278,235267,191590,214266,1320
1783771365224029694,2026-07-11T19:02:45.224+07:00,837086565652626278,235224,191621,214247,1344
1783771365242211512,2026-07-11T19:02:45.242+07:00,837086565652626278,235262,191653,214232,1322
1783771365260393330,2026-07-11T19:02:45.260+07:00,837086565652626278,235259,191658,214254,1301
1783771365278575148,2026-07-11T19:02:45.278+07:00,837086565652626278,235365,191717,214368,1336
1783771365296756966,2026-07-11T19:02:45.296+07:00,837086565652626278,235388,191724,214346,1275
1783771365314938784,2026-07-11T19:02:45.314+07:00,837086565652626278,235442,191912,214463,1283
1783771365333120602,2026-07-11T19:02:45.333+07:00,837086565652626278,235560,191929,214511,1326
1783771365351302420,2026-07-11T19:02:45.351+07:00,837086565652626278,235607,191991,214640,1336
1783771365369484238,2026-07-11T19:02:45.369+07:00,837086565652626278,235798,192134,214734,1358
1783771365387666056,2026-07-11T19:02:45.387+07:00,837086565652626278,235882,192206,214783,1306
1783771365405847874,2026-07-11T19:02:45.405+07:00,837086565652626278,235959,192261,214877,1332
1783771365424029692,2026-07-11T19:02:45.424+07:00,837086565652626278,236021,192296,214977,1285
1783771365442211510,2026-07-11T19:02:45.442+07:00,837086565652626278,236183,192454,215044,1276
1783771365460393328,2026-07-11T19:02:45.460+07:00,837086565652626278,236313,192581,215239,1368
1783771365478575146,2026-07-11T19:02:45.478+07:00,837086565652626278,236408,192631,215290,1344
1783771365496756964,2026-07-11T19:02:45.496+07:00,837086565652626278,236291,192527,215173,1340
1783771365514938782,2026-07-11T19:02:45.514+07:00,837086565652626278,236065,192312,214951,1365
1783771365533120600,2026-07-11T19:02:45.533+07:00,837086565652626278,235716,192019,214612,1356
1783771365551302418,2026-07-11T19:02:45.551+07:00,837086565652626278,235304,191617,214163,1361
1783771365569484236,2026-07-11T19:02:45.569+07:00,837086565652626278,234988,191332,213839,1362
1783771365587666054,2026-07-11T19:02:45.587+07:00,837086565652626278,234651,190978,213551,1351
1783771365605847872,2026-07-11T19:02:45.605+07:00,837086565652626278,234462,190864,213329,1425
1783771365624029690,2026-07-11T19:02:45.624+07:00,837086565652626278,234262,190671,213165,1370
1783771365642211508,2026-07-11T19:02:45.642+07:00,837086565652626278,234150,190616,213087,1336
1783771365660393326,2026-07-11T19:02:45.660+07:00,837086565652626278,234038,190572,213006,1357
1783771365678575144,2026-07-11T19:02:45.678+07:00,837086565652626278,234005,190464,212977,1306
1783771365696756962,2026-07-11T19:02:45.696+07:00,837086565652626278,234074,190445,212989,1379
1783771365714938780,2026-07-11T19:02:45.714+07:00,837086565652626278,234108,190529,213028,1392
1783771365733120598,2026-07-11T19:02:45.733+07:00,837086565652626278,234106,190548,213054,1341
1783771365751302416,2026-07-11T19:02:45.751+07:00,837086565652626278,234089,190509,213034,1366
1783771365769484234,2026-07-11T19:02:45.769+07:00,837086565652626278,234185,190572,213099,1372
1783771365787666052,2026-07-11T19:02:45.787+07:00,837086565652626278,234088,190517,213078,1393
1783771365805847870,2026-07-11T19:02:45.805+07:00,837086565652626278,234126,190561,213023,1345
1783771365824029688,2026-07-11T19:02:45.824+07:00,837086565652626278,234098,190523,212988,1320
1783771365842211506,2026-07-11T19:02:45.842+07:00,837086565652626278,234105,190607,213026,1338
1783771365860393324,2026-07-11T19:02:45.860+07:00,837086566435036091,234159,190620,213124,1365
1783771365878575142,2026-07-11T19:02:45.878+07:00,837086566435036091,234206,190623,213120,1322
1783771365896756960,2026-07-11T19:02:45.896+07:00,837086566435036091,234251,190656,213180,1351
1783771365914938778,2026-07-11T19:02:45.914+07:00,837086566435036091,234330,190625,213184,1371
1783771365933120596,2026-07-11T19:02:45.933+07:00,837086566435036091,234399,190705,213356,1347
1783771365951302414,2026-07-11T19:02:45.951+07:00,837086566435036091,234484,190830,213402,1352
1783771365969484232,2026-07-11T19:02:45.969+07:00,837086566435036091,234615,191016,213507,1370
1783771365987666050,2026-07-11T19:02:45.987+07:00,837086566435036091,234673,191031,213581,1393
1783771366005847868,2026-07-11T19:02:46.005+07:00,837086566435036091,234842,191134,213673,1416
1783771366024029686,2026-07-11T19:02:46.024+07:00,837086566435036091,234916,191213,213773,1351
1783771366042211504,2026-07-11T19:02:46.042+07:00,837086566435036091,234967,191283,213848,1285
1783771366060393322,2026-07-11T19:02:46.060+07:00,837086566435036091,235015,191284,213869,1331
1783771366078575140,2026-07-11T19:02:46.078+07:00,837086566435036091,234818,191154,213695,1359
1783771366096756958,2026-07-11T19:02:46.096+07:00,837086566435036091,234491,190827,213389,1341
1783771366114938776,2026-07-11T19:02:46.114+07:00,837086566435036091,234080,190448,212982,1331
1783771366133120594,2026-07-11T19:02:46.133+07:00,837086566435036091,233694,190081,212554,1269
1783771366151302412,2026-07-11T19:02:46.151+07:00,837086566435036091,233422,189839,212207,1286
1783771366169484230,2026-07-11T19:02:46.169+07:00,837086566435036091,233120,189595,211998,1309
1783771366187666048,2026-07-11T19:02:46.187+07:00,837086566435036091,233002,189427,211800,1274
1783771366205847866,2026-07-11T19:02:46.205+07:00,837086566435036091,232814,189277,211688,1298
1783771366224029684,2026-07-11T19:02:46.224+07:00,837086566435036091,232768,189217,211624,1354
1783771366242211502,2026-07-11T19:02:46.242+07:00,837086566435036091,232702,189181,211618,1296
1783771366260393320,2026-07-11T19:02:46.260+07:00,837086566435036091,232770,189234,211728,1379
1783771366278575138,2026-07-11T19:02:46.278+07:00,837086566435036091,232781,189304,211715,1319
1783771366296756956,2026-07-11T19:02:46.296+07:00,837086566435036091,232814,189308,211747,1336
1783771366314938774,2026-07-11T19:02:46.314+07:00,837086566435036091,232866,189326,211771,1305
1783771366333120592,2026-07-11T19:02:46.333+07:00,837086566435036091,232922,189391,211748,1297
1783771366351302410,2026-07-11T19:02:46.351+07:00,837086566435036091,232897,189340,211767,1297
1783771366369484228,2026-07-11T19:02:46.369+07:00,837086566435036091,232876,189286,211731,1286
1783771366387666046,2026-07-11T19:02:46.387+07:00,837086566435036091,232884,189292,211762,1299
1783771366405847864,2026-07-11T19:02:46.405+07:00,837086566435036091,232870,189322,211755,1353
1783771366424029682,2026-07-11T19:02:46.424+07:00,837086566435036091,232874,189305,211721,1291
1783771366442211500,2026-07-11T19:02:46.442+07:00,837086566435036091,232942,189354,211783,1298
1783771366460393318,2026-07-11T19:02:46.460+07:00,837086566435036091,232978,189427,211874,1350
1783771366478575136,2026-07-11T19:02:46.478+07:00,837086566435036091,233013,189472,211950,1378
1783771366496756954,2026-07-11T19:02:46.496+07:00,837086566435036091,233092,189547,212049,1359
1783771366514938772,2026-07-11T19:02:46.514+07:00,837086566435036091,233257,189667,212121,1339
1783771366533120590,2026-07-11T19:02:46.533+07:00,837086566435036091,233327,189736,212278,1319
1783771366551302408,2026-07-11T19:02:46.551+07:00,837086566435036091,233468,189857,212378,1377
1783771366569484226,2026-07-11T19:02:46.569+07:00,837086566435036091,233572,189964,212506,1369
1783771366587666044,2026-07-11T19:02:46.587+07:00,837086566435036091,233616,190001,212472,1349
1783771366605847862,2026-07-11T19:02:46.605+07:00,837086566435036091,233523,189862,212349,1344
1783771366624029680,2026-07-11T19:02:46.624+07:00,837086566435036091,233247,189604,212104,1327
1783771366642211498,2026-07-11T19:02:46.642+07:00,837086567199283105,232824,189257,211689,1324
1783771366660393316,2026-07-11T19:02:46.660+07:00,837086567199283105,232496,188895,211330,1350
1783771366678575134,2026-07-11T19:02:46.678+07:00,837086567199283105,232116,188587,210941,1344
1783771366696756952,2026-07-11T19:02:46.696+07:00,837086567199283105,231801,188335,210687,1331
1783771366714938770,2026-07-11T19:02:46.714+07:00,837086567199283105,231643,188197,210495,1344
1783771366733120588,2026-07-11T19:02:46.733+07:00,837086567199283105,231505,188088,210398,1354
1783771366751302406,2026-07-11T19:02:46.751+07:00,837086567199283105,231388,187979,210322,1305
1783771366769484224,2026-07-11T19:02:46.769+07:00,837086567199283105,231424,187958,210321,1345
