host_timestamp_ns,host_timestamp_iso,pmd_timestamp,ppg0,ppg1,ppg2,ambient
1783771280053276414,2026-07-11T19:01:20.053+07:00,837086480201853968,285441,237499,255031,1297
1783771280071458232,2026-07-11T19:01:20.071+07:00,837086480201853968,285554,237540,255128,1405
1783771280089640050,2026-07-11T19:01:20.089+07:00,837086480201853968,285501,237534,255120,1369
1783771280107821868,2026-07-11T19:01:20.107+07:00,837086480201853968,285547,237534,255242,1347
1783771280126003686,2026-07-11T19:01:20.126+07:00,837086480201853968,285629,237568,255320,1362
1783771280144185504,2026-07-11T19:01:20.144+07:00,837086480201853968,285568,237502,255286,1304
1783771280162367322,2026-07-11T19:01:20.162+07:00,837086480201853968,285578,237450,255372,1327
1783771280180549140,2026-07-11T19:01:20.180+07:00,837086480201853968,285526,237361,255302,1300
1783771280198730958,2026-07-11T19:01:20.198+07:00,837086480201853968,285469,237243,255212,1348
1783771280216912776,2026-07-11T19:01:20.216+07:00,837086480201853968,285414,237111,255174,1331
1783771280235094594,2026-07-11T19:01:20.235+07:00,837086480201853968,285292,236995,255129,1326
1783771280253276412,2026-07-11T19:01:20.253+07:00,837086480201853968,285184,236901,255074,1338
1783771280271458230,2026-07-11T19:01:20.271+07:00,837086480201853968,285193,236825,255122,1373
1783771280289640048,2026-07-11T19:01:20.289+07:00,837086480201853968,285163,236801,255135,1368
1783771280307821866,2026-07-11T19:01:20.307+07:00,837086480201853968,285151,236754,255112,1330
1783771280326003684,2026-07-11T19:01:20.326+07:00,837086480201853968,285172,236694,255208,1345
1783771280344185502,2026-07-11T19:01:20.344+07:00,837086480201853968,285243,236663,255289,1302
1783771280362367320,2026-07-11T19:01:20.362+07:00,837086480201853968,285195,236585,255382,1305
1783771280380549138,2026-07-11T19:01:20.380+07:00,837086480201853968,285250,236584,255427,1280
1783771280398730956,2026-07-11T19:01:20.398+07:00,837086480201853968,285275,236603,255515,1336
1783771280416912774,2026-07-11T19:01:20.416+07:00,837086480201853968,285324,236618,255633,1384
1783771280435094592,2026-07-11T19:01:20.435+07:00,837086480201853968,285337,236515,255639,1288
1783771280453276410,2026-07-11T19:01:20.453+07:00,837086480201853968,285307,236483,255694,1333
1783771280471458228,2026-07-11T19:01:20.471+07:00,837086480201853968,285442,236501,255806,1328
1783771280489640046,2026-07-11T19:01:20.489+07:00,837086480201853968,285426,236444,255802,1314
1783771280507821864,2026-07-11T19:01:20.507+07:00,837086480201853968,285496,236544,255940,1335
1783771280526003682,2026-07-11T19:01:20.526+07:00,837086480201853968,285559,236569,256000,1325
1783771280544185500,2026-07-11T19:01:20.544+07:00,837086480201853968,285614,236630,256138,1360
1783771280562367318,2026-07-11T19:01:20.562+07:00,837086480201853968,285663,236696,256265,1319
1783771280580549136,2026-07-11T19:01:20.580+07:00,837086480201853968,285661,236818,256378,1358
1783771280598730954,2026-07-11T19:01:20.598+07:00,837086480201853968,285664,236720,256360,1355
1783771280616912772,2026-07-11T19:01:20.616+07:00,837086480201853968,285607,236766,256377,1304
1783771280635094590,2026-07-11T19:01:20.635+07:00,837086480201853968,285531,236698,256320,1317
1783771280653276408,2026-07-11T19:01:20.653+07:00,837086480201853968,285563,236640,256301,1330
1783771280671458226,2026-07-11T19:01:20.671+07:00,837086480201853968,285491,236633,256245,1331
1783771280689640044,2026-07-11T19:01:20.689+07:00,837086480201853968,285423,236576,256159,1298
1783771280707821862,2026-07-11T19:01:20.707+07:00,837086480201853968,285427,236605,256196,1313
1783771280726003680,2026-07-11T19:01:20.726+07:00,837086480201853968,285444,236625,256253,1303
1783771280744185498,2026-07-11T19:01:20.744+07:00,837086480201853968,285424,236657,256248,1355
1783771280762367316,2026-07-11T19:01:20.762+07:00,837086480201853968,285481,236702,256314,1339
1783771280780549134,2026-07-11T19:01:20.780+07:00,837086480201853968,285514,236841,256353,1366
1783771280798730952,2026-07-11T19:01:20.798+07:00,837086480201853968,285537,236848,256381,1322
1783771280816912770,2026-07-11T19:01:20.816+07:00,837086480966067412,285525,236927,256461,1270
1783771280835094588,2026-07-11T19:01:20.835+07:00,837086480966067412,285644,237045,256583,1403
1783771280853276406,2026-07-11T19:01:20.853+07:00,837086480966067412,285707,237170,256731,1368
1783771280871458224,2026-07-11T19:01:20.871+07:00,837086480966067412,285752,237231,256761,1332
1783771280889640042,2026-07-11T19:01:20.889+07:00,837086480966067412,285853,237298,256797,1325
1783771280907821860,2026-07-11T19:01:20.907+07:00,837086480966067412,285882,237366,256856,1334
1783771280926003678,2026-07-11T19:01:20.926+07:00,837086480966067412,285967,237375,256904,1280
1783771280944185496,2026-07-11T19:01:20.944+07:00,837086480966067412,286075,237501,256980,1360
1783771280962367314,2026-07-11T19:01:20.962+07:00,837086480966067412,286104,237592,256981,1339
1783771280980549132,2026-07-11T19:01:20.980+07:00,837086480966067412,286152,237688,257080,1314
1783771280998730950,2026-07-11T19:01:20.998+07:00,837086480966067412,286246,237748,257118,1299
1783771281016912768,2026-07-11T19:01:21.016+07:00,837086480966067412,286345,237879,257120,1304
1783771281035094586,2026-07-11T19:01:21.035+07:00,837086480966067412,286528,238015,257223,1332
1783771281053276404,2026-07-11T19:01:21.053+07:00,837086480966067412,286661,238126,257278,1373
1783771281071458222,2026-07-11T19:01:21.071+07:00,837086480966067412,286749,238281,257319,1344
1783771281089640040,2026-07-11T19:01:21.089+07:00,837086480966067412,286825,238275,257323,1314
1783771281107821858,2026-07-11T19:01:21.107+07:00,837086480966067412,286826,238251,257248,1284
1783771281126003676,2026-07-11T19:01:21.126+07:00,837086480966067412,286880,238220,257145,1328
1783771281144185494,2026-07-11T19:01:21.144+07:00,837086480966067412,286747,238136,257001,1285
1783771281162367312,2026-07-11T19:01:21.162+07:00,837086480966067412,286762,238095,256868,1289
1783771281180549130,2026-07-11T19:01:21.180+07:00,837086480966067412,286736,238005,256768,1296
1783771281198730948,2026-07-11T19:01:21.198+07:00,837086480966067412,286675,237963,256682,1235
1783771281216912766,2026-07-11T19:01:21.216+07:00,837086480966067412,286712,237996,256715,1333
1783771281235094584,2026-07-11T19:01:21.235+07:00,837086480966067412,286812,238006,256794,1321
1783771281253276402,2026-07-11T19:01:21.253+07:00,837086480966067412,286827,238030,256749,1314
1783771281271458220,2026-07-11T19:01:21.271+07:00,837086480966067412,286888,238059,256822,1327
1783771281289640038,2026-07-11T19:01:21.289+07:00,837086480966067412,286936,238103,256842,1408
1783771281307821856,2026-07-11T19:01:21.307+07:00,837086480966067412,286969,238034,256940,1368
1783771281326003674,2026-07-11T19:01:21.326+07:00,837086480966067412,286983,237990,256993,1318
1783771281344185492,2026-07-11T19:01:21.344+07:00,837086480966067412,287063,237898,256986,1323
1783771281362367310,2026-07-11T19:01:21.362+07:00,837086480966067412,287153,238016,257140,1349
1783771281380549128,2026-07-11T19:01:21.380+07:00,837086480966067412,287129,237924,257189,1311
1783771281398730946,2026-07-11T19:01:21.398+07:00,837086480966067412,287289,237964,257271,1341
1783771281416912764,2026-07-11T19:01:21.416+07:00,837086480966067412,287329,237982,257389,1335
1783771281435094582,2026-07-11T19:01:21.435+07:00,837086480966067412,287419,238110,257428,1328
1783771281453276400,2026-07-11T19:01:21.453+07:00,837086480966067412,287508,238150,257423,1323
1783771281471458218,2026-07-11T19:01:21.471+07:00,837086480966067412,287557,238193,257515,1291
1783771281489640036,2026-07-11T19:01:21.489+07:00,837086480966067412,287678,238286,257654,1418
1783771281507821854,2026-07-11T19:01:21.507+07:00,837086480966067412,287711,238298,257651,1355
1783771281526003672,2026-07-11T19:01:21.526+07:00,837086480966067412,287717,238333,257640,1326
1783771281544185490,2026-07-11T19:01:21.544+07:00,837086480966067412,287802,238357,257644,1328
1783771281562367308,2026-07-11T19:01:21.562+07:00,837086480966067412,287776,238292,257575,1326
1783771281580549126,2026-07-11T19:01:21.580+07:00,837086481748486369,287680,238207,257445,1316
1783771281598730944,2026-07-11T19:01:21.598+07:00,837086481748486369,287543,238061,257319,1316
1783771281616912762,2026-07-11T19:01:21.616+07:00,837086481748486369,287373,238026,257190,1273
1783771281635094580,2026-07-11T19:01:21.635+07:00,837086481748486369,287291,237849,257054,1318
1783771281653276398,2026-07-11T19:01:21.653+07:00,837086481748486369,287204,237806,256988,1342
1783771281671458216,2026-07-11T19:01:21.671+07:00,837086481748486369,287165,237691,257001,1342
1783771281689640034,2026-07-11T19:01:21.689+07:00,837086481748486369,287047,237573,256911,1232
1783771281707821852,2026-07-11T19:01:21.707+07:00,837086481748486369,287054,237593,256890,1321
1783771281726003670,2026-07-11T19:01:21.726+07:00,837086481748486369,287003,237532,257030,1341
1783771281744185488,2026-07-11T19:01:21.744+07:00,837086481748486369,286997,237498,257023,1285
1783771281762367306,2026-07-11T19:01:21.762+07:00,837086481748486369,287025,237448,257122,1286
1783771281780549124,2026-07-11T19:01:21.780+07:00,837086481748486369,287019,237433,257218,1277
1783771281798730942,2026-07-11T19:01:21.798+07:00,837086481748486369,287028,237395,257295,1299
1783771281816912760,2026-07-11T19:01:21.816+07:00,837086481748486369,286913,237347,257312,1268
1783771281835094578,2026-07-11T19:01:21.835+07:00,837086481748486369,287069,237405,257427,1320
1783771281853276396,2026-07-11T19:01:21.853+07:00,837086481748486369,287192,237480,257507,1378
1783771281871458214,2026-07-11T19:01:21.871+07:00,837086481748486369,287210,237479,257566,1303
1783771281889640032,2026-07-11T19:01:21.889+07:00,837086481748486369,287234,237579,257638,1313
1783771281907821850,2026-07-11T19:01:21.907+07:00,837086481748486369,287257,237592,257701,1325
1783771281926003668,2026-07-11T19:01:21.926+07:00,837086481748486369,287278,237685,257781,1313
1783771281944185486,2026-07-11T19:01:21.944+07:00,837086481748486369,287352,237734,257799,1395
1783771281962367304,2026-07-11T19:01:21.962+07:00,837086481748486369,287389,237705,257815,1292
1783771281980549122,2026-07-11T19:01:21.980+07:00,837086481748486369,287443,237784,257969,1301
1783771281998730940,2026-07-11T19:01:21.998+07:00,837086481748486369,287388,237789,257937,1338
1783771282016912758,2026-07-11T19:01:22.016+07:00,837086481748486369,287406,237761,257970,1392
1783771282035094576,2026-07-11T19:01:22.035+07:00,837086481748486369,287334,237648,257805,1342
1783771282053276394,2026-07-11T19:01:22.053+07:00,837086481748486369,287200,237575,257635,1366
1783771282071458212,2026-07-11T19:01:22.071+07:00,837086481748486369,287132,237465,257485,1283
1783771282089640030,2026-07-11T19:01:22.089+07:00,837086481748486369,286975,237302,257349,1310
1783771282107821848,2026-07-11T19:01:22.107+07:00,837086481748486369,286933,237246,257266,1325
1783771282126003666,2026-07-11T19:01:22.126+07:00,837086481748486369,286817,237217,257249,1287
1783771282144185484,2026-07-11T19:01:22.144+07:00,837086481748486369,286835,237257,257257,1331
1783771282162367302,2026-07-11T19:01:22.162+07:00,837086481748486369,286782,237162,257266,1267
1783771282180549120,2026-07-11T19:01:22.180+07:00,837086481748486369,286833,237227,257320,1344
1783771282198730938,2026-07-11T19:01:22.198+07:00,837086481748486369,286866,237297,257385,1370
1783771282216912756,2026-07-11T19:01:22.216+07:00,837086481748486369,286868,237383,257466,1360
1783771282235094574,2026-07-11T19:01:22.235+07:00,837086481748486369,286888,237379,257501,1260
1783771282253276392,2026-07-11T19:01:22.253+07:00,837086481748486369,286967,237387,257548,1296
1783771282271458210,2026-07-11T19:01:22.271+07:00,837086481748486369,287013,237477,257651,1356
1783771282289640028,2026-07-11T19:01:22.289+07:00,837086481748486369,287039,237544,257632,1301
1783771282307821846,2026-07-11T19:01:22.307+07:00,837086481748486369,287035,237478,257621,1310
1783771282326003664,2026-07-11T19:01:22.326+07:00,837086481748486369,287012,237481,257689,1337
1783771282344185482,2026-07-11T19:01:22.344+07:00,837086481748486369,287128,237533,257788,1385
1783771282362367300,2026-07-11T19:01:22.362+07:00,837086482512702865,287020,237492,257766,1330
1783771282380549118,2026-07-11T19:01:22.380+07:00,837086482512702865,287059,237433,257770,1283
1783771282398730936,2026-07-11T19:01:22.398+07:00,837086482512702865,287073,237494,257858,1280
1783771282416912754,2026-07-11T19:01:22.416+07:00,837086482512702865,287128,237568,257965,1326
1783771282435094572,2026-07-11T19:01:22.435+07:00,837086482512702865,287166,237627,258045,1307
1783771282453276390,2026-07-11T19:01:22.453+07:00,837086482512702865,287173,237694,258084,1359
1783771282471458208,2026-07-11T19:01:22.471+07:00,837086482512702865,287122,237567,258000,1296
1783771282489640026,2026-07-11T19:01:22.489+07:00,837086482512702865,287127,237506,257952,1322
1783771282507821844,2026-07-11T19:01:22.507+07:00,837086482512702865,286982,237394,257788,1351
1783771282526003662,2026-07-11T19:01:22.526+07:00,837086482512702865,286780,237137,257620,1369
1783771282544185480,2026-07-11T19:01:22.544+07:00,837086482512702865,286608,236969,257419,1314
1783771282562367298,2026-07-11T19:01:22.562+07:00,837086482512702865,286404,236799,257213,1307
1783771282580549116,2026-07-11T19:01:22.580+07:00,837086482512702865,286379,236811,257214,1371
1783771282598730934,2026-07-11T19:01:22.598+07:00,837086482512702865,286334,236699,257148,1405
1783771282616912752,2026-07-11T19:01:22.616+07:00,837086482512702865,286211,236617,257071,1336
1783771282635094570,2026-07-11T19:01:22.635+07:00,837086482512702865,286261,236658,257101,1339
1783771282653276388,2026-07-11T19:01:22.653+07:00,837086482512702865,286257,236631,257158,1340
1783771282671458206,2026-07-11T19:01:22.671+07:00,837086482512702865,286268,236696,257244,1306
1783771282689640024,2026-07-11T19:01:22.689+07:00,837086482512702865,286364,236746,257304,1328
1783771282707821842,2026-07-11T19:01:22.707+07:00,837086482512702865,286357,236752,257412,1337
1783771282726003660,2026-07-11T19:01:22.726+07:00,837086482512702865,286365,236744,257395,1269
1783771282744185478,2026-07-11T19:01:22.744+07:00,837086482512702865,286505,236833,257488,1336
1783771282762367296,2026-07-11T19:01:22.762+07:00,837086482512702865,286582,236916,257682,1405
1783771282780549114,2026-07-11T19:01:22.780+07:00,837086482512702865,286560,236902,257586,1347
1783771282798730932,2026-07-11T19:01:22.798+07:00,837086482512702865,286531,236863,257533,1327
1783771282816912750,2026-07-11T19:01:22.816+07:00,837086482512702865,286454,236872,257521,1348
1783771282835094568,2026-07-11T19:01:22.835+07:00,837086482512702865,286485,236915,257556,1325
1783771282853276386,2026-07-11T19:01:22.853+07:00,837086482512702865,286503,236929,257588,1328
1783771282871458204,2026-07-11T19:01:22.871+07:00,837086482512702865,286465,236960,257635,1339
1783771282889640022,2026-07-11T19:01:22.889+07:00,837086482512702865,286469,236920,257685,1305
1783771282907821840,2026-07-11T19:01:22.907+07:00,837086482512702865,286460,236950,257716,1314
1783771282926003658,2026-07-11T19:01:22.926+07:00,837086482512702865,286491,236987,257718,1319
1783771282944185476,2026-07-11T19:01:22.944+07:00,837086482512702865,286373,236816,257630,1302
1783771282962367294,2026-07-11T19:01:22.962+07:00,837086482512702865,286372,236773,257513,1387
1783771282980549112,2026-07-11T19:01:22.980+07:00,837086482512702865,286130,236557,257314,1385
1783771282998730930,2026-07-11T19:01:22.998+07:00,837086482512702865,285874,236275,256975,1375
1783771283016912748,2026-07-11T19:01:23.016+07:00,837086482512702865,285666,236091,256675,1314
1783771283035094566,2026-07-11T19:01:23.035+07:00,837086482512702865,285452,235896,256470,1341
1783771283053276384,2026-07-11T19:01:23.053+07:00,837086482512702865,285250,235818,256293,1299
1783771283071458202,2026-07-11T19:01:23.071+07:00,837086482512702865,285192,235659,256219,1320
1783771283089640020,2026-07-11T19:01:23.089+07:00,837086482512702865,285077,235565,256142,1328
1783771283107821838,2026-07-11T19:01:23.107+07:00,837086482512702865,284989,235514,256147,1313
1783771283126003656,2026-07-11T19:01:23.126+07:00,837086483313292237,284991,235560,256156,1296
1783771283144185474,2026-07-11T19:01:23.144+07:00,837086483313292237,285036,235614,256233,1311
1783771283162367292,2026-07-11T19:01:23.162+07:00,837086483313292237,285007,235594,256186,1348
1783771283180549110,2026-07-11T19:01:23.180+07:00,837086483313292237,284934,235609,256160,1305
1783771283198730928,2026-07-11T19:01:23.198+07:00,837086483313292237,284931,235571,256169,1283
1783771283216912746,2026-07-11T19:01:23.216+07:00,837086483313292237,284922,235449,256137,1306
1783771283235094564,2026-07-11T19:01:23.235+07:00,837086483313292237,284943,235503,256137,1342
1783771283253276382,2026-07-11T19:01:23.253+07:00,837086483313292237,284885,235455,256126,1357
1783771283271458200,2026-07-11T19:01:23.271+07:00,837086483313292237,284808,235387,256096,1288
1783771283289640018,2026-07-11T19:01:23.289+07:00,837086483313292237,284804,235396,256013,1263
1783771283307821836,2026-07-11T19:01:23.307+07:00,837086483313292237,284785,235411,256065,1317
1783771283326003654,2026-07-11T19:01:23.326+07:00,837086483313292237,284798,235384,256091,1259
1783771283344185472,2026-07-11T19:01:23.344+07:00,837086483313292237,284834,235392,256180,1316
1783771283362367290,2026-07-11T19:01:23.362+07:00,837086483313292237,284783,235373,256100,1287
1783771283380549108,2026-07-11T19:01:23.380+07:00,837086483313292237,284918,235499,256224,1354
1783771283398730926,2026-07-11T19:01:23.398+07:00,837086483313292237,284812,235338,256165,1341
1783771283416912744,2026-07-11T19:01:23.416+07:00,837086483313292237,284681,235210,255967,1341
1783771283435094562,2026-07-11T19:01:23.435+07:00,837086483313292237,284437,234951,255701,1305
1783771283453276380,2026-07-11T19:01:23.453+07:00,837086483313292237,284033,234559,255352,1325
1783771283471458198,2026-07-11T19:01:23.471+07:00,837086483313292237,283739,234327,254974,1335
1783771283489640016,2026-07-11T19:01:23.489+07:00,837086483313292237,283385,234009,254534,1375
1783771283507821834,2026-07-11T19:01:23.507+07:00,837086483313292237,283139,233813,254324,1334
1783771283526003652,2026-07-11T19:01:23.526+07:00,837086483313292237,282860,233586,254139,1348
1783771283544185470,2026-07-11T19:01:23.544+07:00,837086483313292237,282668,233491,253880,1253
1783771283562367288,2026-07-11T19:01:23.562+07:00,837086483313292237,282628,233391,253821,1321
1783771283580549106,2026-07-11T19:01:23.580+07:00,837086483313292237,282567,233338,253765,1307
1783771283598730924,2026-07-11T19:01:23.598+07:00,837086483313292237,282462,233349,253717,1273
1783771283616912742,2026-07-11T19:01:23.616+07:00,837086483313292237,282442,233301,253788,1291
1783771283635094560,2026-07-11T19:01:23.635+07:00,837086483313292237,282438,233293,253783,1316
1783771283653276378,2026-07-11T19:01:23.653+07:00,837086483313292237,282443,233325,253784,1333
1783771283671458196,2026-07-11T19:01:23.671+07:00,837086483313292237,282404,233286,253751,1360
1783771283689640014,2026-07-11T19:01:23.689+07:00,837086483313292237,282389,233240,253713,1326
1783771283707821832,2026-07-11T19:01:23.707+07:00,837086483313292237,282319,233194,253730,1338
1783771283726003650,2026-07-11T19:01:23.726+07:00,837086483313292237,282209,233134,253660,1379
1783771283744185468,2026-07-11T19:01:23.744+07:00,837086483313292237,282113,233109,253621,1310
1783771283762367286,2026-07-11T19:01:23.762+07:00,837086483313292237,282095,233111,253625,1327
1783771283780549104,2026-07-11T19:01:23.780+07:00,837086483313292237,282092,233108,253600,1315
1783771283798730922,2026-07-11T19:01:23.798+07:00,837086483313292237,282075,233112,253620,1311
1783771283816912740,2026-07-11T19:01:23.816+07:00,837086483313292237,282095,233120,253673,1337
1783771283835094558,2026-07-11T19:01:23.835+07:00,837086483313292237,282147,233132,253719,1326
1783771283853276376,2026-07-11T19:01:23.853+07:00,837086483313292237,282145,233167,253699,1313
1783771283871458194,2026-07-11T19:01:23.871+07:00,837086483313292237,282011,233039,253586,1310
1783771283889640012,2026-07-11T19:01:23.889+07:00,837086483313292237,281794,232715,253320,1345
1783771283907821830,2026-07-11T19:01:23.907+07:00,837086483313292237,281458,232392,252872,1337
1783771283926003648,2026-07-11T19:01:23.926+07:00,837086484004679053,280907,231985,252384,1325
1783771283944185466,2026-07-11T19:01:23.944+07:00,837086484004679053,280491,231637,251948,1351
1783771283962367284,2026-07-11T19:01:23.962+07:00,837086484004679053,280181,231340,251591,1343
1783771283980549102,2026-07-11T19:01:23.980+07:00,837086484004679053,279850,231124,251384,1410
1783771283998730920,2026-07-11T19:01:23.998+07:00,837086484004679053,279606,230938,251169,1322
1783771284016912738,2026-07-11T19:01:24.016+07:00,837086484004679053,279440,230747,250975,1332
1783771284035094556,2026-07-11T19:01:24.035+07:00,837086484004679053,279357,230692,250968,1328
1783771284053276374,2026-07-11T19:01:24.053+07:00,837086484004679053,279266,230633,250893,1289
1783771284071458192,2026-07-11T19:01:24.071+07:00,837086484004679053,279204,230611,250909,1356
1783771284089640010,2026-07-11T19:01:24.089+07:00,837086484004679053,279179,230660,250900,1318
1783771284107821828,2026-07-11T19:01:24.107+07:00,837086484004679053,279172,230614,250890,1340
1783771284126003646,2026-07-11T19:01:24.126+07:00,837086484004679053,279126,230567,250853,1301
1783771284144185464,2026-07-11T19:01:24.144+07:00,837086484004679053,279067,230594,250829,1316
1783771284162367282,2026-07-11T19:01:24.162+07:00,837086484004679053,279055,230583,250790,1378
1783771284180549100,2026-07-11T19:01:24.180+07:00,837086484004679053,278982,230494,250707,1337
1783771284198730918,2026-07-11T19:01:24.198+07:00,837086484004679053,278934,230543,250747,1358
1783771284216912736,2026-07-11T19:01:24.216+07:00,837086484004679053,278838,230421,250686,1324
1783771284235094554,2026-07-11T19:01:24.235+07:00,837086484004679053,278823,230369,250615,1325
1783771284253276372,2026-07-11T19:01:24.253+07:00,837086484004679053,278820,230371,250683,1333
1783771284271458190,2026-07-11T19:01:24.271+07:00,837086484004679053,278846,230422,250678,1300
1783771284289640008,2026-07-11T19:01:24.289+07:00,837086484004679053,278867,230384,250684,1275
1783771284307821826,2026-07-11T19:01:24.307+07:00,837086484004679053,278830,230346,250771,1279
1783771284326003644,2026-07-11T19:01:24.326+07:00,837086484004679053,278897,230453,250915,1336
1783771284344185462,2026-07-11T19:01:24.344+07:00,837086484004679053,278865,230427,250871,1322
1783771284362367280,2026-07-11T19:01:24.362+07:00,837086484004679053,278827,230371,250760,1344
1783771284380549098,2026-07-11T19:01:24.380+07:00,837086484004679053,278463,230027,250415,1297
1783771284398730916,2026-07-11T19:01:24.398+07:00,837086484004679053,277971,229524,249760,1259
1783771284416912734,2026-07-11T19:01:24.416+07:00,837086484004679053,277427,229149,249329,1362
1783771284435094552,2026-07-11T19:01:24.435+07:00,837086484004679053,276931,228657,248727,1293
1783771284453276370,2026-07-11T19:01:24.453+07:00,837086484004679053,276489,228287,248328,1297
1783771284471458188,2026-07-11T19:01:24.471+07:00,837086484004679053,276098,228000,247943,1328
1783771284489640006,2026-07-11T19:01:24.489+07:00,837086484004679053,275809,227801,247700,1369
1783771284507821824,2026-07-11T19:01:24.507+07:00,837086484004679053,275642,227637,247533,1350
1783771284526003642,2026-07-11T19:01:24.526+07:00,837086484004679053,275571,227552,247477,1340
1783771284544185460,2026-07-11T19:01:24.544+07:00,837086484004679053,275469,227483,247447,1341
1783771284562367278,2026-07-11T19:01:24.562+07:00,837086484004679053,275474,227541,247443,1283
1783771284580549096,2026-07-11T19:01:24.580+07:00,837086484004679053,275416,227491,247401,1221
1783771284598730914,2026-07-11T19:01:24.598+07:00,837086484004679053,275452,227498,247436,1301
1783771284616912732,2026-07-11T19:01:24.616+07:00,837086484677904610,275373,227424,247362,1320
1783771284635094550,2026-07-11T19:01:24.635+07:00,837086484677904610,275298,227396,247292,1302
1783771284653276368,2026-07-11T19:01:24.653+07:00,837086484677904610,275281,227321,247288,1354
1783771284671458186,2026-07-11T19:01:24.671+07:00,837086484677904610,275136,227213,247134,1326
1783771284689640004,2026-07-11T19:01:24.689+07:00,837086484677904610,275057,227188,247134,1325
1783771284707821822,2026-07-11T19:01:24.707+07:00,837086484677904610,275039,227180,247099,1308
1783771284726003640,2026-07-11T19:01:24.726+07:00,837086484677904610,274977,227102,247035,1318
1783771284744185458,2026-07-11T19:01:24.744+07:00,837086484677904610,274990,227138,247022,1317
1783771284762367276,2026-07-11T19:01:24.762+07:00,837086484677904610,274947,227162,247025,1374
1783771284780549094,2026-07-11T19:01:24.780+07:00,837086484677904610,275011,227183,247048,1403
1783771284798730912,2026-07-11T19:01:24.798+07:00,837086484677904610,274988,227171,247049,1325
1783771284816912730,2026-07-11T19:01:24.816+07:00,837086484677904610,274991,227187,247150,1380
1783771284835094548,2026-07-11T19:01:24.835+07:00,837086484677904610,275022,227228,247169,1309
1783771284853276366,2026-07-11T19:01:24.853+07:00,837086484677904610,275128,227321,247300,1336
1783771284871458184,2026-07-11T19:01:24.871+07:00,837086484677904610,275147,227278,247245,1318
1783771284889640002,2026-07-11T19:01:24.889+07:00,837086484677904610,274986,227047,246985,1267
1783771284907821820,2026-07-11T19:01:24.907+07:00,837086484677904610,274629,226790,246656,1335
1783771284926003638,2026-07-11T19:01:24.926+07:00,837086484677904610,274097,226268,246085,1326
1783771284944185456,2026-07-11T19:01:24.944+07:00,837086484677904610,273434,225740,245450,1294
1783771284962367274,2026-07-11T19:01:24.962+07:00,837086484677904610,272795,225250,244855,1251
1783771284980549092,2026-07-11T19:01:24.980+07:00,837086484677904610,272335,224759,244285,1265
1783771284998730910,2026-07-11T19:01:24.998+07:00,837086484677904610,271948,224450,243865,1281
1783771285016912728,2026-07-11T19:01:25.016+07:00,837086484677904610,271621,224267,243650,1303
1783771285035094546,2026-07-11T19:01:25.035+07:00,837086484677904610,271371,224108,243457,1309
1783771285053276364,2026-07-11T19:01:25.053+07:00,837086484677904610,271254,224003,243343,1298
1783771285071458182,2026-07-11T19:01:25.071+07:00,837086484677904610,271169,223982,243299,1314
1783771285089640000,2026-07-11T19:01:25.089+07:00,837086484677904610,271089,223879,243296,1310
1783771285107821818,2026-07-11T19:01:25.107+07:00,837086484677904610,271101,223887,243235,1290
1783771285126003636,2026-07-11T19:01:25.126+07:00,837086484677904610,271034,223835,243176,1332
1783771285144185454,2026-07-11T19:01:25.144+07:00,837086484677904610,270949,223801,243151,1302
1783771285162367272,2026-07-11T19:01:25.162+07:00,837086484677904610,270848,223706,242988,1365
1783771285180549090,2026-07-11T19:01:25.180+07:00,837086484677904610,270784,223599,242932,1393
1783771285198730908,2026-07-11T19:01:25.198+07:00,837086484677904610,270677,223499,242825,1343
1783771285216912726,2026-07-11T19:01:25.216+07:00,837086484677904610,270582,223434,242709,1352
1783771285235094544,2026-07-11T19:01:25.235+07:00,837086484677904610,270432,223383,242575,1325
1783771285253276362,2026-07-11T19:01:25.253+07:00,837086484677904610,270384,223282,242565,1344
1783771285271458180,2026-07-11T19:01:25.271+07:00,837086484677904610,270350,223344,242560,1340
1783771285289639998,2026-07-11T19:01:25.289+07:00,837086485351113381,270351,223338,242543,1331
1783771285307821816,2026-07-11T19:01:25.307+07:00,837086485351113381,270318,223269,242532,1319
1783771285326003634,2026-07-11T19:01:25.326+07:00,837086485351113381,270409,223315,242562,1311
1783771285344185452,2026-07-11T19:01:25.344+07:00,837086485351113381,270403,223363,242639,1371
1783771285362367270,2026-07-11T19:01:25.362+07:00,837086485351113381,270437,223359,242711,1361
1783771285380549088,2026-07-11T19:01:25.380+07:00,837086485351113381,270534,223414,242720,1384
1783771285398730906,2026-07-11T19:01:25.398+07:00,837086485351113381,270493,223482,242772,1390
1783771285416912724,2026-07-11T19:01:25.416+07:00,837086485351113381,270359,223311,242647,1339
1783771285435094542,2026-07-11T19:01:25.435+07:00,837086485351113381,269990,223030,242258,1298
1783771285453276360,2026-07-11T19:01:25.453+07:00,837086485351113381,269469,222541,241686,1291
1783771285471458178,2026-07-11T19:01:25.471+07:00,837086485351113381,268829,222044,241033,1337
1783771285489639996,2026-07-11T19:01:25.489+07:00,837086485351113381,268134,221540,240465,1281
1783771285507821814,2026-07-11T19:01:25.507+07:00,837086485351113381,267647,221113,239968,1333
1783771285526003632,2026-07-11T19:01:25.526+07:00,837086485351113381,267234,220766,239567,1339
1783771285544185450,2026-07-11T19:01:25.544+07:00,837086485351113381,266838,220467,239192,1289
1783771285562367268,2026-07-11T19:01:25.562+07:00,837086485351113381,266638,220277,238983,1339
1783771285580549086,2026-07-11T19:01:25.580+07:00,837086485351113381,266457,220109,238820,1313
1783771285598730904,2026-07-11T19:01:25.598+07:00,837086485351113381,266381,220009,238729,1286
1783771285616912722,2026-07-11T19:01:25.616+07:00,837086485351113381,266325,220016,238740,1332
1783771285635094540,2026-07-11T19:01:25.635+07:00,837086485351113381,266294,220040,238725,1300
1783771285653276358,2026-07-11T19:01:25.653+07:00,837086485351113381,266325,220025,238753,1356
1783771285671458176,2026-07-11T19:01:25.671+07:00,837086485351113381,266264,219990,238643,1318
1783771285689639994,2026-07-11T19:01:25.689+07:00,837086485351113381,266221,219992,238625,1308
1783771285707821812,2026-07-11T19:01:25.707+07:00,837086485351113381,266119,219961,238565,1280
1783771285726003630,2026-07-11T19:01:25.726+07:00,837086485351113381,266048,219877,238505,1307
1783771285744185448,2026-07-11T19:01:25.744+07:00,837086485351113381,265951,219797,238386,1294
1783771285762367266,2026-07-11T19:01:25.762+07:00,837086485351113381,265896,219702,238375,1254
1783771285780549084,2026-07-11T19:01:25.780+07:00,837086485351113381,265940,219709,238386,1325
1783771285798730902,2026-07-11T19:01:25.798+07:00,837086485351113381,265917,219683,238367,1321
1783771285816912720,2026-07-11T19:01:25.816+07:00,837086485351113381,265927,219716,238292,1311
1783771285835094538,2026-07-11T19:01:25.835+07:00,837086485351113381,265941,219740,238334,1311
1783771285853276356,2026-07-11T19:01:25.853+07:00,837086485351113381,265974,219730,238347,1326
1783771285871458174,2026-07-11T19:01:25.871+07:00,837086485351113381,266014,219858,238461,1352
1783771285889639992,2026-07-11T19:01:25.889+07:00,837086485351113381,266096,219954,238520,1361
1783771285907821810,2026-07-11T19:01:25.907+07:00,837086485351113381,266203,219958,238572,1352
1783771285926003628,2026-07-11T19:01:25.926+07:00,837086485351113381,266153,219875,238457,1323
1783771285944185446,2026-07-11T19:01:25.944+07:00,837086485351113381,265975,219700,238301,1394
1783771285962367264,2026-07-11T19:01:25.962+07:00,837086485987932490,265466,219300,237763,1425
1783771285980549082,2026-07-11T19:01:25.980+07:00,837086485987932490,264856,218768,237183,1369
1783771285998730900,2026-07-11T19:01:25.998+07:00,837086485987932490,264220,218339,236610,1406
1783771286016912718,2026-07-11T19:01:26.016+07:00,837086485987932490,263581,217735,235932,1351
1783771286035094536,2026-07-11T19:01:26.035+07:00,837086485987932490,263123,217376,235447,1328
1783771286053276354,2026-07-11T19:01:26.053+07:00,837086485987932490,262779,217115,235095,1319
1783771286071458172,2026-07-11T19:01:26.071+07:00,837086485987932490,262524,216839,234837,1335
1783771286089639990,2026-07-11T19:01:26.089+07:00,837086485987932490,262362,216792,234734,1316
1783771286107821808,2026-07-11T19:01:26.107+07:00,837086485987932490,262183,216606,234564,1362
1783771286126003626,2026-07-11T19:01:26.126+07:00,837086485987932490,262146,216589,234491,1309
1783771286144185444,2026-07-11T19:01:26.144+07:00,837086485987932490,262148,216567,234482,1324
1783771286162367262,2026-07-11T19:01:26.162+07:00,837086485987932490,262062,216516,234409,1289
1783771286180549080,2026-07-11T19:01:26.180+07:00,837086485987932490,262098,216490,234478,1294
1783771286198730898,2026-07-11T19:01:26.198+07:00,837086485987932490,262055,216471,234374,1282
1783771286216912716,2026-07-11T19:01:26.216+07:00,837086485987932490,262052,216422,234345,1347
1783771286235094534,2026-07-11T19:01:26.235+07:00,837086485987932490,261964,216400,234300,1296
1783771286253276352,2026-07-11T19:01:26.253+07:00,837086485987932490,261902,216360,234320,1337
1783771286271458170,2026-07-11T19:01:26.271+07:00,837086485987932490,261817,216299,234173,1322
1783771286289639988,2026-07-11T19:01:26.289+07:00,837086485987932490,261786,216303,234133,1324
1783771286307821806,2026-07-11T19:01:26.307+07:00,837086485987932490,261814,216253,234132,1345
1783771286326003624,2026-07-11T19:01:26.326+07:00,837086485987932490,261824,216253,234185,1336
1783771286344185442,2026-07-11T19:01:26.344+07:00,837086485987932490,261875,216312,234245,1321
1783771286362367260,2026-07-11T19:01:26.362+07:00,837086485987932490,262001,216309,234260,1308
1783771286380549078,2026-07-11T19:01:26.380+07:00,837086485987932490,262028,216384,234325,1279
1783771286398730896,2026-07-11T19:01:26.398+07:00,837086485987932490,262114,216427,234418,1325
1783771286416912714,2026-07-11T19:01:26.416+07:00,837086485987932490,262199,216543,234507,1322
1783771286435094532,2026-07-11T19:01:26.435+07:00,837086485987932490,262205,216591,234553,1316
1783771286453276350,2026-07-11T19:01:26.453+07:00,837086485987932490,262370,216745,234718,1353
1783771286471458168,2026-07-11T19:01:26.471+07:00,837086485987932490,262435,216732,234783,1376
1783771286489639986,2026-07-11T19:01:26.489+07:00,837086485987932490,262261,216606,234600,1321
1783771286507821804,2026-07-11T19:01:26.507+07:00,837086485987932490,261940,216293,234283,1352
1783771286526003622,2026-07-11T19:01:26.526+07:00,837086485987932490,261477,215825,233637,1292
1783771286544185440,2026-07-11T19:01:26.544+07:00,837086485987932490,260844,215359,233084,1313
1783771286562367258,2026-07-11T19:01:26.562+07:00,837086485987932490,260385,214975,232511,1356
1783771286580549076,2026-07-11T19:01:26.580+07:00,837086485987932490,259820,214524,231995,1317
1783771286598730894,2026-07-11T19:01:26.598+07:00,837086486679336080,259455,214229,231751,1325
1783771286616912712,2026-07-11T19:01:26.616+07:00,837086486679336080,259137,214001,231435,1306
1783771286635094530,2026-07-11T19:01:26.635+07:00,837086486679336080,258963,213935,231262,1315
1783771286653276348,2026-07-11T19:01:26.653+07:00,837086486679336080,258931,213833,231236,1331
1783771286671458166,2026-07-11T19:01:26.671+07:00,837086486679336080,258949,213772,231207,1284
1783771286689639984,2026-07-11T19:01:26.689+07:00,837086486679336080,258876,213762,231189,1318
1783771286707821802,2026-07-11T19:01:26.707+07:00,837086486679336080,258975,213779,231143,1299
1783771286726003620,2026-07-11T19:01:26.726+07:00,837086486679336080,258965,213804,231160,1325
1783771286744185438,2026-07-11T19:01:26.744+07:00,837086486679336080,258944,213765,231209,1311
1783771286762367256,2026-07-11T19:01:26.762+07:00,837086486679336080,258997,213718,231166,1353
1783771286780549074,2026-07-11T19:01:26.780+07:00,837086486679336080,258935,213665,231184,1319
1783771286798730892,2026-07-11T19:01:26.798+07:00,837086486679336080,258884,213709,231104,1331
1783771286816912710,2026-07-11T19:01:26.816+07:00,837086486679336080,258895,213625,231024,1332
1783771286835094528,2026-07-11T19:01:26.835+07:00,837086486679336080,258845,213599,230987,1318
1783771286853276346,2026-07-11T19:01:26.853+07:00,837086486679336080,258849,213652,231099,1338
1783771286871458164,2026-07-11T19:01:26.871+07:00,837086486679336080,258885,213612,231080,1335
1783771286889639982,2026-07-11T19:01:26.889+07:00,837086486679336080,258885,213665,231130,1334
1783771286907821800,2026-07-11T19:01:26.907+07:00,837086486679336080,258920,213713,231158,1286
1783771286926003618,2026-07-11T19:01:26.926+07:00,837086486679336080,259000,213785,231297,1343
1783771286944185436,2026-07-11T19:01:26.944+07:00,837086486679336080,259180,213891,231356,1348
1783771286962367254,2026-07-11T19:01:26.962+07:00,837086486679336080,259259,213884,231458,1336
1783771286980549072,2026-07-11T19:01:26.980+07:00,837086486679336080,259329,213992,231551,1315
1783771286998730890,2026-07-11T19:01:26.998+07:00,837086486679336080,259452,213997,231615,1335
1783771287016912708,2026-07-11T19:01:27.016+07:00,837086486679336080,259234,213842,231384,1321
1783771287035094526,2026-07-11T19:01:27.035+07:00,837086486679336080,258968,213613,231066,1338
1783771287053276344,2026-07-11T19:01:27.053+07:00,837086486679336080,258475,213200,230644,1332
1783771287071458162,2026-07-11T19:01:27.071+07:00,837086486679336080,257988,212758,230057,1347
1783771287089639980,2026-07-11T19:01:27.089+07:00,837086486679336080,257512,212312,229587,1351
1783771287107821798,2026-07-11T19:01:27.107+07:00,837086486679336080,257210,212009,229265,1362
1783771287126003616,2026-07-11T19:01:27.126+07:00,837086486679336080,256970,211806,229033,1360
1783771287144185434,2026-07-11T19:01:27.144+07:00,837086486679336080,256719,211635,228783,1340
1783771287162367252,2026-07-11T19:01:27.162+07:00,837086486679336080,256642,211602,228686,1321
1783771287180549070,2026-07-11T19:01:27.180+07:00,837086486679336080,256632,211600,228669,1319
1783771287198730888,2026-07-11T19:01:27.198+07:00,837086486679336080,256606,211526,228762,1308
1783771287216912706,2026-07-11T19:01:27.216+07:00,837086486679336080,256637,211566,228732,1286
1783771287235094524,2026-07-11T19:01:27.235+07:00,837086486679336080,256710,211588,228797,1319
1783771287253276342,2026-07-11T19:01:27.253+07:00,837086486679336080,256756,211653,228792,1341
1783771287271458160,2026-07-11T19:01:27.271+07:00,837086486679336080,256776,211620,228852,1268
1783771287289639978,2026-07-11T19:01:27.289+07:00,837086487407129344,256763,211718,228915,1299
1783771287307821796,2026-07-11T19:01:27.307+07:00,837086487407129344,256714,211629,228879,1304
1783771287326003614,2026-07-11T19:01:27.326+07:00,837086487407129344,256817,211705,228891,1358
1783771287344185432,2026-07-11T19:01:27.344+07:00,837086487407129344,256801,211644,228897,1340
1783771287362367250,2026-07-11T19:01:27.362+07:00,837086487407129344,256872,211696,228914,1299
1783771287380549068,2026-07-11T19:01:27.380+07:00,837086487407129344,256877,211667,228952,1304
1783771287398730886,2026-07-11T19:01:27.398+07:00,837086487407129344,256939,211785,229075,1316
1783771287416912704,2026-07-11T19:01:27.416+07:00,837086487407129344,257030,211758,229090,1333
1783771287435094522,2026-07-11T19:01:27.435+07:00,837086487407129344,257083,211854,229235,1300
1783771287453276340,2026-07-11T19:01:27.453+07:00,837086487407129344,257201,211913,229294,1332
1783771287471458158,2026-07-11T19:01:27.471+07:00,837086487407129344,257320,212053,229395,1342
1783771287489639976,2026-07-11T19:01:27.489+07:00,837086487407129344,257479,212110,229491,1273
1783771287507821794,2026-07-11T19:01:27.507+07:00,837086487407129344,257551,212206,229640,1317
1783771287526003612,2026-07-11T19:01:27.526+07:00,837086487407129344,257482,212083,229498,1267
1783771287544185430,2026-07-11T19:01:27.544+07:00,837086487407129344,257315,211908,229293,1394
1783771287562367248,2026-07-11T19:01:27.562+07:00,837086487407129344,256917,211571,228891,1338
1783771287580549066,2026-07-11T19:01:27.580+07:00,837086487407129344,256433,211148,228352,1294
1783771287598730884,2026-07-11T19:01:27.598+07:00,837086487407129344,256057,210803,227939,1317
1783771287616912702,2026-07-11T19:01:27.616+07:00,837086487407129344,255795,210526,227666,1365
1783771287635094520,2026-07-11T19:01:27.635+07:00,837086487407129344,255552,210375,227479,1354
1783771287653276338,2026-07-11T19:01:27.653+07:00,837086487407129344,255411,210278,227313,1279
1783771287671458156,2026-07-11T19:01:27.671+07:00,837086487407129344,255395,210261,227255,1298
1783771287689639974,2026-07-11T19:01:27.689+07:00,837086487407129344,255393,210235,227300,1322
1783771287707821792,2026-07-11T19:01:27.707+07:00,837086487407129344,255496,210247,227350,1321
1783771287726003610,2026-07-11T19:01:27.726+07:00,837086487407129344,255543,210269,227391,1285
1783771287744185428,2026-07-11T19:01:27.744+07:00,837086487407129344,255584,210333,227500,1301
1783771287762367246,2026-07-11T19:01:27.762+07:00,837086487407129344,255654,210407,227506,1265
1783771287780549064,2026-07-11T19:01:27.780+07:00,837086487407129344,255732,210390,227604,1307
1783771287798730882,2026-07-11T19:01:27.798+07:00,837086487407129344,255810,210478,227704,1283
1783771287816912700,2026-07-11T19:01:27.816+07:00,837086487407129344,255811,210523,227690,1300
1783771287835094518,2026-07-11T19:01:27.835+07:00,837086487407129344,255865,210536,227767,1359
1783771287853276336,2026-07-11T19:01:27.853+07:00,837086487407129344,255871,210506,227801,1318
1783771287871458154,2026-07-11T19:01:27.871+07:00,837086487407129344,255937,210529,227858,1366
1783771287889639972,2026-07-11T19:01:27.889+07:00,837086487407129344,255998,210614,227867,1358
1783771287907821790,2026-07-11T19:01:27.907+07:00,837086487407129344,256062,210642,227910,1339
1783771287926003608,2026-07-11T19:01:27.926+07:00,837086487407129344,256167,210711,228047,1330
1783771287944185426,2026-07-11T19:01:27.944+07:00,837086487407129344,256317,210853,228204,1369
1783771287962367244,2026-07-11T19:01:27.962+07:00,837086487407129344,256393,210829,228279,1284
1783771287980549062,2026-07-11T19:01:27.980+07:00,837086487407129344,256523,210978,228420,1338
1783771287998730880,2026-07-11T19:01:27.998+07:00,837086487407129344,256610,211038,228559,1382
1783771288016912698,2026-07-11T19:01:28.016+07:00,837086488153114391,256724,211102,228622,1350
1783771288035094516,2026-07-11T19:01:28.035+07:00,837086488153114391,256616,211016,228503,1292
1783771288053276334,2026-07-11T19:01:28.053+07:00,837086488153114391,256376,210765,228241,1298
1783771288071458152,2026-07-11T19:01:28.071+07:00,837086488153114391,256058,210445,227897,1226
1783771288089639970,2026-07-11T19:01:28.089+07:00,837086488153114391,255736,210139,227418,1301
1783771288107821788,2026-07-11T19:01:28.107+07:00,837086488153114391,255436,209889,227167,1263
1783771288126003606,2026-07-11T19:01:28.126+07:00,837086488153114391,255215,209669,226925,1282
1783771288144185424,2026-07-11T19:01:28.144+07:00,837086488153114391,255082,209524,226838,1265
1783771288162367242,2026-07-11T19:01:28.162+07:00,837086488153114391,254992,209405,226693,1246
1783771288180549060,2026-07-11T19:01:28.180+07:00,837086488153114391,254985,209504,226746,1317
1783771288198730878,2026-07-11T19:01:28.198+07:00,837086488153114391,255059,209503,226772,1280
1783771288216912696,2026-07-11T19:01:28.216+07:00,837086488153114391,255159,209564,226872,1319
1783771288235094514,2026-07-11T19:01:28.235+07:00,837086488153114391,255223,209641,226946,1285
1783771288253276332,2026-07-11T19:01:28.253+07:00,837086488153114391,255312,209711,226959,1276
1783771288271458150,2026-07-11T19:01:28.271+07:00,837086488153114391,255389,209783,227150,1290
1783771288289639968,2026-07-11T19:01:28.289+07:00,837086488153114391,255515,209786,227276,1328
1783771288307821786,2026-07-11T19:01:28.307+07:00,837086488153114391,255549,209871,227196,1257
1783771288326003604,2026-07-11T19:01:28.326+07:00,837086488153114391,255573,209823,227261,1287
1783771288344185422,2026-07-11T19:01:28.344+07:00,837086488153114391,255599,209895,227325,1300
1783771288362367240,2026-07-11T19:01:28.362+07:00,837086488153114391,255639,209976,227384,1291
1783771288380549058,2026-07-11T19:01:28.380+07:00,837086488153114391,255716,210037,227440,1292
1783771288398730876,2026-07-11T19:01:28.398+07:00,837086488153114391,255844,210097,227575,1300
1783771288416912694,2026-07-11T19:01:28.416+07:00,837086488153114391,255972,210173,227688,1302
1783771288435094512,2026-07-11T19:01:28.435+07:00,837086488153114391,256065,210288,227803,1280
1783771288453276330,2026-07-11T19:01:28.453+07:00,837086488153114391,256168,210333,227880,1282
1783771288471458148,2026-07-11T19:01:28.471+07:00,837086488153114391,256323,210437,228085,1259
1783771288489639966,2026-07-11T19:01:28.489+07:00,837086488153114391,256549,210648,228300,1314
1783771288507821784,2026-07-11T19:01:28.507+07:00,837086488153114391,256659,210731,228450,1304
1783771288526003602,2026-07-11T19:01:28.526+07:00,837086488153114391,256749,210836,228563,1320
1783771288544185420,2026-07-11T19:01:28.544+07:00,837086488153114391,256809,210818,228608,1276
1783771288562367238,2026-07-11T19:01:28.562+07:00,837086488153114391,256769,210769,228531,1333
1783771288580549056,2026-07-11T19:01:28.580+07:00,837086488153114391,256494,210536,228210,1247
1783771288598730874,2026-07-11T19:01:28.598+07:00,837086488153114391,256229,210232,227910,1311
1783771288616912692,2026-07-11T19:01:28.616+07:00,837086488153114391,255935,209924,227523,1324
1783771288635094510,2026-07-11T19:01:28.635+07:00,837086488153114391,255654,209668,227200,1290
1783771288653276328,2026-07-11T19:01:28.653+07:00,837086488153114391,255457,209497,226989,1331
1783771288671458146,2026-07-11T19:01:28.671+07:00,837086488153114391,255273,209352,226839,1317
1783771288689639964,2026-07-11T19:01:28.689+07:00,837086488153114391,255314,209294,226770,1337
1783771288707821782,2026-07-11T19:01:28.707+07:00,837086488153114391,255284,209249,226767,1343
1783771288726003600,2026-07-11T19:01:28.726+07:00,837086488153114391,255335,209370,226860,1332
1783771288744185418,2026-07-11T19:01:28.744+07:00,837086488153114391,255431,209411,226967,1325
1783771288762367236,2026-07-11T19:01:28.762+07:00,837086488917301903,255507,209513,227142,1333
1783771288780549054,2026-07-11T19:01:28.780+07:00,837086488917301903,255623,209522,227195,1287
1783771288798730872,2026-07-11T19:01:28.798+07:00,837086488917301903,255628,209593,227235,1334
1783771288816912690,2026-07-11T19:01:28.816+07:00,837086488917301903,255744,209664,227328,1335
1783771288835094508,2026-07-11T19:01:28.835+07:00,837086488917301903,255801,209664,227344,1279
1783771288853276326,2026-07-11T19:01:28.853+07:00,837086488917301903,255809,209679,227424,1308
1783771288871458144,2026-07-11T19:01:28.871+07:00,837086488917301903,255801,209684,227467,1256
1783771288889639962,2026-07-11T19:01:28.889+07:00,837086488917301903,255980,209741,227574,1328
1783771288907821780,2026-07-11T19:01:28.907+07:00,837086488917301903,255916,209802,227600,1286
1783771288926003598,2026-07-11T19:01:28.926+07:00,837086488917301903,255967,209851,227599,1283
1783771288944185416,2026-07-11T19:01:28.944+07:00,837086488917301903,256155,209910,227704,1276
1783771288962367234,2026-07-11T19:01:28.962+07:00,837086488917301903,256218,210030,227821,1324
1783771288980549052,2026-07-11T19:01:28.980+07:00,837086488917301903,256310,210042,227896,1320
1783771288998730870,2026-07-11T19:01:28.998+07:00,837086488917301903,256381,210132,228066,1317
1783771289016912688,2026-07-11T19:01:29.016+07:00,837086488917301903,256573,210247,228230,1302
1783771289035094506,2026-07-11T19:01:29.035+07:00,837086488917301903,256706,210330,228351,1313
1783771289053276324,2026-07-11T19:01:29.053+07:00,837086488917301903,256803,210468,228440,1286
1783771289071458142,2026-07-11T19:01:29.071+07:00,837086488917301903,256957,210549,228569,1330
1783771289089639960,2026-07-11T19:01:29.089+07:00,837086488917301903,256911,210460,228497,1284
1783771289107821778,2026-07-11T19:01:29.107+07:00,837086488917301903,256735,210190,228305,1318
1783771289126003596,2026-07-11T19:01:29.126+07:00,837086488917301903,256411,209979,227947,1260
1783771289144185414,2026-07-11T19:01:29.144+07:00,837086488917301903,256137,209686,227664,1291
1783771289162367232,2026-07-11T19:01:29.162+07:00,837086488917301903,255895,209404,227338,1246
1783771289180549050,2026-07-11T19:01:29.180+07:00,837086488917301903,255700,209195,227111,1299
1783771289198730868,2026-07-11T19:01:29.198+07:00,837086488917301903,255589,209040,226960,1253
1783771289216912686,2026-07-11T19:01:29.216+07:00,837086488917301903,255529,208978,226941,1269
1783771289235094504,2026-07-11T19:01:29.235+07:00,837086488917301903,255539,209038,226986,1342
1783771289253276322,2026-07-11T19:01:29.253+07:00,837086488917301903,255517,209039,226989,1273
1783771289271458140,2026-07-11T19:01:29.271+07:00,837086488917301903,255632,209008,227137,1340
1783771289289639958,2026-07-11T19:01:29.289+07:00,837086488917301903,255701,209146,227208,1288
1783771289307821776,2026-07-11T19:01:29.307+07:00,837086488917301903,255793,209199,227290,1282
1783771289326003594,2026-07-11T19:01:29.326+07:00,837086488917301903,255921,209280,227471,1299
1783771289344185412,2026-07-11T19:01:29.344+07:00,837086488917301903,256005,209322,227549,1293
1783771289362367230,2026-07-11T19:01:29.362+07:00,837086488917301903,256008,209351,227599,1296
1783771289380549048,2026-07-11T19:01:29.380+07:00,837086488917301903,256099,209402,227672,1320
1783771289398730866,2026-07-11T19:01:29.398+07:00,837086488917301903,256122,209449,227672,1325
1783771289416912684,2026-07-11T19:01:29.416+07:00,837086488917301903,256217,209457,227744,1318
1783771289435094502,2026-07-11T19:01:29.435+07:00,837086488917301903,256300,209558,227903,1296
1783771289453276320,2026-07-11T19:01:29.453+07:00,837086488917301903,256352,209664,227933,1274
1783771289471458138,2026-07-11T19:01:29.471+07:00,837086488917301903,256450,209739,228117,1309
1783771289489639956,2026-07-11T19:01:29.489+07:00,837086488917301903,256524,209772,228148,1341
1783771289507821774,2026-07-11T19:01:29.507+07:00,837086488917301903,256614,209878,228291,1265
1783771289526003592,2026-07-11T19:01:29.526+07:00,837086489681579435,256735,210026,228513,1328
1783771289544185410,2026-07-11T19:01:29.544+07:00,837086489681579435,256899,210165,228659,1328
1783771289562367228,2026-07-11T19:01:29.562+07:00,837086489681579435,257070,210207,228787,1298
1783771289580549046,2026-07-11T19:01:29.580+07:00,837086489681579435,257222,210405,228925,1272
1783771289598730864,2026-07-11T19:01:29.598+07:00,837086489681579435,257322,210455,229086,1275
1783771289616912682,2026-07-11T19:01:29.616+07:00,837086489681579435,257451,210518,229194,1310
1783771289635094500,2026-07-11T19:01:29.635+07:00,837086489681579435,257302,210466,229120,1304
1783771289653276318,2026-07-11T19:01:29.653+07:00,837086489681579435,257179,210314,228915,1311
1783771289671458136,2026-07-11T19:01:29.671+07:00,837086489681579435,257051,210056,228628,1342
1783771289689639954,2026-07-11T19:01:29.689+07:00,837086489681579435,256744,209723,228315,1270
1783771289707821772,2026-07-11T19:01:29.707+07:00,837086489681579435,256565,209630,228130,1285
1783771289726003590,2026-07-11T19:01:29.726+07:00,837086489681579435,256333,209437,227898,1290
1783771289744185408,2026-07-11T19:01:29.744+07:00,837086489681579435,256289,209353,227869,1317
1783771289762367226,2026-07-11T19:01:29.762+07:00,837086489681579435,256231,209277,227814,1290
1783771289780549044,2026-07-11T19:01:29.780+07:00,837086489681579435,256310,209375,227839,1316
1783771289798730862,2026-07-11T19:01:29.798+07:00,837086489681579435,256411,209382,227921,1310
1783771289816912680,2026-07-11T19:01:29.816+07:00,837086489681579435,256427,209478,228065,1296
1783771289835094498,2026-07-11T19:01:29.835+07:00,837086489681579435,256592,209586,228154,1322
1783771289853276316,2026-07-11T19:01:29.853+07:00,837086489681579435,256677,209696,228241,1333
1783771289871458134,2026-07-11T19:01:29.871+07:00,837086489681579435,256748,209728,228351,1277
1783771289889639952,2026-07-11T19:01:29.889+07:00,837086489681579435,256844,209826,228396,1306
1783771289907821770,2026-07-11T19:01:29.907+07:00,837086489681579435,256883,209783,228494,1290
1783771289926003588,2026-07-11T19:01:29.926+07:00,837086489681579435,257013,209832,228537,1291
1783771289944185406,2026-07-11T19:01:29.944+07:00,837086489681579435,257059,209958,228637,1299
1783771289962367224,2026-07-11T19:01:29.962+07:00,837086489681579435,257142,210003,228726,1305
1783771289980549042,2026-07-11T19:01:29.980+07:00,837086489681579435,257254,210065,228771,1354
1783771289998730860,2026-07-11T19:01:29.998+07:00,837086489681579435,257327,210066,228853,1281
1783771290016912678,2026-07-11T19:01:30.016+07:00,837086489681579435,257338,210131,228890,1270
1783771290035094496,2026-07-11T19:01:30.035+07:00,837086489681579435,257470,210227,229038,1328
1783771290053276314,2026-07-11T19:01:30.053+07:00,837086489681579435,257594,210337,229166,1330
1783771290071458132,2026-07-11T19:01:30.071+07:00,837086489681579435,257720,210449,229303,1327
1783771290089639950,2026-07-11T19:01:30.089+07:00,837086489681579435,257869,210562,229448,1367
1783771290107821768,2026-07-11T19:01:30.107+07:00,837086489681579435,257945,210617,229508,1262
1783771290126003586,2026-07-11T19:01:30.126+07:00,837086489681579435,258142,210786,229733,1357
1783771290144185404,2026-07-11T19:01:30.144+07:00,837086489681579435,258282,210902,229871,1359
1783771290162367222,2026-07-11T19:01:30.162+07:00,837086489681579435,258390,211009,229981,1343
1783771290180549040,2026-07-11T19:01:30.180+07:00,837086489681579435,258341,210965,229997,1331
1783771290198730858,2026-07-11T19:01:30.198+07:00,837086489681579435,258206,210800,229708,1320
1783771290216912676,2026-07-11T19:01:30.216+07:00,837086489681579435,257981,210492,229477,1317
1783771290235094494,2026-07-11T19:01:30.235+07:00,837086489681579435,257704,210196,229190,1288
1783771290253276312,2026-07-11T19:01:30.253+07:00,837086489681579435,257482,209974,228883,1355
1783771290271458130,2026-07-11T19:01:30.271+07:00,837086489681579435,257251,209779,228643,1331
1783771290289639948,2026-07-11T19:01:30.289+07:00,837086490445864597,257195,209655,228531,1332
1783771290307821766,2026-07-11T19:01:30.307+07:00,837086490445864597,257072,209648,228483,1308
1783771290326003584,2026-07-11T19:01:30.326+07:00,837086490445864597,257076,209523,228432,1266
1783771290344185402,2026-07-11T19:01:30.344+07:00,837086490445864597,257157,209641,228544,1337
1783771290362367220,2026-07-11T19:01:30.362+07:00,837086490445864597,257252,209747,228677,1300
1783771290380549038,2026-07-11T19:01:30.380+07:00,837086490445864597,257332,209843,228756,1311
1783771290398730856,2026-07-11T19:01:30.398+07:00,837086490445864597,257355,209902,228874,1331
1783771290416912674,2026-07-11T19:01:30.416+07:00,837086490445864597,257467,209895,228985,1336
1783771290435094492,2026-07-11T19:01:30.435+07:00,837086490445864597,257579,209978,229035,1297
1783771290453276310,2026-07-11T19:01:30.453+07:00,837086490445864597,257621,210087,229133,1282
1783771290471458128,2026-07-11T19:01:30.471+07:00,837086490445864597,257702,210136,229203,1308
1783771290489639946,2026-07-11T19:01:30.489+07:00,837086490445864597,257723,210196,229161,1277
1783771290507821764,2026-07-11T19:01:30.507+07:00,837086490445864597,257801,210238,229298,1297
1783771290526003582,2026-07-11T19:01:30.526+07:00,837086490445864597,257849,210251,229350,1351
1783771290544185400,2026-07-11T19:01:30.544+07:00,837086490445864597,257957,210338,229447,1347
1783771290562367218,2026-07-11T19:01:30.562+07:00,837086490445864597,257917,210374,229516,1303
1783771290580549036,2026-07-11T19:01:30.580+07:00,837086490445864597,258076,210505,229645,1400
1783771290598730854,2026-07-11T19:01:30.598+07:00,837086490445864597,258251,210572,229713,1323
1783771290616912672,2026-07-11T19:01:30.616+07:00,837086490445864597,258328,210677,229872,1339
1783771290635094490,2026-07-11T19:01:30.635+07:00,837086490445864597,258429,210727,230030,1267
1783771290653276308,2026-07-11T19:01:30.653+07:00,837086490445864597,258584,210871,230117,1339
1783771290671458126,2026-07-11T19:01:30.671+07:00,837086490445864597,258652,210884,230220,1330
1783771290689639944,2026-07-11T19:01:30.689+07:00,837086490445864597,258577,210846,230179,1351
1783771290707821762,2026-07-11T19:01:30.707+07:00,837086490445864597,258363,210580,229905,1319
1783771290726003580,2026-07-11T19:01:30.726+07:00,837086490445864597,258102,210297,229556,1318
1783771290744185398,2026-07-11T19:01:30.744+07:00,837086490445864597,257784,210049,229306,1284
1783771290762367216,2026-07-11T19:01:30.762+07:00,837086490445864597,257544,209859,229067,1305
1783771290780549034,2026-07-11T19:01:30.780+07:00,837086490445864597,257366,209690,228821,1280
1783771290798730852,2026-07-11T19:01:30.798+07:00,837086490445864597,257283,209647,228760,1316
1783771290816912670,2026-07-11T19:01:30.816+07:00,837086490445864597,257246,209537,228709,1268
1783771290835094488,2026-07-11T19:01:30.835+07:00,837086490445864597,257159,209425,228678,1302
1783771290853276306,2026-07-11T19:01:30.853+07:00,837086490445864597,257252,209588,228727,1279
1783771290871458124,2026-07-11T19:01:30.871+07:00,837086490445864597,257259,209679,228849,1252
1783771290889639942,2026-07-11T19:01:30.889+07:00,837086490445864597,257347,209740,228951,1306
1783771290907821760,2026-07-11T19:01:30.907+07:00,837086490445864597,257486,209820,229062,1302
1783771290926003578,2026-07-11T19:01:30.926+07:00,837086490445864597,257573,209864,229172,1283
1783771290944185396,2026-07-11T19:01:30.944+07:00,837086490445864597,257664,209960,229203,1325
1783771290962367214,2026-07-11T19:01:30.962+07:00,837086490445864597,257740,210022,229287,1300
1783771290980549032,2026-07-11T19:01:30.980+07:00,837086490445864597,257776,210027,229352,1301
1783771290998730850,2026-07-11T19:01:30.998+07:00,837086490445864597,257806,210080,229451,1345
1783771291016912668,2026-07-11T19:01:31.016+07:00,837086490445864597,257893,210117,229531,1357
1783771291035094486,2026-07-11T19:01:31.035+07:00,837086490445864597,257934,210166,229580,1344
1783771291053276304,2026-07-11T19:01:31.053+07:00,837086491210145181,258010,210237,229703,1293
1783771291071458122,2026-07-11T19:01:31.071+07:00,837086491210145181,258097,210287,229808,1322
1783771291089639940,2026-07-11T19:01:31.089+07:00,837086491210145181,258220,210448,229908,1325
1783771291107821758,2026-07-11T19:01:31.107+07:00,837086491210145181,258294,210524,230055,1347
1783771291126003576,2026-07-11T19:01:31.126+07:00,837086491210145181,258456,210661,230253,1373
1783771291144185394,2026-07-11T19:01:31.144+07:00,837086491210145181,258613,210815,230354,1368
1783771291162367212,2026-07-11T19:01:31.162+07:00,837086491210145181,258628,210842,230454,1338
1783771291180549030,2026-07-11T19:01:31.180+07:00,837086491210145181,258654,210827,230435,1391
1783771291198730848,2026-07-11T19:01:31.198+07:00,837086491210145181,258497,210605,230212,1358
1783771291216912666,2026-07-11T19:01:31.216+07:00,837086491210145181,258250,210397,229958,1391
1783771291235094484,2026-07-11T19:01:31.235+07:00,837086491210145181,257877,210016,229490,1357
1783771291253276302,2026-07-11T19:01:31.253+07:00,837086491210145181,257597,209903,229321,1319
1783771291271458120,2026-07-11T19:01:31.271+07:00,837086491210145181,257398,209619,229100,1321
1783771291289639938,2026-07-11T19:01:31.289+07:00,837086491210145181,257276,209473,228910,1286
1783771291307821756,2026-07-11T19:01:31.307+07:00,837086491210145181,257185,209478,228859,1293
1783771291326003574,2026-07-11T19:01:31.326+07:00,837086491210145181,257151,209394,228805,1314
1783771291344185392,2026-07-11T19:01:31.344+07:00,837086491210145181,257183,209453,228885,1331
1783771291362367210,2026-07-11T19:01:31.362+07:00,837086491210145181,257226,209525,228978,1296
1783771291380549028,2026-07-11T19:01:31.380+07:00,837086491210145181,257299,209603,229151,1367
1783771291398730846,2026-07-11T19:01:31.398+07:00,837086491210145181,257430,209643,229197,1345
1783771291416912664,2026-07-11T19:01:31.416+07:00,837086491210145181,257504,209745,229294,1301
1783771291435094482,2026-07-11T19:01:31.435+07:00,837086491210145181,257565,209835,229393,1289
1783771291453276300,2026-07-11T19:01:31.453+07:00,837086491210145181,257657,209931,229513,1268
1783771291471458118,2026-07-11T19:01:31.471+07:00,837086491210145181,257656,209944,229527,1303
1783771291489639936,2026-07-11T19:01:31.489+07:00,837086491210145181,257773,210006,229664,1311
1783771291507821754,2026-07-11T19:01:31.507+07:00,837086491210145181,257793,210053,229692,1342
1783771291526003572,2026-07-11T19:01:31.526+07:00,837086491210145181,257954,210144,229791,1298
1783771291544185390,2026-07-11T19:01:31.544+07:00,837086491210145181,258023,210147,229834,1313
1783771291562367208,2026-07-11T19:01:31.562+07:00,837086491210145181,258124,210296,229994,1327
1783771291580549026,2026-07-11T19:01:31.580+07:00,837086491210145181,258145,210403,230049,1267
1783771291598730844,2026-07-11T19:01:31.598+07:00,837086491210145181,258289,210462,230194,1307
1783771291616912662,2026-07-11T19:01:31.616+07:00,837086491210145181,258422,210590,230361,1296
1783771291635094480,2026-07-11T19:01:31.635+07:00,837086491210145181,258538,210759,230500,1283
1783771291653276298,2026-07-11T19:01:31.653+07:00,837086491210145181,258699,210853,230659,1327
1783771291671458116,2026-07-11T19:01:31.671+07:00,837086491210145181,258721,210876,230712,1328
1783771291689639934,2026-07-11T19:01:31.689+07:00,837086491210145181,258709,210779,230654,1358
1783771291707821752,2026-07-11T19:01:31.707+07:00,837086491210145181,258414,210590,230403,1308
1783771291726003570,2026-07-11T19:01:31.726+07:00,837086491210145181,258189,210343,230150,1339
1783771291744185388,2026-07-11T19:01:31.744+07:00,837086491210145181,257811,210075,229780,1300
1783771291762367206,2026-07-11T19:01:31.762+07:00,837086491210145181,257573,209843,229464,1316
1783771291780549024,2026-07-11T19:01:31.780+07:00,837086491210145181,257414,209685,229230,1341
1783771291798730842,2026-07-11T19:01:31.798+07:00,837086491210145181,257253,209586,229115,1332
1783771291816912660,2026-07-11T19:01:31.816+07:00,837086491992638906,257161,209497,229081,1303
1783771291835094478,2026-07-11T19:01:31.835+07:00,837086491992638906,257136,209488,229088,1281
1783771291853276296,2026-07-11T19:01:31.853+07:00,837086491992638906,257141,209510,229145,1245
1783771291871458114,2026-07-11T19:01:31.871+07:00,837086491992638906,257160,209489,229226,1341
1783771291889639932,2026-07-11T19:01:31.889+07:00,837086491992638906,257273,209632,229269,1304
1783771291907821750,2026-07-11T19:01:31.907+07:00,837086491992638906,257276,209739,229382,1326
1783771291926003568,2026-07-11T19:01:31.926+07:00,837086491992638906,257486,209743,229535,1326
1783771291944185386,2026-07-11T19:01:31.944+07:00,837086491992638906,257493,209909,229610,1347
1783771291962367204,2026-07-11T19:01:31.962+07:00,837086491992638906,257526,209887,229657,1284
1783771291980549022,2026-07-11T19:01:31.980+07:00,837086491992638906,257614,209927,229696,1289
1783771291998730840,2026-07-11T19:01:31.998+07:00,837086491992638906,257737,210042,229842,1336
1783771292016912658,2026-07-11T19:01:32.016+07:00,837086491992638906,257742,210041,229881,1341
1783771292035094476,2026-07-11T19:01:32.035+07:00,837086491992638906,257795,210111,229983,1282
1783771292053276294,2026-07-11T19:01:32.053+07:00,837086491992638906,257931,210247,230096,1328
1783771292071458112,2026-07-11T19:01:32.071+07:00,837086491992638906,257991,210296,230173,1267
1783771292089639930,2026-07-11T19:01:32.089+07:00,837086491992638906,258048,210415,230314,1317
1783771292107821748,2026-07-11T19:01:32.107+07:00,837086491992638906,258162,210528,230466,1352
1783771292126003566,2026-07-11T19:01:32.126+07:00,837086491992638906,258299,210612,230560,1352
1783771292144185384,2026-07-11T19:01:32.144+07:00,837086491992638906,258474,210738,230748,1356
1783771292162367202,2026-07-11T19:01:32.162+07:00,837086491992638906,258603,210841,230874,1339
1783771292180549020,2026-07-11T19:01:32.180+07:00,837086491992638906,258716,210931,231071,1361
1783771292198730838,2026-07-11T19:01:32.198+07:00,837086491992638906,258698,210879,230984,1290
1783771292216912656,2026-07-11T19:01:32.216+07:00,837086491992638906,258525,210838,230857,1341
1783771292235094474,2026-07-11T19:01:32.235+07:00,837086491992638906,258316,210628,230617,1333
1783771292253276292,2026-07-11T19:01:32.253+07:00,837086491992638906,257987,210312,230260,1338
1783771292271458110,2026-07-11T19:01:32.271+07:00,837086491992638906,257726,210077,229996,1333
1783771292289639928,2026-07-11T19:01:32.289+07:00,837086491992638906,257475,209828,229697,1288
1783771292307821746,2026-07-11T19:01:32.307+07:00,837086491992638906,257316,209623,229518,1257
1783771292326003564,2026-07-11T19:01:32.326+07:00,837086491992638906,257190,209540,229418,1311
1783771292344185382,2026-07-11T19:01:32.344+07:00,837086491992638906,257224,209580,229450,1340
1783771292362367200,2026-07-11T19:01:32.362+07:00,837086491992638906,257206,209621,229428,1382
1783771292380549018,2026-07-11T19:01:32.380+07:00,837086491992638906,257187,209620,229470,1345
1783771292398730836,2026-07-11T19:01:32.398+07:00,837086491992638906,257205,209681,229508,1356
1783771292416912654,2026-07-11T19:01:32.416+07:00,837086491992638906,257320,209743,229618,1390
1783771292435094472,2026-07-11T19:01:32.435+07:00,837086491992638906,257401,209868,229653,1388
1783771292453276290,2026-07-11T19:01:32.453+07:00,837086491992638906,257490,209923,229736,1416
1783771292471458108,2026-07-11T19:01:32.471+07:00,837086491992638906,257546,209952,229819,1385
1783771292489639926,2026-07-11T19:01:32.489+07:00,837086491992638906,257599,210000,229848,1325
1783771292507821744,2026-07-11T19:01:32.507+07:00,837086491992638906,257615,210034,229923,1392
1783771292526003562,2026-07-11T19:01:32.526+07:00,837086491992638906,257667,210091,229957,1377
1783771292544185380,2026-07-11T19:01:32.544+07:00,837086491992638906,257738,210094,230061,1339
1783771292562367198,2026-07-11T19:01:32.562+07:00,837086491992638906,257772,210111,230067,1352
1783771292580549016,2026-07-11T19:01:32.580+07:00,837086491992638906,257789,210224,230144,1356
1783771292598730834,2026-07-11T19:01:32.598+07:00,837086492756916438,257886,210315,230224,1302
1783771292616912652,2026-07-11T19:01:32.616+07:00,837086492756916438,258003,210402,230314,1326
1783771292635094470,2026-07-11T19:01:32.635+07:00,837086492756916438,258089,210443,230460,1336
1783771292653276288,2026-07-11T19:01:32.653+07:00,837086492756916438,258232,210614,230594,1335
1783771292671458106,2026-07-11T19:01:32.671+07:00,837086492756916438,258334,210689,230707,1280
1783771292689639924,2026-07-11T19:01:32.689+07:00,837086492756916438,258493,210805,230807,1341
1783771292707821742,2026-07-11T19:01:32.707+07:00,837086492756916438,258527,210870,230834,1390
1783771292726003560,2026-07-11T19:01:32.726+07:00,837086492756916438,258416,210762,230719,1322
1783771292744185378,2026-07-11T19:01:32.744+07:00,837086492756916438,258236,210559,230483,1379
1783771292762367196,2026-07-11T19:01:32.762+07:00,837086492756916438,257942,210245,230171,1373
1783771292780549014,2026-07-11T19:01:32.780+07:00,837086492756916438,257617,209955,229836,1367
1783771292798730832,2026-07-11T19:01:32.798+07:00,837086492756916438,257336,209756,229538,1388
1783771292816912650,2026-07-11T19:01:32.816+07:00,837086492756916438,257009,209450,229264,1317
1783771292835094468,2026-07-11T19:01:32.835+07:00,837086492756916438,256879,209383,229127,1336
1783771292853276286,2026-07-11T19:01:32.853+07:00,837086492756916438,256819,209296,229017,1375
1783771292871458104,2026-07-11T19:01:32.871+07:00,837086492756916438,256750,209225,228984,1298
1783771292889639922,2026-07-11T19:01:32.889+07:00,837086492756916438,256764,209280,228999,1328
1783771292907821740,2026-07-11T19:01:32.907+07:00,837086492756916438,256810,209347,229072,1335
1783771292926003558,2026-07-11T19:01:32.926+07:00,837086492756916438,256860,209359,229090,1317
1783771292944185376,2026-07-11T19:01:32.944+07:00,837086492756916438,256831,209416,229174,1291
1783771292962367194,2026-07-11T19:01:32.962+07:00,837086492756916438,256900,209453,229230,1357
1783771292980549012,2026-07-11T19:01:32.980+07:00,837086492756916438,257003,209591,229321,1396
1783771292998730830,2026-07-11T19:01:32.998+07:00,837086492756916438,257063,209588,229354,1405
1783771293016912648,2026-07-11T19:01:33.016+07:00,837086492756916438,257091,209529,229337,1339
1783771293035094466,2026-07-11T19:01:33.035+07:00,837086492756916438,257059,209491,229258,1339
1783771293053276284,2026-07-11T19:01:33.053+07:00,837086492756916438,257042,209590,229378,1335
1783771293071458102,2026-07-11T19:01:33.071+07:00,837086492756916438,257133,209640,229449,1328
1783771293089639920,2026-07-11T19:01:33.089+07:00,837086492756916438,257139,209593,229459,1377
1783771293107821738,2026-07-11T19:01:33.107+07:00,837086492756916438,257224,209660,229507,1307
1783771293126003556,2026-07-11T19:01:33.126+07:00,837086492756916438,257243,209709,229563,1305
1783771293144185374,2026-07-11T19:01:33.144+07:00,837086492756916438,257367,209836,229650,1285
1783771293162367192,2026-07-11T19:01:33.162+07:00,837086492756916438,257503,209931,229856,1315
1783771293180549010,2026-07-11T19:01:33.180+07:00,837086492756916438,257586,210050,229937,1271
1783771293198730828,2026-07-11T19:01:33.198+07:00,837086492756916438,257680,210149,230112,1326
1783771293216912646,2026-07-11T19:01:33.216+07:00,837086492756916438,257777,210201,230188,1310
1783771293235094464,2026-07-11T19:01:33.235+07:00,837086492756916438,257757,210170,230110,1321
1783771293253276282,2026-07-11T19:01:33.253+07:00,837086492756916438,257499,210027,229875,1339
1783771293271458100,2026-07-11T19:01:33.271+07:00,837086492756916438,257179,209661,229501,1336
1783771293289639918,2026-07-11T19:01:33.289+07:00,837086492756916438,256819,209426,229139,1281
1783771293307821736,2026-07-11T19:01:33.307+07:00,837086492756916438,256460,209086,228802,1270
1783771293326003554,2026-07-11T19:01:33.326+07:00,837086492756916438,256120,208874,228555,1297
1783771293344185372,2026-07-11T19:01:33.344+07:00,837086492756916438,255990,208745,228396,1345
1783771293362367190,2026-07-11T19:01:33.362+07:00,837086493521215334,255850,208621,228298,1395
1783771293380549008,2026-07-11T19:01:33.380+07:00,837086493521215334,255707,208482,228154,1291
1783771293398730826,2026-07-11T19:01:33.398+07:00,837086493521215334,255737,208473,228115,1367
1783771293416912644,2026-07-11T19:01:33.416+07:00,837086493521215334,255719,208537,228153,1361
1783771293435094462,2026-07-11T19:01:33.435+07:00,837086493521215334,255756,208517,228203,1359
1783771293453276280,2026-07-11T19:01:33.453+07:00,837086493521215334,255809,208709,228296,1352
1783771293471458098,2026-07-11T19:01:33.471+07:00,837086493521215334,255823,208721,228299,1331
1783771293489639916,2026-07-11T19:01:33.489+07:00,837086493521215334,255864,208757,228407,1356
1783771293507821734,2026-07-11T19:01:33.507+07:00,837086493521215334,255937,208790,228410,1365
1783771293526003552,2026-07-11T19:01:33.526+07:00,837086493521215334,255882,208771,228454,1316
1783771293544185370,2026-07-11T19:01:33.544+07:00,837086493521215334,255951,208810,228504,1327
1783771293562367188,2026-07-11T19:01:33.562+07:00,837086493521215334,255935,208821,228533,1276
1783771293580549006,2026-07-11T19:01:33.580+07:00,837086493521215334,256041,208888,228592,1302
1783771293598730824,2026-07-11T19:01:33.598+07:00,837086493521215334,256063,208968,228754,1338
1783771293616912642,2026-07-11T19:01:33.616+07:00,837086493521215334,256057,208930,228753,1355
1783771293635094460,2026-07-11T19:01:33.635+07:00,837086493521215334,256111,209024,228777,1362
1783771293653276278,2026-07-11T19:01:33.653+07:00,837086493521215334,256229,209106,228887,1315
1783771293671458096,2026-07-11T19:01:33.671+07:00,837086493521215334,256374,209296,229102,1319
1783771293689639914,2026-07-11T19:01:33.689+07:00,837086493521215334,256528,209391,229198,1358
1783771293707821732,2026-07-11T19:01:33.707+07:00,837086493521215334,256554,209467,229264,1352
1783771293726003550,2026-07-11T19:01:33.726+07:00,837086493521215334,256515,209444,229256,1396
1783771293744185368,2026-07-11T19:01:33.744+07:00,837086493521215334,256359,209249,229086,1294
1783771293762367186,2026-07-11T19:01:33.762+07:00,837086493521215334,256096,209062,228812,1339
1783771293780549004,2026-07-11T19:01:33.780+07:00,837086493521215334,255709,208767,228433,1289
1783771293798730822,2026-07-11T19:01:33.798+07:00,837086493521215334,255349,208439,228058,1306
1783771293816912640,2026-07-11T19:01:33.816+07:00,837086493521215334,255025,208199,227792,1324
1783771293835094458,2026-07-11T19:01:33.835+07:00,837086493521215334,254803,208032,227553,1354
1783771293853276276,2026-07-11T19:01:33.853+07:00,837086493521215334,254669,207931,227472,1369
1783771293871458094,2026-07-11T19:01:33.871+07:00,837086493521215334,254546,207833,227405,1347
1783771293889639912,2026-07-11T19:01:33.889+07:00,837086493521215334,254511,207892,227461,1366
1783771293907821730,2026-07-11T19:01:33.907+07:00,837086493521215334,254531,207869,227409,1322
1783771293926003548,2026-07-11T19:01:33.926+07:00,837086493521215334,254570,208005,227539,1383
1783771293944185366,2026-07-11T19:01:33.944+07:00,837086493521215334,254626,208030,227593,1375
1783771293962367184,2026-07-11T19:01:33.962+07:00,837086493521215334,254706,208108,227645,1426
1783771293980549002,2026-07-11T19:01:33.980+07:00,837086493521215334,254800,208215,227729,1378
1783771293998730820,2026-07-11T19:01:33.998+07:00,837086493521215334,254880,208251,227828,1362
1783771294016912638,2026-07-11T19:01:34.016+07:00,837086493521215334,254851,208226,227823,1322
1783771294035094456,2026-07-11T19:01:34.035+07:00,837086493521215334,254890,208268,227880,1403
1783771294053276274,2026-07-11T19:01:34.053+07:00,837086493521215334,254924,208302,227970,1405
1783771294071458092,2026-07-11T19:01:34.071+07:00,837086493521215334,254978,208341,228017,1355
1783771294089639910,2026-07-11T19:01:34.089+07:00,837086493521215334,255070,208427,228085,1407
1783771294107821728,2026-07-11T19:01:34.107+07:00,837086493521215334,255105,208486,228081,1343
1783771294126003546,2026-07-11T19:01:34.126+07:00,837086494285502020,255242,208633,228220,1393
1783771294144185364,2026-07-11T19:01:34.144+07:00,837086494285502020,255225,208651,228297,1280
1783771294162367182,2026-07-11T19:01:34.162+07:00,837086494285502020,255329,208708,228404,1304
1783771294180549000,2026-07-11T19:01:34.180+07:00,837086494285502020,255483,208877,228610,1341
1783771294198730818,2026-07-11T19:01:34.198+07:00,837086494285502020,255547,208939,228717,1357
1783771294216912636,2026-07-11T19:01:34.216+07:00,837086494285502020,255725,208991,228834,1395
1783771294235094454,2026-07-11T19:01:34.235+07:00,837086494285502020,255705,209037,228838,1332
1783771294253276272,2026-07-11T19:01:34.253+07:00,837086494285502020,255723,208991,228765,1320
1783771294271458090,2026-07-11T19:01:34.271+07:00,837086494285502020,255457,208759,228543,1298
1783771294289639908,2026-07-11T19:01:34.289+07:00,837086494285502020,255195,208556,228272,1368
1783771294307821726,2026-07-11T19:01:34.307+07:00,837086494285502020,254807,208274,227894,1330
1783771294326003544,2026-07-11T19:01:34.326+07:00,837086494285502020,254507,208048,227606,1350
1783771294344185362,2026-07-11T19:01:34.344+07:00,837086494285502020,254265,207849,227367,1309
1783771294362367180,2026-07-11T19:01:34.362+07:00,837086494285502020,254078,207694,227221,1356
1783771294380548998,2026-07-11T19:01:34.380+07:00,837086494285502020,253943,207695,227181,1369
1783771294398730816,2026-07-11T19:01:34.398+07:00,837086494285502020,253843,207652,227150,1328
1783771294416912634,2026-07-11T19:01:34.416+07:00,837086494285502020,253893,207662,227173,1365
1783771294435094452,2026-07-11T19:01:34.435+07:00,837086494285502020,253898,207693,227207,1313
1783771294453276270,2026-07-11T19:01:34.453+07:00,837086494285502020,254007,207755,227327,1327
1783771294471458088,2026-07-11T19:01:34.471+07:00,837086494285502020,254101,207842,227470,1369
1783771294489639906,2026-07-11T19:01:34.489+07:00,837086494285502020,254169,207900,227551,1399
1783771294507821724,2026-07-11T19:01:34.507+07:00,837086494285502020,254181,208014,227602,1391
1783771294526003542,2026-07-11T19:01:34.526+07:00,837086494285502020,254261,208004,227592,1300
1783771294544185360,2026-07-11T19:01:34.544+07:00,837086494285502020,254303,208099,227650,1341
1783771294562367178,2026-07-11T19:01:34.562+07:00,837086494285502020,254319,208171,227738,1325
1783771294580548996,2026-07-11T19:01:34.580+07:00,837086494285502020,254379,208249,227767,1292
1783771294598730814,2026-07-11T19:01:34.598+07:00,837086494285502020,254485,208277,227894,1373
1783771294616912632,2026-07-11T19:01:34.616+07:00,837086494285502020,254512,208284,227958,1326
1783771294635094450,2026-07-11T19:01:34.635+07:00,837086494285502020,254623,208362,228062,1345
1783771294653276268,2026-07-11T19:01:34.653+07:00,837086494285502020,254823,208526,228220,1359
1783771294671458086,2026-07-11T19:01:34.671+07:00,837086494285502020,254829,208620,228254,1296
1783771294689639904,2026-07-11T19:01:34.689+07:00,837086494285502020,254941,208730,228453,1385
1783771294707821722,2026-07-11T19:01:34.707+07:00,837086494285502020,255088,208860,228575,1354
1783771294726003540,2026-07-11T19:01:34.726+07:00,837086494285502020,255278,208989,228780,1392
1783771294744185358,2026-07-11T19:01:34.744+07:00,837086494285502020,255382,209008,228883,1382
1783771294762367176,2026-07-11T19:01:34.762+07:00,837086494285502020,255248,209007,228821,1328
1783771294780548994,2026-07-11T19:01:34.780+07:00,837086494285502020,255192,208872,228641,1341
1783771294798730812,2026-07-11T19:01:34.798+07:00,837086494285502020,254828,208637,228317,1322
1783771294816912630,2026-07-11T19:01:34.816+07:00,837086494285502020,254572,208377,228054,1322
1783771294835094448,2026-07-11T19:01:34.835+07:00,837086494285502020,254253,208122,227778,1345
1783771294853276266,2026-07-11T19:01:34.853+07:00,837086494285502020,253952,207972,227565,1350
1783771294871458084,2026-07-11T19:01:34.871+07:00,837086494285502020,253765,207846,227420,1342
1783771294889639902,2026-07-11T19:01:34.889+07:00,837086495049779552,253715,207758,227234,1302
1783771294907821720,2026-07-11T19:01:34.907+07:00,837086495049779552,253694,207774,227309,1376
1783771294926003538,2026-07-11T19:01:34.926+07:00,837086495049779552,253671,207779,227321,1379
1783771294944185356,2026-07-11T19:01:34.944+07:00,837086495049779552,253802,207869,227411,1367
1783771294962367174,2026-07-11T19:01:34.962+07:00,837086495049779552,253793,207931,227465,1323
1783771294980548992,2026-07-11T19:01:34.980+07:00,837086495049779552,253868,207957,227435,1265
1783771294998730810,2026-07-11T19:01:34.998+07:00,837086495049779552,254005,208088,227550,1339
1783771295016912628,2026-07-11T19:01:35.016+07:00,837086495049779552,254046,208159,227653,1355
1783771295035094446,2026-07-11T19:01:35.035+07:00,837086495049779552,254054,208120,227660,1280
1783771295053276264,2026-07-11T19:01:35.053+07:00,837086495049779552,254072,208122,227722,1335
1783771295071458082,2026-07-11T19:01:35.071+07:00,837086495049779552,254151,208124,227770,1305
1783771295089639900,2026-07-11T19:01:35.089+07:00,837086495049779552,254153,208169,227741,1327
1783771295107821718,2026-07-11T19:01:35.107+07:00,837086495049779552,254164,208201,227762,1304
1783771295126003536,2026-07-11T19:01:35.126+07:00,837086495049779552,254240,208308,227850,1336
1783771295144185354,2026-07-11T19:01:35.144+07:00,837086495049779552,254336,208342,227939,1340
1783771295162367172,2026-07-11T19:01:35.162+07:00,837086495049779552,254398,208476,227925,1309
1783771295180548990,2026-07-11T19:01:35.180+07:00,837086495049779552,254512,208506,228046,1322
1783771295198730808,2026-07-11T19:01:35.198+07:00,837086495049779552,254559,208518,228118,1306
1783771295216912626,2026-07-11T19:01:35.216+07:00,837086495049779552,254727,208615,228282,1345
1783771295235094444,2026-07-11T19:01:35.235+07:00,837086495049779552,254885,208691,228391,1324
1783771295253276262,2026-07-11T19:01:35.253+07:00,837086495049779552,254951,208808,228463,1305
1783771295271458080,2026-07-11T19:01:35.271+07:00,837086495049779552,255147,208944,228541,1351
1783771295289639898,2026-07-11T19:01:35.289+07:00,837086495049779552,255003,208859,228470,1345
1783771295307821716,2026-07-11T19:01:35.307+07:00,837086495049779552,254804,208725,228277,1313
1783771295326003534,2026-07-11T19:01:35.326+07:00,837086495049779552,254510,208446,227964,1309
1783771295344185352,2026-07-11T19:01:35.344+07:00,837086495049779552,254175,208136,227628,1257
1783771295362367170,2026-07-11T19:01:35.362+07:00,837086495049779552,253917,207927,227344,1290
1783771295380548988,2026-07-11T19:01:35.380+07:00,837086495049779552,253712,207733,227056,1360
1783771295398730806,2026-07-11T19:01:35.398+07:00,837086495049779552,253401,207522,226865,1317
1783771295416912624,2026-07-11T19:01:35.416+07:00,837086495049779552,253321,207472,226839,1316
1783771295435094442,2026-07-11T19:01:35.435+07:00,837086495049779552,253285,207480,226830,1316
1783771295453276260,2026-07-11T19:01:35.453+07:00,837086495049779552,253289,207436,226867,1280
1783771295471458078,2026-07-11T19:01:35.471+07:00,837086495049779552,253389,207522,226902,1349
1783771295489639896,2026-07-11T19:01:35.489+07:00,837086495049779552,253412,207604,226958,1384
1783771295507821714,2026-07-11T19:01:35.507+07:00,837086495049779552,253503,207667,227041,1394
1783771295526003532,2026-07-11T19:01:35.526+07:00,837086495049779552,253563,207749,227104,1326
1783771295544185350,2026-07-11T19:01:35.544+07:00,837086495049779552,253658,207766,227194,1405
1783771295562367168,2026-07-11T19:01:35.562+07:00,837086495049779552,253671,207834,227240,1379
1783771295580548986,2026-07-11T19:01:35.580+07:00,837086495049779552,253730,207833,227295,1356
1783771295598730804,2026-07-11T19:01:35.598+07:00,837086495049779552,253703,207961,227396,1340
1783771295616912622,2026-07-11T19:01:35.616+07:00,837086495049779552,253783,207978,227445,1400
1783771295635094440,2026-07-11T19:01:35.635+07:00,837086495049779552,253843,208044,227474,1401
1783771295653276258,2026-07-11T19:01:35.653+07:00,837086495814087612,253894,208097,227556,1323
1783771295671458076,2026-07-11T19:01:35.671+07:00,837086495814087612,253977,208230,227665,1337
1783771295689639894,2026-07-11T19:01:35.689+07:00,837086495814087612,254113,208277,227771,1376
1783771295707821712,2026-07-11T19:01:35.707+07:00,837086495814087612,254142,208281,227841,1348
1783771295726003530,2026-07-11T19:01:35.726+07:00,837086495814087612,254279,208401,227981,1262
1783771295744185348,2026-07-11T19:01:35.744+07:00,837086495814087612,254402,208606,228127,1292
1783771295762367166,2026-07-11T19:01:35.762+07:00,837086495814087612,254515,208628,228162,1290
1783771295780548984,2026-07-11T19:01:35.780+07:00,837086495814087612,254680,208749,228254,1320
1783771295798730802,2026-07-11T19:01:35.798+07:00,837086495814087612,254603,208679,228184,1339
1783771295816912620,2026-07-11T19:01:35.816+07:00,837086495814087612,254384,208473,227977,1327
1783771295835094438,2026-07-11T19:01:35.835+07:00,837086495814087612,254077,208188,227574,1341
1783771295853276256,2026-07-11T19:01:35.853+07:00,837086495814087612,253773,207955,227238,1330
1783771295871458074,2026-07-11T19:01:35.871+07:00,837086495814087612,253436,207676,226963,1352
1783771295889639892,2026-07-11T19:01:35.889+07:00,837086495814087612,253190,207502,226745,1373
1783771295907821710,2026-07-11T19:01:35.907+07:00,837086495814087612,252989,207351,226531,1389
1783771295926003528,2026-07-11T19:01:35.926+07:00,837086495814087612,252856,207183,226376,1299
1783771295944185346,2026-07-11T19:01:35.944+07:00,837086495814087612,252792,207200,226374,1347
1783771295962367164,2026-07-11T19:01:35.962+07:00,837086495814087612,252802,207199,226351,1318
1783771295980548982,2026-07-11T19:01:35.980+07:00,837086495814087612,252836,207153,226373,1285
1783771295998730800,2026-07-11T19:01:35.998+07:00,837086495814087612,252920,207310,226466,1348
1783771296016912618,2026-07-11T19:01:36.016+07:00,837086495814087612,252998,207330,226497,1366
1783771296035094436,2026-07-11T19:01:36.035+07:00,837086495814087612,252987,207375,226547,1338
1783771296053276254,2026-07-11T19:01:36.053+07:00,837086495814087612,253020,207396,226583,1391
1783771296071458072,2026-07-11T19:01:36.071+07:00,837086495814087612,253081,207454,226567,1354
1783771296089639890,2026-07-11T19:01:36.089+07:00,837086495814087612,253102,207470,226547,1342
1783771296107821708,2026-07-11T19:01:36.107+07:00,837086495814087612,253161,207503,226663,1345
1783771296126003526,2026-07-11T19:01:36.126+07:00,837086495814087612,253204,207533,226688,1260
1783771296144185344,2026-07-11T19:01:36.144+07:00,837086495814087612,253280,207573,226767,1306
1783771296162367162,2026-07-11T19:01:36.162+07:00,837086495814087612,253275,207696,226819,1343
1783771296180548980,2026-07-11T19:01:36.180+07:00,837086495814087612,253433,207692,226888,1336
1783771296198730798,2026-07-11T19:01:36.198+07:00,837086495814087612,253497,207811,226933,1378
1783771296216912616,2026-07-11T19:01:36.216+07:00,837086495814087612,253603,207895,227055,1300
1783771296235094434,2026-07-11T19:01:36.235+07:00,837086495814087612,253746,207998,227161,1288
1783771296253276252,2026-07-11T19:01:36.253+07:00,837086495814087612,253843,208075,227306,1293
1783771296271458070,2026-07-11T19:01:36.271+07:00,837086495814087612,253989,208184,227395,1286
1783771296289639888,2026-07-11T19:01:36.289+07:00,837086495814087612,254089,208275,227454,1370
1783771296307821706,2026-07-11T19:01:36.307+07:00,837086495814087612,253933,208183,227295,1369
1783771296326003524,2026-07-11T19:01:36.326+07:00,837086495814087612,253732,207946,227063,1341
1783771296344185342,2026-07-11T19:01:36.344+07:00,837086495814087612,253493,207690,226783,1411
1783771296362367160,2026-07-11T19:01:36.362+07:00,837086495814087612,253113,207460,226459,1303
1783771296380548978,2026-07-11T19:01:36.380+07:00,837086495814087612,252906,207321,226194,1339
1783771296398730796,2026-07-11T19:01:36.398+07:00,837086495814087612,252698,207194,225989,1360
1783771296416912614,2026-07-11T19:01:36.416+07:00,837086496578365144,252603,207046,225913,1376
1783771296435094432,2026-07-11T19:01:36.435+07:00,837086496578365144,252535,207013,225825,1331
1783771296453276250,2026-07-11T19:01:36.453+07:00,837086496578365144,252606,207055,225862,1333
1783771296471458068,2026-07-11T19:01:36.471+07:00,837086496578365144,252547,207094,225849,1285
1783771296489639886,2026-07-11T19:01:36.489+07:00,837086496578365144,252675,207175,225863,1303
1783771296507821704,2026-07-11T19:01:36.507+07:00,837086496578365144,252733,207221,226016,1354
1783771296526003522,2026-07-11T19:01:36.526+07:00,837086496578365144,252903,207326,226106,1343
1783771296544185340,2026-07-11T19:01:36.544+07:00,837086496578365144,252922,207396,226160,1341
1783771296562367158,2026-07-11T19:01:36.562+07:00,837086496578365144,253046,207514,226276,1393
1783771296580548976,2026-07-11T19:01:36.580+07:00,837086496578365144,253051,207551,226279,1309
1783771296598730794,2026-07-11T19:01:36.598+07:00,837086496578365144,253178,207648,226362,1338
1783771296616912612,2026-07-11T19:01:36.616+07:00,837086496578365144,253271,207730,226499,1285
1783771296635094430,2026-07-11T19:01:36.635+07:00,837086496578365144,253339,207882,226610,1340
1783771296653276248,2026-07-11T19:01:36.653+07:00,837086496578365144,253379,207932,226615,1314
1783771296671458066,2026-07-11T19:01:36.671+07:00,837086496578365144,253489,207998,226712,1294
1783771296689639884,2026-07-11T19:01:36.689+07:00,837086496578365144,253689,208174,226914,1379
1783771296707821702,2026-07-11T19:01:36.707+07:00,837086496578365144,253830,208300,226995,1339
1783771296726003520,2026-07-11T19:01:36.726+07:00,837086496578365144,253886,208409,227133,1359
1783771296744185338,2026-07-11T19:01:36.744+07:00,837086496578365144,254079,208598,227277,1368
1783771296762367156,2026-07-11T19:01:36.762+07:00,837086496578365144,254239,208653,227389,1320
1783771296780548974,2026-07-11T19:01:36.780+07:00,837086496578365144,254397,208803,227593,1330
1783771296798730792,2026-07-11T19:01:36.798+07:00,837086496578365144,254529,208881,227720,1262
1783771296816912610,2026-07-11T19:01:36.816+07:00,837086496578365144,254543,208858,227633,1310
1783771296835094428,2026-07-11T19:01:36.835+07:00,837086496578365144,254518,208842,227569,1352
1783771296853276246,2026-07-11T19:01:36.853+07:00,837086496578365144,254197,208618,227295,1301
1783771296871458064,2026-07-11T19:01:36.871+07:00,837086496578365144,254014,208472,227031,1388
1783771296889639882,2026-07-11T19:01:36.889+07:00,837086496578365144,253745,208292,226773,1359
1783771296907821700,2026-07-11T19:01:36.907+07:00,837086496578365144,253630,208159,226651,1373
1783771296926003518,2026-07-11T19:01:36.926+07:00,837086496578365144,253476,207983,226434,1281
1783771296944185336,2026-07-11T19:01:36.944+07:00,837086496578365144,253467,207979,226376,1333
1783771296962367154,2026-07-11T19:01:36.962+07:00,837086496578365144,253431,207962,226360,1314
1783771296980548972,2026-07-11T19:01:36.980+07:00,837086496578365144,253499,208057,226430,1339
1783771296998730790,2026-07-11T19:01:36.998+07:00,837086496578365144,253522,208156,226517,1317
1783771297016912608,2026-07-11T19:01:37.016+07:00,837086496578365144,253653,208205,226558,1371
1783771297035094426,2026-07-11T19:01:37.035+07:00,837086496578365144,253757,208287,226694,1355
1783771297053276244,2026-07-11T19:01:37.053+07:00,837086496578365144,253793,208387,226816,1309
1783771297071458062,2026-07-11T19:01:37.071+07:00,837086496578365144,253920,208488,226890,1334
1783771297089639880,2026-07-11T19:01:37.089+07:00,837086496578365144,254007,208539,226938,1350
1783771297107821698,2026-07-11T19:01:37.107+07:00,837086496578365144,254126,208653,227053,1369
1783771297126003516,2026-07-11T19:01:37.126+07:00,837086496578365144,254194,208710,227133,1322
1783771297144185334,2026-07-11T19:01:37.144+07:00,837086496578365144,254288,208732,227168,1307
1783771297162367152,2026-07-11T19:01:37.162+07:00,837086496578365144,254390,208883,227312,1352
1783771297180548970,2026-07-11T19:01:37.180+07:00,837086497342642676,254527,208921,227387,1350
1783771297198730788,2026-07-11T19:01:37.198+07:00,837086497342642676,254630,209007,227546,1272
1783771297216912606,2026-07-11T19:01:37.216+07:00,837086497342642676,254758,209175,227675,1303
1783771297235094424,2026-07-11T19:01:37.235+07:00,837086497342642676,254943,209361,227841,1399
1783771297253276242,2026-07-11T19:01:37.253+07:00,837086497342642676,255036,209435,227973,1371
1783771297271458060,2026-07-11T19:01:37.271+07:00,837086497342642676,255178,209570,228092,1367
1783771297289639878,2026-07-11T19:01:37.289+07:00,837086497342642676,255326,209760,228246,1380
1783771297307821696,2026-07-11T19:01:37.307+07:00,837086497342642676,255555,209951,228417,1388
1783771297326003514,2026-07-11T19:01:37.326+07:00,837086497342642676,255661,210058,228547,1360
1783771297344185332,2026-07-11T19:01:37.344+07:00,837086497342642676,255752,210102,228644,1338
1783771297362367150,2026-07-11T19:01:37.362+07:00,837086497342642676,255750,210048,228531,1347
1783771297380548968,2026-07-11T19:01:37.380+07:00,837086497342642676,255534,209964,228388,1347
1783771297398730786,2026-07-11T19:01:37.398+07:00,837086497342642676,255430,209793,228153,1306
1783771297416912604,2026-07-11T19:01:37.416+07:00,837086497342642676,255193,209601,227891,1313
1783771297435094422,2026-07-11T19:01:37.435+07:00,837086497342642676,255072,209565,227864,1343
1783771297453276240,2026-07-11T19:01:37.453+07:00,837086497342642676,254990,209483,227821,1331
1783771297471458058,2026-07-11T19:01:37.471+07:00,837086497342642676,254905,209392,227690,1291
1783771297489639876,2026-07-11T19:01:37.489+07:00,837086497342642676,254923,209518,227739,1359
1783771297507821694,2026-07-11T19:01:37.507+07:00,837086497342642676,255002,209511,227772,1287
1783771297526003512,2026-07-11T19:01:37.526+07:00,837086497342642676,255045,209502,227794,1345
1783771297544185330,2026-07-11T19:01:37.544+07:00,837086497342642676,255120,209660,227931,1303
1783771297562367148,2026-07-11T19:01:37.562+07:00,837086497342642676,255198,209664,228045,1303
1783771297580548966,2026-07-11T19:01:37.580+07:00,837086497342642676,255274,209846,228149,1291
1783771297598730784,2026-07-11T19:01:37.598+07:00,837086497342642676,255394,209894,228249,1328
1783771297616912602,2026-07-11T19:01:37.616+07:00,837086497342642676,255531,210011,228313,1355
1783771297635094420,2026-07-11T19:01:37.635+07:00,837086497342642676,255539,210058,228336,1355
1783771297653276238,2026-07-11T19:01:37.653+07:00,837086497342642676,255678,210161,228460,1332
1783771297671458056,2026-07-11T19:01:37.671+07:00,837086497342642676,255684,210159,228505,1301
1783771297689639874,2026-07-11T19:01:37.689+07:00,837086497342642676,255786,210201,228607,1282
1783771297707821692,2026-07-11T19:01:37.707+07:00,837086497342642676,255855,210327,228711,1326
1783771297726003510,2026-07-11T19:01:37.726+07:00,837086497342642676,255952,210432,228783,1270
1783771297744185328,2026-07-11T19:01:37.744+07:00,837086497342642676,256132,210460,228923,1317
1783771297762367146,2026-07-11T19:01:37.762+07:00,837086497342642676,256241,210547,229089,1378
1783771297780548964,2026-07-11T19:01:37.780+07:00,837086497342642676,256378,210646,229212,1361
1783771297798730782,2026-07-11T19:01:37.798+07:00,837086497342642676,256529,210765,229338,1343
1783771297816912600,2026-07-11T19:01:37.816+07:00,837086497342642676,256614,210940,229564,1347
1783771297835094418,2026-07-11T19:01:37.835+07:00,837086497342642676,256758,211023,229619,1333
1783771297853276236,2026-07-11T19:01:37.853+07:00,837086497342642676,256912,211169,229783,1315
1783771297871458054,2026-07-11T19:01:37.871+07:00,837086497342642676,257112,211282,229955,1403
1783771297889639872,2026-07-11T19:01:37.889+07:00,837086497342642676,257154,211319,230007,1366
1783771297907821690,2026-07-11T19:01:37.907+07:00,837086497342642676,257143,211376,230013,1317
1783771297926003508,2026-07-11T19:01:37.926+07:00,837086497342642676,257008,211329,229872,1322
1783771297944185326,2026-07-11T19:01:37.944+07:00,837086498106920208,256833,211155,229721,1347
1783771297962367144,2026-07-11T19:01:37.962+07:00,837086498106920208,256701,210983,229505,1289
1783771297980548962,2026-07-11T19:01:37.980+07:00,837086498106920208,256545,210889,229390,1330
1783771297998730780,2026-07-11T19:01:37.998+07:00,837086498106920208,256408,210812,229299,1301
1783771298016912598,2026-07-11T19:01:38.016+07:00,837086498106920208,256400,210788,229322,1367
1783771298035094416,2026-07-11T19:01:38.035+07:00,837086498106920208,256356,210813,229304,1334
1783771298053276234,2026-07-11T19:01:38.053+07:00,837086498106920208,256379,210830,229334,1332
1783771298071458052,2026-07-11T19:01:38.071+07:00,837086498106920208,256478,210914,229398,1338
1783771298089639870,2026-07-11T19:01:38.089+07:00,837086498106920208,256536,210968,229487,1305
1783771298107821688,2026-07-11T19:01:38.107+07:00,837086498106920208,256647,210997,229588,1316
1783771298126003506,2026-07-11T19:01:38.126+07:00,837086498106920208,256735,211080,229700,1311
1783771298144185324,2026-07-11T19:01:38.144+07:00,837086498106920208,256790,211149,229793,1302
1783771298162367142,2026-07-11T19:01:38.162+07:00,837086498106920208,256846,211200,229851,1330
1783771298180548960,2026-07-11T19:01:38.180+07:00,837086498106920208,256938,211253,229949,1297
1783771298198730778,2026-07-11T19:01:38.198+07:00,837086498106920208,256981,211261,229939,1333
1783771298216912596,2026-07-11T19:01:38.216+07:00,837086498106920208,257018,211353,230019,1279
1783771298235094414,2026-07-11T19:01:38.235+07:00,837086498106920208,257063,211405,230066,1262
1783771298253276232,2026-07-11T19:01:38.253+07:00,837086498106920208,257184,211417,230194,1325
1783771298271458050,2026-07-11T19:01:38.271+07:00,837086498106920208,257219,211504,230236,1348
1783771298289639868,2026-07-11T19:01:38.289+07:00,837086498106920208,257344,211595,230345,1319
1783771298307821686,2026-07-11T19:01:38.307+07:00,837086498106920208,257407,211708,230465,1240
1783771298326003504,2026-07-11T19:01:38.326+07:00,837086498106920208,257577,211773,230607,1296
1783771298344185322,2026-07-11T19:01:38.344+07:00,837086498106920208,257687,211935,230731,1374
1783771298362367140,2026-07-11T19:01:38.362+07:00,837086498106920208,257778,211956,230823,1324
1783771298380548958,2026-07-11T19:01:38.380+07:00,837086498106920208,257883,212058,230960,1299
1783771298398730776,2026-07-11T19:01:38.398+07:00,837086498106920208,258041,212178,231126,1324
1783771298416912594,2026-07-11T19:01:38.416+07:00,837086498106920208,258078,212158,231162,1298
1783771298435094412,2026-07-11T19:01:38.435+07:00,837086498106920208,258053,212152,231096,1333
1783771298453276230,2026-07-11T19:01:38.453+07:00,837086498106920208,257838,211996,230981,1291
1783771298471458048,2026-07-11T19:01:38.471+07:00,837086498106920208,257672,211867,230811,1287
1783771298489639866,2026-07-11T19:01:38.489+07:00,837086498106920208,257519,211714,230636,1317
1783771298507821684,2026-07-11T19:01:38.507+07:00,837086498106920208,257394,211688,230618,1406
1783771298526003502,2026-07-11T19:01:38.526+07:00,837086498106920208,257300,211575,230508,1382
1783771298544185320,2026-07-11T19:01:38.544+07:00,837086498106920208,257223,211546,230498,1361
1783771298562367138,2026-07-11T19:01:38.562+07:00,837086498106920208,257240,211600,230503,1400
1783771298580548956,2026-07-11T19:01:38.580+07:00,837086498106920208,257294,211619,230600,1354
1783771298598730774,2026-07-11T19:01:38.598+07:00,837086498106920208,257304,211620,230654,1339
1783771298616912592,2026-07-11T19:01:38.616+07:00,837086498106920208,257397,211697,230736,1333
1783771298635094410,2026-07-11T19:01:38.635+07:00,837086498106920208,257512,211800,230799,1319
1783771298653276228,2026-07-11T19:01:38.653+07:00,837086498106920208,257645,211859,230953,1341
1783771298671458046,2026-07-11T19:01:38.671+07:00,837086498106920208,257672,211947,231041,1302
1783771298689639864,2026-07-11T19:01:38.689+07:00,837086498106920208,257750,211926,231036,1305
1783771298707821682,2026-07-11T19:01:38.707+07:00,837086498871197740,257734,212024,231105,1317
1783771298726003500,2026-07-11T19:01:38.726+07:00,837086498871197740,257810,212113,231145,1372
1783771298744185318,2026-07-11T19:01:38.744+07:00,837086498871197740,257845,212136,231236,1283
1783771298762367136,2026-07-11T19:01:38.762+07:00,837086498871197740,257981,212169,231285,1339
1783771298780548954,2026-07-11T19:01:38.780+07:00,837086498871197740,258050,212224,231355,1288
1783771298798730772,2026-07-11T19:01:38.798+07:00,837086498871197740,258136,212327,231450,1298
1783771298816912590,2026-07-11T19:01:38.816+07:00,837086498871197740,258250,212348,231508,1306
1783771298835094408,2026-07-11T19:01:38.835+07:00,837086498871197740,258321,212423,231620,1351
1783771298853276226,2026-07-11T19:01:38.853+07:00,837086498871197740,258395,212458,231675,1343
1783771298871458044,2026-07-11T19:01:38.871+07:00,837086498871197740,258533,212572,231784,1299
1783771298889639862,2026-07-11T19:01:38.889+07:00,837086498871197740,258721,212753,231897,1287
1783771298907821680,2026-07-11T19:01:38.907+07:00,837086498871197740,258864,212912,232102,1321
1783771298926003498,2026-07-11T19:01:38.926+07:00,837086498871197740,258832,212878,232047,1324
1783771298944185316,2026-07-11T19:01:38.944+07:00,837086498871197740,258775,212757,232010,1355
1783771298962367134,2026-07-11T19:01:38.962+07:00,837086498871197740,258679,212673,231862,1336
1783771298980548952,2026-07-11T19:01:38.980+07:00,837086498871197740,258479,212521,231755,1326
1783771298998730770,2026-07-11T19:01:38.998+07:00,837086498871197740,258305,212462,231627,1352
1783771299016912588,2026-07-11T19:01:39.016+07:00,837086498871197740,258192,212394,231584,1333
1783771299035094406,2026-07-11T19:01:39.035+07:00,837086498871197740,258101,212327,231533,1291
1783771299053276224,2026-07-11T19:01:39.053+07:00,837086498871197740,258094,212389,231584,1321
1783771299071458042,2026-07-11T19:01:39.071+07:00,837086498871197740,258147,212385,231594,1326
1783771299089639860,2026-07-11T19:01:39.089+07:00,837086498871197740,258214,212435,231650,1304
1783771299107821678,2026-07-11T19:01:39.107+07:00,837086498871197740,258328,212481,231715,1318
1783771299126003496,2026-07-11T19:01:39.126+07:00,837086498871197740,258320,212550,231863,1339
1783771299144185314,2026-07-11T19:01:39.144+07:00,837086498871197740,258438,212662,231976,1357
1783771299162367132,2026-07-11T19:01:39.162+07:00,837086498871197740,258571,212735,232109,1359
1783771299180548950,2026-07-11T19:01:39.180+07:00,837086498871197740,258675,212856,232231,1331
1783771299198730768,2026-07-11T19:01:39.198+07:00,837086498871197740,258732,212951,232259,1314
1783771299216912586,2026-07-11T19:01:39.216+07:00,837086498871197740,258788,212981,232316,1330
1783771299235094404,2026-07-11T19:01:39.235+07:00,837086498871197740,258923,213051,232389,1379
1783771299253276222,2026-07-11T19:01:39.253+07:00,837086498871197740,258975,213120,232493,1341
1783771299271458040,2026-07-11T19:01:39.271+07:00,837086498871197740,259079,213104,232640,1324
1783771299289639858,2026-07-11T19:01:39.289+07:00,837086498871197740,259145,213185,232654,1307
1783771299307821676,2026-07-11T19:01:39.307+07:00,837086498871197740,259228,213260,232768,1330
1783771299326003494,2026-07-11T19:01:39.326+07:00,837086498871197740,259272,213327,232863,1321
1783771299344185312,2026-07-11T19:01:39.344+07:00,837086498871197740,259377,213508,233019,1311
1783771299362367130,2026-07-11T19:01:39.362+07:00,837086498871197740,259544,213600,233134,1338
1783771299380548948,2026-07-11T19:01:39.380+07:00,837086498871197740,259634,213730,233269,1335
1783771299398730766,2026-07-11T19:01:39.398+07:00,837086498871197740,259782,213785,233422,1345
1783771299416912584,2026-07-11T19:01:39.416+07:00,837086498871197740,259907,213893,233522,1304
1783771299435094402,2026-07-11T19:01:39.435+07:00,837086498871197740,259918,213940,233527,1260
1783771299453276220,2026-07-11T19:01:39.453+07:00,837086498871197740,259964,213944,233568,1290
1783771299471458038,2026-07-11T19:01:39.471+07:00,837086499635460014,259840,213880,233491,1336
1783771299489639856,2026-07-11T19:01:39.489+07:00,837086499635460014,259569,213664,233319,1252
1783771299507821674,2026-07-11T19:01:39.507+07:00,837086499635460014,259408,213569,233258,1282
1783771299526003492,2026-07-11T19:01:39.526+07:00,837086499635460014,259312,213492,233108,1313
1783771299544185310,2026-07-11T19:01:39.544+07:00,837086499635460014,259225,213370,233071,1327
1783771299562367128,2026-07-11T19:01:39.562+07:00,837086499635460014,259082,213312,233013,1264
1783771299580548946,2026-07-11T19:01:39.580+07:00,837086499635460014,259066,213271,233067,1302
1783771299598730764,2026-07-11T19:01:39.598+07:00,837086499635460014,259094,213340,233086,1315
1783771299616912582,2026-07-11T19:01:39.616+07:00,837086499635460014,259143,213430,233216,1336
1783771299635094400,2026-07-11T19:01:39.635+07:00,837086499635460014,259177,213418,233229,1294
1783771299653276218,2026-07-11T19:01:39.653+07:00,837086499635460014,259343,213523,233359,1403
1783771299671458036,2026-07-11T19:01:39.671+07:00,837086499635460014,259358,213564,233406,1258
1783771299689639854,2026-07-11T19:01:39.689+07:00,837086499635460014,259513,213665,233548,1375
1783771299707821672,2026-07-11T19:01:39.707+07:00,837086499635460014,259578,213704,233587,1316
1783771299726003490,2026-07-11T19:01:39.726+07:00,837086499635460014,259670,213770,233749,1331
1783771299744185308,2026-07-11T19:01:39.744+07:00,837086499635460014,259672,213771,233780,1367
1783771299762367126,2026-07-11T19:01:39.762+07:00,837086499635460014,259735,213870,233859,1337
1783771299780548944,2026-07-11T19:01:39.780+07:00,837086499635460014,259830,213930,233903,1371
1783771299798730762,2026-07-11T19:01:39.798+07:00,837086499635460014,259766,213915,233979,1333
1783771299816912580,2026-07-11T19:01:39.816+07:00,837086499635460014,259857,214036,234050,1361
1783771299835094398,2026-07-11T19:01:39.835+07:00,837086499635460014,259966,214075,234138,1375
1783771299853276216,2026-07-11T19:01:39.853+07:00,837086499635460014,260026,214136,234169,1335
1783771299871458034,2026-07-11T19:01:39.871+07:00,837086499635460014,260083,214237,234256,1316
1783771299889639852,2026-07-11T19:01:39.889+07:00,837086499635460014,260169,214296,234342,1330
1783771299907821670,2026-07-11T19:01:39.907+07:00,837086499635460014,260243,214344,234394,1335
1783771299926003488,2026-07-11T19:01:39.926+07:00,837086499635460014,260317,214384,234466,1277
1783771299944185306,2026-07-11T19:01:39.944+07:00,837086499635460014,260257,214322,234409,1294
1783771299962367124,2026-07-11T19:01:39.962+07:00,837086499635460014,260102,214197,234354,1324
1783771299980548942,2026-07-11T19:01:39.980+07:00,837086499635460014,259955,214059,234124,1350
1783771299998730760,2026-07-11T19:01:39.998+07:00,837086499635460014,259684,213852,233932,1367
1783771300016912578,2026-07-11T19:01:40.016+07:00,837086499635460014,259510,213714,233771,1253
1783771300035094396,2026-07-11T19:01:40.035+07:00,837086499635460014,259371,213662,233724,1282
1783771300053276214,2026-07-11T19:01:40.053+07:00,837086499635460014,259233,213606,233639,1279
1783771300071458032,2026-07-11T19:01:40.071+07:00,837086499635460014,259147,213550,233657,1283
1783771300089639850,2026-07-11T19:01:40.089+07:00,837086499635460014,259083,213530,233665,1345
1783771300107821668,2026-07-11T19:01:40.107+07:00,837086499635460014,259082,213501,233623,1344
1783771300126003486,2026-07-11T19:01:40.126+07:00,837086499635460014,259128,213488,233664,1314
1783771300144185304,2026-07-11T19:01:40.144+07:00,837086499635460014,259111,213535,233695,1320
1783771300162367122,2026-07-11T19:01:40.162+07:00,837086499635460014,259172,213629,233762,1320
1783771300180548940,2026-07-11T19:01:40.180+07:00,837086499635460014,259172,213637,233764,1253
1783771300198730758,2026-07-11T19:01:40.198+07:00,837086499635460014,259244,213707,233837,1324
1783771300216912576,2026-07-11T19:01:40.216+07:00,837086499635460014,259287,213630,233784,1298
1783771300235094394,2026-07-11T19:01:40.235+07:00,837086500417907963,259289,213662,233867,1360
1783771300253276212,2026-07-11T19:01:40.253+07:00,837086500417907963,259282,213620,233868,1310
1783771300271458030,2026-07-11T19:01:40.271+07:00,837086500417907963,259371,213665,233899,1318
1783771300289639848,2026-07-11T19:01:40.289+07:00,837086500417907963,259361,213729,233985,1368
1783771300307821666,2026-07-11T19:01:40.307+07:00,837086500417907963,259391,213717,233967,1332
1783771300326003484,2026-07-11T19:01:40.326+07:00,837086500417907963,259409,213744,234001,1302
1783771300344185302,2026-07-11T19:01:40.344+07:00,837086500417907963,259435,213705,234010,1282
1783771300362367120,2026-07-11T19:01:40.362+07:00,837086500417907963,259557,213753,234102,1304
1783771300380548938,2026-07-11T19:01:40.380+07:00,837086500417907963,259620,213829,234144,1263
1783771300398730756,2026-07-11T19:01:40.398+07:00,837086500417907963,259654,213848,234131,1325
1783771300416912574,2026-07-11T19:01:40.416+07:00,837086500417907963,259610,213861,234166,1330
1783771300435094392,2026-07-11T19:01:40.435+07:00,837086500417907963,259449,213738,233991,1285
1783771300453276210,2026-07-11T19:01:40.453+07:00,837086500417907963,259240,213533,233822,1306
1783771300471458028,2026-07-11T19:01:40.471+07:00,837086500417907963,258999,213425,233698,1387
1783771300489639846,2026-07-11T19:01:40.489+07:00,837086500417907963,258712,213181,233473,1325
1783771300507821664,2026-07-11T19:01:40.507+07:00,837086500417907963,258475,213048,233305,1320
1783771300526003482,2026-07-11T19:01:40.526+07:00,837086500417907963,258394,212941,233272,1319
1783771300544185300,2026-07-11T19:01:40.544+07:00,837086500417907963,258265,212816,233126,1289
1783771300562367118,2026-07-11T19:01:40.562+07:00,837086500417907963,258208,212798,233100,1327
1783771300580548936,2026-07-11T19:01:40.580+07:00,837086500417907963,258193,212776,233097,1304
1783771300598730754,2026-07-11T19:01:40.598+07:00,837086500417907963,258182,212791,233179,1352
1783771300616912572,2026-07-11T19:01:40.616+07:00,837086500417907963,258192,212864,233204,1317
1783771300635094390,2026-07-11T19:01:40.635+07:00,837086500417907963,258207,212910,233248,1347
1783771300653276208,2026-07-11T19:01:40.653+07:00,837086500417907963,258309,212961,233316,1368
1783771300671458026,2026-07-11T19:01:40.671+07:00,837086500417907963,258289,212944,233314,1292
1783771300689639844,2026-07-11T19:01:40.689+07:00,837086500417907963,258307,212942,233368,1330
1783771300707821662,2026-07-11T19:01:40.707+07:00,837086500417907963,258438,212984,233385,1349
1783771300726003480,2026-07-11T19:01:40.726+07:00,837086500417907963,258440,212994,233474,1303
1783771300744185298,2026-07-11T19:01:40.744+07:00,837086500417907963,258457,212993,233485,1307
1783771300762367116,2026-07-11T19:01:40.762+07:00,837086500417907963,258465,213009,233494,1300
1783771300780548934,2026-07-11T19:01:40.780+07:00,837086500417907963,258493,213069,233507,1321
1783771300798730752,2026-07-11T19:01:40.798+07:00,837086500417907963,258503,213082,233506,1273
1783771300816912570,2026-07-11T19:01:40.816+07:00,837086500417907963,258587,213220,233606,1315
1783771300835094388,2026-07-11T19:01:40.835+07:00,837086500417907963,258647,213281,233696,1289
1783771300853276206,2026-07-11T19:01:40.853+07:00,837086500417907963,258739,213339,233812,1317
1783771300871458024,2026-07-11T19:01:40.871+07:00,837086500417907963,258773,213270,233822,1250
1783771300889639842,2026-07-11T19:01:40.889+07:00,837086500417907963,258778,213300,233822,1258
1783771300907821660,2026-07-11T19:01:40.907+07:00,837086500417907963,258676,213266,233770,1240
1783771300926003478,2026-07-11T19:01:40.926+07:00,837086500417907963,258489,213132,233504,1277
1783771300944185296,2026-07-11T19:01:40.944+07:00,837086500417907963,258209,212894,233317,1286
1783771300962367114,2026-07-11T19:01:40.962+07:00,837086500417907963,257995,212786,233100,1314
1783771300980548932,2026-07-11T19:01:40.980+07:00,837086500417907963,257751,212629,232945,1284
1783771300998730750,2026-07-11T19:01:40.998+07:00,837086500417907963,257630,212436,232822,1281
1783771301016912568,2026-07-11T19:01:41.016+07:00,837086501254951085,257514,212380,232700,1302
1783771301035094386,2026-07-11T19:01:41.035+07:00,837086501254951085,257447,212364,232673,1317
1783771301053276204,2026-07-11T19:01:41.053+07:00,837086501254951085,257454,212373,232723,1339
1783771301071458022,2026-07-11T19:01:41.071+07:00,837086501254951085,257457,212360,232709,1356
1783771301089639840,2026-07-11T19:01:41.089+07:00,837086501254951085,257566,212394,232744,1318
1783771301107821658,2026-07-11T19:01:41.107+07:00,837086501254951085,257510,212391,232792,1330
1783771301126003476,2026-07-11T19:01:41.126+07:00,837086501254951085,257482,212451,232785,1325
1783771301144185294,2026-07-11T19:01:41.144+07:00,837086501254951085,257585,212510,232851,1330
1783771301162367112,2026-07-11T19:01:41.162+07:00,837086501254951085,257590,212476,232857,1350
1783771301180548930,2026-07-11T19:01:41.180+07:00,837086501254951085,257648,212518,232906,1366
1783771301198730748,2026-07-11T19:01:41.198+07:00,837086501254951085,257735,212544,232956,1399
1783771301216912566,2026-07-11T19:01:41.216+07:00,837086501254951085,257712,212562,232997,1340
1783771301235094384,2026-07-11T19:01:41.235+07:00,837086501254951085,257781,212576,233018,1378
1783771301253276202,2026-07-11T19:01:41.253+07:00,837086501254951085,257797,212689,233117,1401
1783771301271458020,2026-07-11T19:01:41.271+07:00,837086501254951085,257833,212721,233128,1350
1783771301289639838,2026-07-11T19:01:41.289+07:00,837086501254951085,257944,212777,233187,1376
1783771301307821656,2026-07-11T19:01:41.307+07:00,837086501254951085,257993,212767,233312,1316
1783771301326003474,2026-07-11T19:01:41.326+07:00,837086501254951085,258085,212868,233369,1297
1783771301344185292,2026-07-11T19:01:41.344+07:00,837086501254951085,258200,212978,233475,1355
1783771301362367110,2026-07-11T19:01:41.362+07:00,837086501254951085,258233,212941,233538,1313
1783771301380548928,2026-07-11T19:01:41.380+07:00,837086501254951085,258211,212917,233511,1356
1783771301398730746,2026-07-11T19:01:41.398+07:00,837086501254951085,258132,212872,233365,1301
1783771301416912564,2026-07-11T19:01:41.416+07:00,837086501254951085,257927,212746,233234,1377
1783771301435094382,2026-07-11T19:01:41.435+07:00,837086501254951085,257704,212629,233057,1361
1783771301453276200,2026-07-11T19:01:41.453+07:00,837086501254951085,257496,212480,232926,1361
1783771301471458018,2026-07-11T19:01:41.471+07:00,837086501254951085,257260,212322,232703,1339
1783771301489639836,2026-07-11T19:01:41.489+07:00,837086501254951085,257069,212245,232596,1330
1783771301507821654,2026-07-11T19:01:41.507+07:00,837086501254951085,256964,212127,232535,1344
1783771301526003472,2026-07-11T19:01:41.526+07:00,837086501254951085,256897,212103,232467,1347
1783771301544185290,2026-07-11T19:01:41.544+07:00,837086501254951085,256884,212077,232460,1334
1783771301562367108,2026-07-11T19:01:41.562+07:00,837086501254951085,256888,212097,232419,1338
1783771301580548926,2026-07-11T19:01:41.580+07:00,837086501254951085,256913,212136,232432,1341
1783771301598730744,2026-07-11T19:01:41.598+07:00,837086501254951085,256970,212145,232485,1321
1783771301616912562,2026-07-11T19:01:41.616+07:00,837086501254951085,257015,212199,232568,1347
1783771301635094380,2026-07-11T19:01:41.635+07:00,837086501254951085,257107,212213,232689,1371
1783771301653276198,2026-07-11T19:01:41.653+07:00,837086501254951085,257167,212261,232736,1405
1783771301671458016,2026-07-11T19:01:41.671+07:00,837086501254951085,257171,212318,232813,1396
1783771301689639834,2026-07-11T19:01:41.689+07:00,837086501254951085,257252,212348,232804,1369
1783771301707821652,2026-07-11T19:01:41.707+07:00,837086501254951085,257293,212391,232865,1310
1783771301726003470,2026-07-11T19:01:41.726+07:00,837086501254951085,257286,212373,232808,1338
1783771301744185288,2026-07-11T19:01:41.744+07:00,837086501254951085,257299,212426,232916,1322
1783771301762367106,2026-07-11T19:01:41.762+07:00,837086501254951085,257350,212473,232996,1368
1783771301780548924,2026-07-11T19:01:41.780+07:00,837086501254951085,257426,212553,233069,1317
1783771301798730742,2026-07-11T19:01:41.798+07:00,837086501254951085,257529,212569,233184,1391
1783771301816912560,2026-07-11T19:01:41.816+07:00,837086501254951085,257674,212623,233271,1338
1783771301835094378,2026-07-11T19:01:41.835+07:00,837086501254951085,257702,212704,233302,1317
1783771301853276196,2026-07-11T19:01:41.853+07:00,837086502019166065,257770,212812,233388,1337
1783771301871458014,2026-07-11T19:01:41.871+07:00,837086502019166065,257805,212832,233406,1305
1783771301889639832,2026-07-11T19:01:41.889+07:00,837086502019166065,257826,212859,233420,1342
1783771301907821650,2026-07-11T19:01:41.907+07:00,837086502019166065,257786,212791,233403,1359
1783771301926003468,2026-07-11T19:01:41.926+07:00,837086502019166065,257651,212673,233230,1307
1783771301944185286,2026-07-11T19:01:41.944+07:00,837086502019166065,257395,212486,232955,1323
1783771301962367104,2026-07-11T19:01:41.962+07:00,837086502019166065,257222,212299,232767,1349
1783771301980548922,2026-07-11T19:01:41.980+07:00,837086502019166065,256946,212159,232539,1296
1783771301998730740,2026-07-11T19:01:41.998+07:00,837086502019166065,256749,212064,232408,1376
1783771302016912558,2026-07-11T19:01:42.016+07:00,837086502019166065,256640,211974,232352,1353
1783771302035094376,2026-07-11T19:01:42.035+07:00,837086502019166065,256539,211909,232257,1331
1783771302053276194,2026-07-11T19:01:42.053+07:00,837086502019166065,256510,211911,232265,1365
1783771302071458012,2026-07-11T19:01:42.071+07:00,837086502019166065,256541,211936,232244,1324
1783771302089639830,2026-07-11T19:01:42.089+07:00,837086502019166065,256511,211866,232268,1290
1783771302107821648,2026-07-11T19:01:42.107+07:00,837086502019166065,256579,211974,232296,1293
1783771302126003466,2026-07-11T19:01:42.126+07:00,837086502019166065,256663,212026,232385,1286
1783771302144185284,2026-07-11T19:01:42.144+07:00,837086502019166065,256627,211977,232439,1338
1783771302162367102,2026-07-11T19:01:42.162+07:00,837086502019166065,256663,212005,232457,1366
1783771302180548920,2026-07-11T19:01:42.180+07:00,837086502019166065,256757,212084,232498,1317
1783771302198730738,2026-07-11T19:01:42.198+07:00,837086502019166065,256683,212028,232462,1319
1783771302216912556,2026-07-11T19:01:42.216+07:00,837086502019166065,256761,212138,232566,1354
1783771302235094374,2026-07-11T19:01:42.235+07:00,837086502019166065,256744,212148,232592,1352
1783771302253276192,2026-07-11T19:01:42.253+07:00,837086502019166065,256805,212206,232682,1333
1783771302271458010,2026-07-11T19:01:42.271+07:00,837086502019166065,256911,212223,232743,1385
1783771302289639828,2026-07-11T19:01:42.289+07:00,837086502019166065,256982,212305,232814,1339
1783771302307821646,2026-07-11T19:01:42.307+07:00,837086502019166065,257083,212347,232893,1309
1783771302326003464,2026-07-11T19:01:42.326+07:00,837086502019166065,257160,212385,232989,1315
1783771302344185282,2026-07-11T19:01:42.344+07:00,837086502019166065,257189,212409,233044,1327
1783771302362367100,2026-07-11T19:01:42.362+07:00,837086502019166065,257298,212572,233062,1320
1783771302380548918,2026-07-11T19:01:42.380+07:00,837086502019166065,257406,212709,233223,1309
1783771302398730736,2026-07-11T19:01:42.398+07:00,837086502019166065,257528,212732,233340,1351
1783771302416912554,2026-07-11T19:01:42.416+07:00,837086502019166065,257677,212863,233528,1396
1783771302435094372,2026-07-11T19:01:42.435+07:00,837086502019166065,257617,212832,233510,1349
1783771302453276190,2026-07-11T19:01:42.453+07:00,837086502019166065,257615,212829,233461,1340
1783771302471458008,2026-07-11T19:01:42.471+07:00,837086502019166065,257444,212647,233272,1378
1783771302489639826,2026-07-11T19:01:42.489+07:00,837086502019166065,257252,212479,233085,1339
1783771302507821644,2026-07-11T19:01:42.507+07:00,837086502019166065,256985,212429,232965,1328
1783771302526003462,2026-07-11T19:01:42.526+07:00,837086502019166065,256838,212267,232841,1321
1783771302544185280,2026-07-11T19:01:42.544+07:00,837086502019166065,256669,212178,232701,1326
1783771302562367098,2026-07-11T19:01:42.562+07:00,837086502019166065,256611,212142,232623,1368
1783771302580548916,2026-07-11T19:01:42.580+07:00,837086502019166065,256538,212048,232623,1369
1783771302598730734,2026-07-11T19:01:42.598+07:00,837086502019166065,256513,212105,232692,1366
1783771302616912552,2026-07-11T19:01:42.616+07:00,837086502783414605,256564,212168,232693,1328
1783771302635094370,2026-07-11T19:01:42.635+07:00,837086502783414605,256529,212134,232726,1322
1783771302653276188,2026-07-11T19:01:42.653+07:00,837086502783414605,256559,212286,232811,1337
1783771302671458006,2026-07-11T19:01:42.671+07:00,837086502783414605,256698,212286,232908,1396
1783771302689639824,2026-07-11T19:01:42.689+07:00,837086502783414605,256737,212357,232969,1343
1783771302707821642,2026-07-11T19:01:42.707+07:00,837086502783414605,256811,212381,233049,1343
1783771302726003460,2026-07-11T19:01:42.726+07:00,837086502783414605,256871,212431,233075,1313
1783771302744185278,2026-07-11T19:01:42.744+07:00,837086502783414605,256834,212475,233080,1308
