host_timestamp_ns,host_timestamp_iso,pmd_timestamp,ppg0,ppg1,ppg2,ambient
1783771438509754480,2026-07-11T19:03:58.509+07:00,837086638750977169,215264,174324,196389,1356
1783771438527936298,2026-07-11T19:03:58.527+07:00,837086638750977169,214642,173783,195704,1375
1783771438546118116,2026-07-11T19:03:58.546+07:00,837086638750977169,213931,173176,194997,1319
1783771438564299934,2026-07-11T19:03:58.564+07:00,837086638750977169,213317,172699,194359,1409
1783771438582481752,2026-07-11T19:03:58.582+07:00,837086638750977169,212812,172289,193929,1320
1783771438600663570,2026-07-11T19:03:58.600+07:00,837086638750977169,212558,171999,193629,1310
1783771438618845388,2026-07-11T19:03:58.618+07:00,837086638750977169,212436,171916,193541,1355
1783771438637027206,2026-07-11T19:03:58.637+07:00,837086638750977169,212409,171922,193540,1354
1783771438655209024,2026-07-11T19:03:58.655+07:00,837086638750977169,212477,171996,193715,1351
1783771438673390842,2026-07-11T19:03:58.673+07:00,837086638750977169,212622,172095,193844,1318
1783771438691572660,2026-07-11T19:03:58.691+07:00,837086638750977169,212790,172254,193961,1285
1783771438709754478,2026-07-11T19:03:58.709+07:00,837086638750977169,213105,172502,194224,1325
1783771438727936296,2026-07-11T19:03:58.727+07:00,837086638750977169,213307,172732,194465,1287
1783771438746118114,2026-07-11T19:03:58.746+07:00,837086638750977169,213530,172849,194688,1318
1783771438764299932,2026-07-11T19:03:58.764+07:00,837086638750977169,213693,172937,194882,1371
1783771438782481750,2026-07-11T19:03:58.782+07:00,837086638750977169,213791,173070,194936,1371
1783771438800663568,2026-07-11T19:03:58.800+07:00,837086638750977169,213873,173112,195053,1362
1783771438818845386,2026-07-11T19:03:58.818+07:00,837086638750977169,213914,173182,195133,1352
1783771438837027204,2026-07-11T19:03:58.837+07:00,837086638750977169,214042,173292,195219,1330
1783771438855209022,2026-07-11T19:03:58.855+07:00,837086638750977169,214158,173410,195225,1324
1783771438873390840,2026-07-11T19:03:58.873+07:00,837086638750977169,214249,173510,195402,1310
1783771438891572658,2026-07-11T19:03:58.891+07:00,837086638750977169,214386,173614,195560,1376
1783771438909754476,2026-07-11T19:03:58.909+07:00,837086638750977169,214545,173770,195726,1311
1783771438927936294,2026-07-11T19:03:58.927+07:00,837086638750977169,214733,173863,195930,1341
1783771438946118112,2026-07-11T19:03:58.946+07:00,837086638750977169,214817,173878,195906,1322
1783771438964299930,2026-07-11T19:03:58.964+07:00,837086638750977169,214522,173561,195533,1331
1783771438982481748,2026-07-11T19:03:58.982+07:00,837086638750977169,214028,173145,194970,1355
1783771439000663566,2026-07-11T19:03:59.000+07:00,837086638750977169,213296,172429,194128,1353
1783771439018845384,2026-07-11T19:03:59.018+07:00,837086638750977169,212612,171837,193400,1297
1783771439037027202,2026-07-11T19:03:59.037+07:00,837086638750977169,212023,171406,192809,1347
1783771439055209020,2026-07-11T19:03:59.055+07:00,837086638750977169,211658,171082,192411,1303
1783771439073390838,2026-07-11T19:03:59.073+07:00,837086638750977169,211429,170916,192267,1353
1783771439091572656,2026-07-11T19:03:59.091+07:00,837086638750977169,211394,170892,192275,1308
1783771439109754474,2026-07-11T19:03:59.109+07:00,837086638750977169,211462,170956,192404,1298
1783771439127936292,2026-07-11T19:03:59.127+07:00,837086638750977169,211551,171014,192484,1281
1783771439146118110,2026-07-11T19:03:59.146+07:00,837086639442484535,211796,171232,192742,1307
1783771439164299928,2026-07-11T19:03:59.164+07:00,837086639442484535,212011,171363,192960,1310
1783771439182481746,2026-07-11T19:03:59.182+07:00,837086639442484535,212223,171603,193145,1302
1783771439200663564,2026-07-11T19:03:59.200+07:00,837086639442484535,212486,171820,193422,1375
1783771439218845382,2026-07-11T19:03:59.218+07:00,837086639442484535,212651,171963,193588,1348
1783771439237027200,2026-07-11T19:03:59.237+07:00,837086639442484535,212777,172129,193714,1356
1783771439255209018,2026-07-11T19:03:59.255+07:00,837086639442484535,212868,172119,193802,1332
1783771439273390836,2026-07-11T19:03:59.273+07:00,837086639442484535,213013,172229,193881,1351
1783771439291572654,2026-07-11T19:03:59.291+07:00,837086639442484535,213028,172275,193937,1327
1783771439309754472,2026-07-11T19:03:59.309+07:00,837086639442484535,213086,172341,193929,1335
1783771439327936290,2026-07-11T19:03:59.327+07:00,837086639442484535,213216,172470,194093,1319
1783771439346118108,2026-07-11T19:03:59.346+07:00,837086639442484535,213329,172555,194155,1322
1783771439364299926,2026-07-11T19:03:59.364+07:00,837086639442484535,213503,172724,194421,1310
1783771439382481744,2026-07-11T19:03:59.382+07:00,837086639442484535,213765,172892,194643,1380
1783771439400663562,2026-07-11T19:03:59.400+07:00,837086639442484535,213957,173055,194799,1352
1783771439418845380,2026-07-11T19:03:59.418+07:00,837086639442484535,214067,173066,194805,1336
1783771439437027198,2026-07-11T19:03:59.437+07:00,837086639442484535,213767,172775,194465,1322
1783771439455209016,2026-07-11T19:03:59.455+07:00,837086639442484535,213093,172229,193747,1334
1783771439473390834,2026-07-11T19:03:59.473+07:00,837086639442484535,212291,171396,192848,1291
1783771439491572652,2026-07-11T19:03:59.491+07:00,837086639442484535,211538,170766,192021,1284
1783771439509754470,2026-07-11T19:03:59.509+07:00,837086639442484535,210977,170275,191503,1345
1783771439527936288,2026-07-11T19:03:59.527+07:00,837086639442484535,210665,169954,191137,1366
1783771439546118106,2026-07-11T19:03:59.546+07:00,837086639442484535,210389,169784,190949,1344
1783771439564299924,2026-07-11T19:03:59.564+07:00,837086639442484535,210357,169743,190898,1388
1783771439582481742,2026-07-11T19:03:59.582+07:00,837086639442484535,210275,169790,190881,1366
1783771439600663560,2026-07-11T19:03:59.600+07:00,837086639442484535,210453,169889,191059,1407
1783771439618845378,2026-07-11T19:03:59.618+07:00,837086639442484535,210586,170010,191240,1344
1783771439637027196,2026-07-11T19:03:59.637+07:00,837086639442484535,210883,170219,191437,1407
1783771439655209014,2026-07-11T19:03:59.655+07:00,837086639442484535,211013,170334,191647,1311
1783771439673390832,2026-07-11T19:03:59.673+07:00,837086639442484535,211185,170531,191859,1307
1783771439691572650,2026-07-11T19:03:59.691+07:00,837086639442484535,211407,170708,192051,1388
1783771439709754468,2026-07-11T19:03:59.709+07:00,837086639442484535,211489,170737,192148,1357
1783771439727936286,2026-07-11T19:03:59.727+07:00,837086639442484535,211544,170788,192169,1335
1783771439746118104,2026-07-11T19:03:59.746+07:00,837086639442484535,211627,170901,192300,1377
1783771439764299922,2026-07-11T19:03:59.764+07:00,837086639442484535,211695,170937,192411,1337
1783771439782481740,2026-07-11T19:03:59.782+07:00,837086639442484535,211751,170953,192384,1338
1783771439800663558,2026-07-11T19:03:59.800+07:00,837086639442484535,211872,171086,192546,1335
1783771439818845376,2026-07-11T19:03:59.818+07:00,837086639442484535,212035,171207,192669,1330
1783771439837027194,2026-07-11T19:03:59.837+07:00,837086640079387568,212226,171365,192896,1327
1783771439855209012,2026-07-11T19:03:59.855+07:00,837086640079387568,212433,171612,193136,1344
1783771439873390830,2026-07-11T19:03:59.873+07:00,837086640079387568,212697,171735,193321,1332
1783771439891572648,2026-07-11T19:03:59.891+07:00,837086640079387568,212760,171793,193383,1309
1783771439909754466,2026-07-11T19:03:59.909+07:00,837086640079387568,212583,171605,193121,1307
1783771439927936284,2026-07-11T19:03:59.927+07:00,837086640079387568,212042,171147,192523,1380
1783771439946118102,2026-07-11T19:03:59.946+07:00,837086640079387568,211323,170492,191654,1372
1783771439964299920,2026-07-11T19:03:59.964+07:00,837086640079387568,210508,169788,190905,1310
1783771439982481738,2026-07-11T19:03:59.982+07:00,837086640079387568,209958,169213,190282,1376
1783771440000663556,2026-07-11T19:04:00.000+07:00,837086640079387568,209452,168867,189799,1372
1783771440018845374,2026-07-11T19:04:00.018+07:00,837086640079387568,209157,168652,189547,1328
1783771440037027192,2026-07-11T19:04:00.037+07:00,837086640079387568,209058,168582,189473,1392
1783771440055209010,2026-07-11T19:04:00.055+07:00,837086640079387568,209011,168516,189390,1356
1783771440073390828,2026-07-11T19:04:00.073+07:00,837086640079387568,209095,168563,189537,1347
1783771440091572646,2026-07-11T19:04:00.091+07:00,837086640079387568,209246,168742,189735,1345
1783771440109754464,2026-07-11T19:04:00.109+07:00,837086640079387568,209443,168892,189918,1357
1783771440127936282,2026-07-11T19:04:00.127+07:00,837086640079387568,209620,169075,190141,1342
1783771440146118100,2026-07-11T19:04:00.146+07:00,837086640079387568,209788,169244,190337,1297
1783771440164299918,2026-07-11T19:04:00.164+07:00,837086640079387568,209972,169409,190505,1337
1783771440182481736,2026-07-11T19:04:00.182+07:00,837086640079387568,210131,169470,190593,1391
1783771440200663554,2026-07-11T19:04:00.200+07:00,837086640079387568,210178,169546,190659,1342
1783771440218845372,2026-07-11T19:04:00.218+07:00,837086640079387568,210239,169625,190731,1350
1783771440237027190,2026-07-11T19:04:00.237+07:00,837086640079387568,210231,169610,190743,1256
1783771440255209008,2026-07-11T19:04:00.255+07:00,837086640079387568,210360,169707,190842,1297
1783771440273390826,2026-07-11T19:04:00.273+07:00,837086640079387568,210488,169847,191012,1306
1783771440291572644,2026-07-11T19:04:00.291+07:00,837086640079387568,210634,169964,191237,1298
1783771440309754462,2026-07-11T19:04:00.309+07:00,837086640079387568,210817,170121,191419,1310
1783771440327936280,2026-07-11T19:04:00.327+07:00,837086640079387568,210972,170332,191616,1304
1783771440346118098,2026-07-11T19:04:00.346+07:00,837086640079387568,211251,170550,191911,1362
1783771440364299916,2026-07-11T19:04:00.364+07:00,837086640079387568,211496,170734,192074,1307
1783771440382481734,2026-07-11T19:04:00.382+07:00,837086640079387568,211640,170852,192206,1323
1783771440400663552,2026-07-11T19:04:00.400+07:00,837086640079387568,211501,170733,192040,1359
1783771440418845370,2026-07-11T19:04:00.418+07:00,837086640079387568,210991,170213,191368,1359
1783771440437027188,2026-07-11T19:04:00.437+07:00,837086640079387568,210248,169553,190567,1327
1783771440455209006,2026-07-11T19:04:00.455+07:00,837086640079387568,209436,168912,189803,1357
1783771440473390824,2026-07-11T19:04:00.473+07:00,837086640734456440,208727,168280,189077,1376
1783771440491572642,2026-07-11T19:04:00.491+07:00,837086640734456440,208159,167861,188530,1314
1783771440509754460,2026-07-11T19:04:00.509+07:00,837086640734456440,207853,167599,188322,1299
1783771440527936278,2026-07-11T19:04:00.527+07:00,837086640734456440,207706,167512,188125,1316
1783771440546118096,2026-07-11T19:04:00.546+07:00,837086640734456440,207562,167457,188079,1307
1783771440564299914,2026-07-11T19:04:00.564+07:00,837086640734456440,207630,167469,188160,1332
1783771440582481732,2026-07-11T19:04:00.582+07:00,837086640734456440,207745,167556,188299,1326
1783771440600663550,2026-07-11T19:04:00.600+07:00,837086640734456440,207962,167738,188501,1369
1783771440618845368,2026-07-11T19:04:00.618+07:00,837086640734456440,208063,167841,188632,1310
1783771440637027186,2026-07-11T19:04:00.637+07:00,837086640734456440,208247,168051,188817,1313
1783771440655209004,2026-07-11T19:04:00.655+07:00,837086640734456440,208406,168124,188922,1291
1783771440673390822,2026-07-11T19:04:00.673+07:00,837086640734456440,208470,168164,189086,1361
1783771440691572640,2026-07-11T19:04:00.691+07:00,837086640734456440,208514,168204,189133,1394
1783771440709754458,2026-07-11T19:04:00.709+07:00,837086640734456440,208545,168260,189204,1328
1783771440727936276,2026-07-11T19:04:00.727+07:00,837086640734456440,208629,168339,189268,1335
1783771440746118094,2026-07-11T19:04:00.746+07:00,837086640734456440,208716,168442,189404,1330
1783771440764299912,2026-07-11T19:04:00.764+07:00,837086640734456440,208787,168469,189430,1265
1783771440782481730,2026-07-11T19:04:00.782+07:00,837086640734456440,208882,168575,189593,1268
1783771440800663548,2026-07-11T19:04:00.800+07:00,837086640734456440,209075,168750,189770,1330
1783771440818845366,2026-07-11T19:04:00.818+07:00,837086640734456440,209311,168889,190012,1383
1783771440837027184,2026-07-11T19:04:00.837+07:00,837086640734456440,209449,169107,190230,1315
1783771440855209002,2026-07-11T19:04:00.855+07:00,837086640734456440,209744,169315,190492,1317
1783771440873390820,2026-07-11T19:04:00.873+07:00,837086640734456440,209959,169516,190739,1273
1783771440891572638,2026-07-11T19:04:00.891+07:00,837086640734456440,210047,169689,190869,1271
1783771440909754456,2026-07-11T19:04:00.909+07:00,837086640734456440,209855,169492,190569,1299
1783771440927936274,2026-07-11T19:04:00.927+07:00,837086640734456440,209319,169026,189952,1313
1783771440946118092,2026-07-11T19:04:00.946+07:00,837086640734456440,208652,168377,189191,1361
1783771440964299910,2026-07-11T19:04:00.964+07:00,837086640734456440,207887,167795,188535,1326
1783771440982481728,2026-07-11T19:04:00.982+07:00,837086640734456440,207383,167293,187992,1317
1783771441000663546,2026-07-11T19:04:01.000+07:00,837086640734456440,206948,166990,187680,1352
1783771441018845364,2026-07-11T19:04:01.018+07:00,837086640734456440,206720,166842,187449,1328
1783771441037027182,2026-07-11T19:04:01.037+07:00,837086640734456440,206615,166824,187446,1352
1783771441055209000,2026-07-11T19:04:01.055+07:00,837086640734456440,206657,166788,187486,1356
1783771441073390818,2026-07-11T19:04:01.073+07:00,837086640734456440,206750,166873,187580,1379
1783771441091572636,2026-07-11T19:04:01.091+07:00,837086640734456440,207013,167045,187871,1387
1783771441109754454,2026-07-11T19:04:01.109+07:00,837086640734456440,207148,167166,187988,1408
1783771441127936272,2026-07-11T19:04:01.127+07:00,837086641407723195,207284,167374,188176,1321
1783771441146118090,2026-07-11T19:04:01.146+07:00,837086641407723195,207450,167572,188406,1332
1783771441164299908,2026-07-11T19:04:01.164+07:00,837086641407723195,207618,167701,188568,1326
1783771441182481726,2026-07-11T19:04:01.182+07:00,837086641407723195,207721,167815,188699,1353
1783771441200663544,2026-07-11T19:04:01.200+07:00,837086641407723195,207822,167927,188810,1332
1783771441218845362,2026-07-11T19:04:01.218+07:00,837086641407723195,207908,167956,188944,1405
1783771441237027180,2026-07-11T19:04:01.237+07:00,837086641407723195,207981,168017,189021,1289
1783771441255208998,2026-07-11T19:04:01.255+07:00,837086641407723195,208165,168141,189186,1335
1783771441273390816,2026-07-11T19:04:01.273+07:00,837086641407723195,208318,168306,189318,1366
1783771441291572634,2026-07-11T19:04:01.291+07:00,837086641407723195,208377,168438,189447,1334
1783771441309754452,2026-07-11T19:04:01.309+07:00,837086641407723195,208614,168620,189738,1362
1783771441327936270,2026-07-11T19:04:01.327+07:00,837086641407723195,208795,168799,189906,1330
1783771441346118088,2026-07-11T19:04:01.346+07:00,837086641407723195,209042,168970,190207,1310
1783771441364299906,2026-07-11T19:04:01.364+07:00,837086641407723195,209318,169208,190459,1322
1783771441382481724,2026-07-11T19:04:01.382+07:00,837086641407723195,209549,169411,190640,1308
1783771441400663542,2026-07-11T19:04:01.400+07:00,837086641407723195,209644,169520,190674,1344
1783771441418845360,2026-07-11T19:04:01.418+07:00,837086641407723195,209343,169200,190366,1267
1783771441437027178,2026-07-11T19:04:01.437+07:00,837086641407723195,208752,168752,189753,1270
1783771441455208996,2026-07-11T19:04:01.455+07:00,837086641407723195,208092,168220,189106,1327
1783771441473390814,2026-07-11T19:04:01.473+07:00,837086641407723195,207504,167680,188525,1325
1783771441491572632,2026-07-11T19:04:01.491+07:00,837086641407723195,207053,167335,188090,1358
1783771441509754450,2026-07-11T19:04:01.509+07:00,837086641407723195,206851,167097,187964,1396
1783771441527936268,2026-07-11T19:04:01.527+07:00,837086641407723195,206655,167016,187803,1342
1783771441546118086,2026-07-11T19:04:01.546+07:00,837086641407723195,206601,167014,187815,1298
1783771441564299904,2026-07-11T19:04:01.564+07:00,837086641407723195,206680,167096,187960,1305
1783771441582481722,2026-07-11T19:04:01.582+07:00,837086641407723195,206874,167258,188161,1325
1783771441600663540,2026-07-11T19:04:01.600+07:00,837086641407723195,207110,167449,188408,1325
1783771441618845358,2026-07-11T19:04:01.618+07:00,837086641407723195,207235,167612,188648,1319
1783771441637027176,2026-07-11T19:04:01.637+07:00,837086641407723195,207542,167886,188925,1334
1783771441655208994,2026-07-11T19:04:01.655+07:00,837086641407723195,207690,168059,189059,1356
1783771441673390812,2026-07-11T19:04:01.673+07:00,837086641407723195,207865,168117,189208,1305
1783771441691572630,2026-07-11T19:04:01.691+07:00,837086641407723195,207950,168171,189335,1315
1783771441709754448,2026-07-11T19:04:01.709+07:00,837086641407723195,208003,168329,189483,1350
1783771441727936266,2026-07-11T19:04:01.727+07:00,837086641407723195,208147,168402,189605,1356
1783771441746118084,2026-07-11T19:04:01.746+07:00,837086641407723195,208226,168540,189673,1391
1783771441764299902,2026-07-11T19:04:01.764+07:00,837086641407723195,208320,168626,189877,1368
1783771441782481720,2026-07-11T19:04:01.782+07:00,837086641407723195,208486,168780,190000,1336
1783771441800663538,2026-07-11T19:04:01.800+07:00,837086642062821049,208647,168901,190198,1343
1783771441818845356,2026-07-11T19:04:01.818+07:00,837086642062821049,208900,169118,190444,1400
1783771441837027174,2026-07-11T19:04:01.837+07:00,837086642062821049,209142,169256,190617,1351
1783771441855208992,2026-07-11T19:04:01.855+07:00,837086642062821049,209373,169498,190861,1290
1783771441873390810,2026-07-11T19:04:01.873+07:00,837086642062821049,209546,169629,191087,1258
1783771441891572628,2026-07-11T19:04:01.891+07:00,837086642062821049,209632,169703,191127,1285
1783771441909754446,2026-07-11T19:04:01.909+07:00,837086642062821049,209406,169504,190835,1304
1783771441927936264,2026-07-11T19:04:01.927+07:00,837086642062821049,208884,169140,190386,1331
1783771441946118082,2026-07-11T19:04:01.946+07:00,837086642062821049,208283,168640,189851,1333
1783771441964299900,2026-07-11T19:04:01.964+07:00,837086642062821049,207827,168215,189388,1351
1783771441982481718,2026-07-11T19:04:01.982+07:00,837086642062821049,207435,167890,189035,1354
1783771442000663536,2026-07-11T19:04:02.000+07:00,837086642062821049,207207,167790,188891,1341
1783771442018845354,2026-07-11T19:04:02.018+07:00,837086642062821049,207050,167656,188833,1341
1783771442037027172,2026-07-11T19:04:02.037+07:00,837086642062821049,207107,167736,188905,1362
1783771442055208990,2026-07-11T19:04:02.055+07:00,837086642062821049,207236,167819,189037,1380
1783771442073390808,2026-07-11T19:04:02.073+07:00,837086642062821049,207395,167975,189251,1394
1783771442091572626,2026-07-11T19:04:02.091+07:00,837086642062821049,207655,168153,189457,1309
1783771442109754444,2026-07-11T19:04:02.109+07:00,837086642062821049,207913,168374,189744,1377
1783771442127936262,2026-07-11T19:04:02.127+07:00,837086642062821049,208018,168450,189855,1311
1783771442146118080,2026-07-11T19:04:02.146+07:00,837086642062821049,208259,168736,190129,1287
1783771442164299898,2026-07-11T19:04:02.164+07:00,837086642062821049,208419,168830,190274,1281
1783771442182481716,2026-07-11T19:04:02.182+07:00,837086642062821049,208573,169011,190372,1355
1783771442200663534,2026-07-11T19:04:02.200+07:00,837086642062821049,208596,168969,190410,1349
1783771442218845352,2026-07-11T19:04:02.218+07:00,837086642062821049,208700,169051,190550,1319
1783771442237027170,2026-07-11T19:04:02.237+07:00,837086642062821049,208857,169204,190764,1374
1783771442255208988,2026-07-11T19:04:02.255+07:00,837086642062821049,208927,169265,190793,1298
1783771442273390806,2026-07-11T19:04:02.273+07:00,837086642062821049,209156,169508,191021,1239
1783771442291572624,2026-07-11T19:04:02.291+07:00,837086642062821049,209288,169678,191270,1311
1783771442309754442,2026-07-11T19:04:02.309+07:00,837086642062821049,209478,169836,191438,1289
1783771442327936260,2026-07-11T19:04:02.327+07:00,837086642062821049,209730,170035,191720,1263
1783771442346118078,2026-07-11T19:04:02.346+07:00,837086642062821049,209946,170157,191941,1249
1783771442364299896,2026-07-11T19:04:02.364+07:00,837086642062821049,210258,170422,192216,1270
1783771442382481714,2026-07-11T19:04:02.382+07:00,837086642062821049,210488,170633,192407,1276
1783771442400663532,2026-07-11T19:04:02.400+07:00,837086642062821049,210427,170583,192354,1248
1783771442418845350,2026-07-11T19:04:02.418+07:00,837086642062821049,210146,170308,192010,1305
1783771442437027168,2026-07-11T19:04:02.437+07:00,837086642062821049,209620,169863,191515,1330
1783771442455208986,2026-07-11T19:04:02.455+07:00,837086642754282635,208996,169375,190912,1254
1783771442473390804,2026-07-11T19:04:02.473+07:00,837086642754282635,208562,169025,190555,1303
1783771442491572622,2026-07-11T19:04:02.491+07:00,837086642754282635,208228,168774,190305,1292
1783771442509754440,2026-07-11T19:04:02.509+07:00,837086642754282635,208022,168594,190119,1285
1783771442527936258,2026-07-11T19:04:02.527+07:00,837086642754282635,207952,168549,190105,1256
1783771442546118076,2026-07-11T19:04:02.546+07:00,837086642754282635,208084,168595,190226,1322
1783771442564299894,2026-07-11T19:04:02.564+07:00,837086642754282635,208140,168699,190333,1259
1783771442582481712,2026-07-11T19:04:02.582+07:00,837086642754282635,208346,168906,190564,1252
1783771442600663530,2026-07-11T19:04:02.600+07:00,837086642754282635,208541,169101,190804,1243
1783771442618845348,2026-07-11T19:04:02.618+07:00,837086642754282635,208798,169257,191033,1317
1783771442637027166,2026-07-11T19:04:02.637+07:00,837086642754282635,208962,169460,191216,1320
1783771442655208984,2026-07-11T19:04:02.655+07:00,837086642754282635,209129,169649,191443,1291
1783771442673390802,2026-07-11T19:04:02.673+07:00,837086642754282635,209302,169826,191544,1320
1783771442691572620,2026-07-11T19:04:02.691+07:00,837086642754282635,209431,169828,191694,1321
1783771442709754438,2026-07-11T19:04:02.709+07:00,837086642754282635,209467,169914,191704,1296
1783771442727936256,2026-07-11T19:04:02.727+07:00,837086642754282635,209630,170089,191888,1350
1783771442746118074,2026-07-11T19:04:02.746+07:00,837086642754282635,209734,170124,191963,1308
1783771442764299892,2026-07-11T19:04:02.764+07:00,837086642754282635,209877,170271,192095,1253
1783771442782481710,2026-07-11T19:04:02.782+07:00,837086642754282635,210064,170421,192307,1366
1783771442800663528,2026-07-11T19:04:02.800+07:00,837086642754282635,210217,170534,192398,1258
1783771442818845346,2026-07-11T19:04:02.818+07:00,837086642754282635,210400,170679,192602,1354
1783771442837027164,2026-07-11T19:04:02.837+07:00,837086642754282635,210649,170886,192853,1376
1783771442855208982,2026-07-11T19:04:02.855+07:00,837086642754282635,210856,171057,193110,1337
1783771442873390800,2026-07-11T19:04:02.873+07:00,837086642754282635,211091,171264,193404,1378
1783771442891572618,2026-07-11T19:04:02.891+07:00,837086642754282635,211338,171458,193535,1331
1783771442909754436,2026-07-11T19:04:02.909+07:00,837086642754282635,211225,171367,193401,1306
1783771442927936254,2026-07-11T19:04:02.927+07:00,837086642754282635,210919,171089,193060,1325
1783771442946118072,2026-07-11T19:04:02.946+07:00,837086642754282635,210383,170604,192602,1342
1783771442964299890,2026-07-11T19:04:02.964+07:00,837086642754282635,209808,170153,192110,1348
1783771442982481708,2026-07-11T19:04:02.982+07:00,837086642754282635,209386,169670,191666,1297
1783771443000663526,2026-07-11T19:04:03.000+07:00,837086642754282635,208944,169416,191335,1279
1783771443018845344,2026-07-11T19:04:03.018+07:00,837086642754282635,208820,169242,191241,1306
1783771443037027162,2026-07-11T19:04:03.037+07:00,837086642754282635,208766,169192,191202,1319
1783771443055208980,2026-07-11T19:04:03.055+07:00,837086642754282635,208838,169271,191265,1292
1783771443073390798,2026-07-11T19:04:03.073+07:00,837086642754282635,208959,169383,191377,1290
1783771443091572616,2026-07-11T19:04:03.091+07:00,837086642754282635,209030,169436,191522,1281
1783771443109754434,2026-07-11T19:04:03.109+07:00,837086642754282635,209254,169690,191710,1320
1783771443127936252,2026-07-11T19:04:03.127+07:00,837086642754282635,209530,169894,191971,1321
1783771443146118070,2026-07-11T19:04:03.146+07:00,837086643463971096,209710,170013,192142,1279
1783771443164299888,2026-07-11T19:04:03.164+07:00,837086643463971096,209915,170217,192394,1307
1783771443182481706,2026-07-11T19:04:03.182+07:00,837086643463971096,210017,170313,192439,1290
1783771443200663524,2026-07-11T19:04:03.200+07:00,837086643463971096,210048,170391,192552,1265
1783771443218845342,2026-07-11T19:04:03.218+07:00,837086643463971096,210189,170505,192704,1292
1783771443237027160,2026-07-11T19:04:03.237+07:00,837086643463971096,210273,170544,192738,1276
1783771443255208978,2026-07-11T19:04:03.255+07:00,837086643463971096,210367,170574,192847,1267
1783771443273390796,2026-07-11T19:04:03.273+07:00,837086643463971096,210539,170704,192984,1335
1783771443291572614,2026-07-11T19:04:03.291+07:00,837086643463971096,210676,170878,193176,1299
1783771443309754432,2026-07-11T19:04:03.309+07:00,837086643463971096,210862,171031,193287,1322
1783771443327936250,2026-07-11T19:04:03.327+07:00,837086643463971096,210995,171217,193513,1294
1783771443346118068,2026-07-11T19:04:03.346+07:00,837086643463971096,211235,171398,193699,1338
1783771443364299886,2026-07-11T19:04:03.364+07:00,837086643463971096,211517,171597,193938,1365
1783771443382481704,2026-07-11T19:04:03.382+07:00,837086643463971096,211712,171764,194160,1320
1783771443400663522,2026-07-11T19:04:03.400+07:00,837086643463971096,212031,172046,194447,1324
1783771443418845340,2026-07-11T19:04:03.418+07:00,837086643463971096,212086,172129,194550,1275
1783771443437027158,2026-07-11T19:04:03.437+07:00,837086643463971096,212019,172077,194489,1359
1783771443455208976,2026-07-11T19:04:03.455+07:00,837086643463971096,211629,171690,194066,1314
1783771443473390794,2026-07-11T19:04:03.473+07:00,837086643463971096,211071,171141,193522,1332
1783771443491572612,2026-07-11T19:04:03.491+07:00,837086643463971096,210529,170661,192936,1315
1783771443509754430,2026-07-11T19:04:03.509+07:00,837086643463971096,210026,170267,192506,1327
1783771443527936248,2026-07-11T19:04:03.527+07:00,837086643463971096,209696,169938,192255,1276
1783771443546118066,2026-07-11T19:04:03.546+07:00,837086643463971096,209504,169849,192107,1292
1783771443564299884,2026-07-11T19:04:03.564+07:00,837086643463971096,209455,169843,192068,1299
1783771443582481702,2026-07-11T19:04:03.582+07:00,837086643463971096,209553,169881,192142,1263
1783771443600663520,2026-07-11T19:04:03.600+07:00,837086643463971096,209693,170072,192355,1216
1783771443618845338,2026-07-11T19:04:03.618+07:00,837086643463971096,209839,170223,192546,1294
1783771443637027156,2026-07-11T19:04:03.637+07:00,837086643463971096,210042,170358,192711,1267
1783771443655208974,2026-07-11T19:04:03.655+07:00,837086643463971096,210303,170674,193032,1303
1783771443673390792,2026-07-11T19:04:03.673+07:00,837086643463971096,210525,170774,193199,1309
1783771443691572610,2026-07-11T19:04:03.691+07:00,837086643463971096,210752,170989,193405,1331
1783771443709754428,2026-07-11T19:04:03.709+07:00,837086643463971096,210780,170997,193451,1243
1783771443727936246,2026-07-11T19:04:03.727+07:00,837086643463971096,210913,171138,193580,1293
1783771443746118064,2026-07-11T19:04:03.746+07:00,837086643463971096,210977,171185,193640,1297
1783771443764299882,2026-07-11T19:04:03.764+07:00,837086643463971096,211152,171308,193759,1326
1783771443782481700,2026-07-11T19:04:03.782+07:00,837086643463971096,211262,171400,193839,1305
1783771443800663518,2026-07-11T19:04:03.800+07:00,837086643463971096,211310,171454,193959,1289
1783771443818845336,2026-07-11T19:04:03.818+07:00,837086643463971096,211495,171639,194083,1309
1783771443837027154,2026-07-11T19:04:03.837+07:00,837086643463971096,211679,171796,194298,1315
1783771443855208972,2026-07-11T19:04:03.855+07:00,837086644119070486,211872,171945,194490,1308
1783771443873390790,2026-07-11T19:04:03.873+07:00,837086644119070486,212019,172117,194667,1306
1783771443891572608,2026-07-11T19:04:03.891+07:00,837086644119070486,212299,172362,194932,1302
1783771443909754426,2026-07-11T19:04:03.909+07:00,837086644119070486,212561,172510,195097,1283
1783771443927936244,2026-07-11T19:04:03.927+07:00,837086644119070486,212766,172761,195345,1308
1783771443946118062,2026-07-11T19:04:03.946+07:00,837086644119070486,213119,173011,195635,1340
1783771443964299880,2026-07-11T19:04:03.964+07:00,837086644119070486,213292,173150,195865,1326
1783771443982481698,2026-07-11T19:04:03.982+07:00,837086644119070486,213252,173113,195772,1271
1783771444000663516,2026-07-11T19:04:04.000+07:00,837086644119070486,212885,172772,195346,1318
1783771444018845334,2026-07-11T19:04:04.018+07:00,837086644119070486,212274,172232,194758,1324
1783771444037027152,2026-07-11T19:04:04.037+07:00,837086644119070486,211630,171657,194111,1260
1783771444055208970,2026-07-11T19:04:04.055+07:00,837086644119070486,211138,171182,193603,1316
1783771444073390788,2026-07-11T19:04:04.073+07:00,837086644119070486,210710,170860,193228,1298
1783771444091572606,2026-07-11T19:04:04.091+07:00,837086644119070486,210531,170614,193105,1280
1783771444109754424,2026-07-11T19:04:04.109+07:00,837086644119070486,210406,170593,192934,1280
1783771444127936242,2026-07-11T19:04:04.127+07:00,837086644119070486,210393,170583,192974,1243
1783771444146118060,2026-07-11T19:04:04.146+07:00,837086644119070486,210518,170701,193124,1322
1783771444164299878,2026-07-11T19:04:04.164+07:00,837086644119070486,210736,170915,193261,1351
1783771444182481696,2026-07-11T19:04:04.182+07:00,837086644119070486,210956,171099,193513,1367
1783771444200663514,2026-07-11T19:04:04.200+07:00,837086644119070486,211158,171263,193680,1270
1783771444218845332,2026-07-11T19:04:04.218+07:00,837086644119070486,211324,171456,193838,1317
1783771444237027150,2026-07-11T19:04:04.237+07:00,837086644119070486,211477,171574,193994,1299
1783771444255208968,2026-07-11T19:04:04.255+07:00,837086644119070486,211618,171742,194174,1296
1783771444273390786,2026-07-11T19:04:04.273+07:00,837086644119070486,211683,171753,194203,1310
1783771444291572604,2026-07-11T19:04:04.291+07:00,837086644119070486,211762,171838,194285,1335
1783771444309754422,2026-07-11T19:04:04.309+07:00,837086644119070486,211780,171830,194260,1285
1783771444327936240,2026-07-11T19:04:04.327+07:00,837086644119070486,211911,171912,194450,1301
1783771444346118058,2026-07-11T19:04:04.346+07:00,837086644119070486,212010,171972,194521,1293
1783771444364299876,2026-07-11T19:04:04.364+07:00,837086644119070486,212168,172122,194626,1316
1783771444382481694,2026-07-11T19:04:04.382+07:00,837086644119070486,212285,172300,194745,1313
1783771444400663512,2026-07-11T19:04:04.400+07:00,837086644119070486,212494,172442,195021,1272
1783771444418845330,2026-07-11T19:04:04.418+07:00,837086644119070486,212721,172651,195135,1313
1783771444437027148,2026-07-11T19:04:04.437+07:00,837086644119070486,212898,172766,195394,1308
1783771444455208966,2026-07-11T19:04:04.455+07:00,837086644119070486,213067,172916,195580,1301
1783771444473390784,2026-07-11T19:04:04.473+07:00,837086644119070486,213342,173176,195785,1324
1783771444491572602,2026-07-11T19:04:04.491+07:00,837086644119070486,213557,173368,196007,1322
1783771444509754420,2026-07-11T19:04:04.509+07:00,837086644792335715,213825,173628,196213,1317
1783771444527936238,2026-07-11T19:04:04.527+07:00,837086644792335715,213927,173700,196332,1335
1783771444546118056,2026-07-11T19:04:04.546+07:00,837086644792335715,213763,173472,196122,1353
1783771444564299874,2026-07-11T19:04:04.564+07:00,837086644792335715,213260,173000,195531,1379
1783771444582481692,2026-07-11T19:04:04.582+07:00,837086644792335715,212497,172429,194789,1321
1783771444600663510,2026-07-11T19:04:04.600+07:00,837086644792335715,211870,171817,194172,1318
1783771444618845328,2026-07-11T19:04:04.618+07:00,837086644792335715,211347,171364,193584,1344
1783771444637027146,2026-07-11T19:04:04.637+07:00,837086644792335715,210922,171063,193252,1326
1783771444655208964,2026-07-11T19:04:04.655+07:00,837086644792335715,210752,170857,193087,1322
1783771444673390782,2026-07-11T19:04:04.673+07:00,837086644792335715,210683,170831,192995,1322
1783771444691572600,2026-07-11T19:04:04.691+07:00,837086644792335715,210747,170823,193070,1358
1783771444709754418,2026-07-11T19:04:04.709+07:00,837086644792335715,210775,170937,193145,1313
1783771444727936236,2026-07-11T19:04:04.727+07:00,837086644792335715,210995,171062,193359,1320
1783771444746118054,2026-07-11T19:04:04.746+07:00,837086644792335715,211170,171279,193494,1296
1783771444764299872,2026-07-11T19:04:04.764+07:00,837086644792335715,211360,171455,193711,1251
1783771444782481690,2026-07-11T19:04:04.782+07:00,837086644792335715,211509,171523,193812,1288
1783771444800663508,2026-07-11T19:04:04.800+07:00,837086644792335715,211664,171653,193884,1286
1783771444818845326,2026-07-11T19:04:04.818+07:00,837086644792335715,211772,171739,194041,1300
1783771444837027144,2026-07-11T19:04:04.837+07:00,837086644792335715,211862,171745,194037,1306
1783771444855208962,2026-07-11T19:04:04.855+07:00,837086644792335715,211862,171749,194068,1334
1783771444873390780,2026-07-11T19:04:04.873+07:00,837086644792335715,211873,171799,194112,1314
1783771444891572598,2026-07-11T19:04:04.891+07:00,837086644792335715,211878,171825,194116,1282
1783771444909754416,2026-07-11T19:04:04.909+07:00,837086644792335715,212031,171993,194254,1310
1783771444927936234,2026-07-11T19:04:04.927+07:00,837086644792335715,212143,172102,194378,1293
1783771444946118052,2026-07-11T19:04:04.946+07:00,837086644792335715,212381,172273,194543,1344
1783771444964299870,2026-07-11T19:04:04.964+07:00,837086644792335715,212509,172367,194747,1317
1783771444982481688,2026-07-11T19:04:04.982+07:00,837086644792335715,212660,172485,194881,1291
1783771445000663506,2026-07-11T19:04:05.000+07:00,837086644792335715,212851,172661,195127,1304
1783771445018845324,2026-07-11T19:04:05.018+07:00,837086644792335715,213080,172873,195322,1265
1783771445037027142,2026-07-11T19:04:05.037+07:00,837086644792335715,213311,173070,195541,1305
1783771445055208960,2026-07-11T19:04:05.055+07:00,837086644792335715,213629,173341,195783,1344
1783771445073390778,2026-07-11T19:04:05.073+07:00,837086644792335715,213811,173509,196004,1348
1783771445091572596,2026-07-11T19:04:05.091+07:00,837086644792335715,213892,173545,195991,1314
1783771445109754414,2026-07-11T19:04:05.109+07:00,837086644792335715,213701,173365,195719,1332
1783771445127936232,2026-07-11T19:04:05.127+07:00,837086644792335715,213169,172847,195148,1339
1783771445146118050,2026-07-11T19:04:05.146+07:00,837086644792335715,212429,172218,194391,1355
1783771445164299868,2026-07-11T19:04:05.164+07:00,837086644792335715,211713,171638,193673,1375
1783771445182481686,2026-07-11T19:04:05.182+07:00,837086645501993658,211120,171149,193079,1340
1783771445200663504,2026-07-11T19:04:05.200+07:00,837086645501993658,210770,170782,192689,1341
1783771445218845322,2026-07-11T19:04:05.218+07:00,837086645501993658,210517,170598,192509,1330
1783771445237027140,2026-07-11T19:04:05.237+07:00,837086645501993658,210469,170502,192390,1322
1783771445255208958,2026-07-11T19:04:05.255+07:00,837086645501993658,210513,170518,192437,1340
1783771445273390776,2026-07-11T19:04:05.273+07:00,837086645501993658,210625,170673,192576,1332
1783771445291572594,2026-07-11T19:04:05.291+07:00,837086645501993658,210745,170810,192722,1333
1783771445309754412,2026-07-11T19:04:05.309+07:00,837086645501993658,210853,170953,192894,1296
1783771445327936230,2026-07-11T19:04:05.327+07:00,837086645501993658,211107,171127,193093,1293
1783771445346118048,2026-07-11T19:04:05.346+07:00,837086645501993658,211306,171240,193295,1344
1783771445364299866,2026-07-11T19:04:05.364+07:00,837086645501993658,211444,171402,193409,1367
1783771445382481684,2026-07-11T19:04:05.382+07:00,837086645501993658,211487,171512,193407,1323
1783771445400663502,2026-07-11T19:04:05.400+07:00,837086645501993658,211589,171556,193472,1320
1783771445418845320,2026-07-11T19:04:05.418+07:00,837086645501993658,211605,171549,193484,1357
1783771445437027138,2026-07-11T19:04:05.437+07:00,837086645501993658,211640,171526,193474,1264
1783771445455208956,2026-07-11T19:04:05.455+07:00,837086645501993658,211692,171608,193545,1290
1783771445473390774,2026-07-11T19:04:05.473+07:00,837086645501993658,211733,171706,193626,1272
1783771445491572592,2026-07-11T19:04:05.491+07:00,837086645501993658,211871,171825,193696,1251
1783771445509754410,2026-07-11T19:04:05.509+07:00,837086645501993658,212059,171952,193877,1268
1783771445527936228,2026-07-11T19:04:05.527+07:00,837086645501993658,212248,172044,194087,1330
1783771445546118046,2026-07-11T19:04:05.546+07:00,837086645501993658,212412,172209,194254,1284
1783771445564299864,2026-07-11T19:04:05.564+07:00,837086645501993658,212583,172433,194455,1242
1783771445582481682,2026-07-11T19:04:05.582+07:00,837086645501993658,212780,172610,194728,1277
1783771445600663500,2026-07-11T19:04:05.600+07:00,837086645501993658,213020,172780,194919,1311
1783771445618845318,2026-07-11T19:04:05.618+07:00,837086645501993658,213293,173026,195147,1296
1783771445637027136,2026-07-11T19:04:05.637+07:00,837086645501993658,213568,173256,195412,1317
1783771445655208954,2026-07-11T19:04:05.655+07:00,837086645501993658,213550,173235,195406,1331
1783771445673390772,2026-07-11T19:04:05.673+07:00,837086645501993658,213385,173005,195158,1325
1783771445691572590,2026-07-11T19:04:05.691+07:00,837086645501993658,212842,172546,194493,1317
1783771445709754408,2026-07-11T19:04:05.709+07:00,837086645501993658,212056,171879,193636,1290
1783771445727936226,2026-07-11T19:04:05.727+07:00,837086645501993658,211365,171220,192906,1250
1783771445746118044,2026-07-11T19:04:05.746+07:00,837086645501993658,210702,170649,192307,1255
1783771445764299862,2026-07-11T19:04:05.764+07:00,837086645501993658,210361,170375,191941,1281
1783771445782481680,2026-07-11T19:04:05.782+07:00,837086645501993658,210179,170178,191649,1333
1783771445800663498,2026-07-11T19:04:05.800+07:00,837086645501993658,210062,170110,191611,1236
1783771445818845316,2026-07-11T19:04:05.818+07:00,837086645501993658,210125,170162,191684,1252
1783771445837027134,2026-07-11T19:04:05.837+07:00,837086645501993658,210245,170267,191801,1354
1783771445855208952,2026-07-11T19:04:05.855+07:00,837086645501993658,210392,170457,191943,1320
1783771445873390770,2026-07-11T19:04:05.873+07:00,837086645501993658,210582,170595,192206,1286
1783771445891572588,2026-07-11T19:04:05.891+07:00,837086646175258887,210800,170829,192419,1300
1783771445909754406,2026-07-11T19:04:05.909+07:00,837086646175258887,210960,170926,192562,1290
1783771445927936224,2026-07-11T19:04:05.927+07:00,837086646175258887,211060,171069,192703,1314
1783771445946118042,2026-07-11T19:04:05.946+07:00,837086646175258887,211112,171167,192734,1338
1783771445964299860,2026-07-11T19:04:05.964+07:00,837086646175258887,211180,171083,192770,1273
1783771445982481678,2026-07-11T19:04:05.982+07:00,837086646175258887,211206,171147,192815,1284
1783771446000663496,2026-07-11T19:04:06.000+07:00,837086646175258887,211261,171222,192908,1328
1783771446018845314,2026-07-11T19:04:06.018+07:00,837086646175258887,211330,171291,192916,1335
1783771446037027132,2026-07-11T19:04:06.037+07:00,837086646175258887,211441,171381,192994,1288
1783771446055208950,2026-07-11T19:04:06.055+07:00,837086646175258887,211527,171532,193184,1352
1783771446073390768,2026-07-11T19:04:06.073+07:00,837086646175258887,211689,171622,193292,1310
1783771446091572586,2026-07-11T19:04:06.091+07:00,837086646175258887,211875,171799,193490,1285
1783771446109754404,2026-07-11T19:04:06.109+07:00,837086646175258887,212032,171885,193659,1326
1783771446127936222,2026-07-11T19:04:06.127+07:00,837086646175258887,212250,172110,193873,1311
1783771446146118040,2026-07-11T19:04:06.146+07:00,837086646175258887,212367,172247,193972,1313
1783771446164299858,2026-07-11T19:04:06.164+07:00,837086646175258887,212646,172496,194251,1297
1783771446182481676,2026-07-11T19:04:06.182+07:00,837086646175258887,212845,172625,194450,1286
1783771446200663494,2026-07-11T19:04:06.200+07:00,837086646175258887,213110,172815,194676,1354
1783771446218845312,2026-07-11T19:04:06.218+07:00,837086646175258887,213060,172782,194636,1268
1783771446237027130,2026-07-11T19:04:06.237+07:00,837086646175258887,212796,172461,194292,1302
1783771446255208948,2026-07-11T19:04:06.255+07:00,837086646175258887,212139,171872,193522,1294
1783771446273390766,2026-07-11T19:04:06.273+07:00,837086646175258887,211336,171155,192689,1313
1783771446291572584,2026-07-11T19:04:06.291+07:00,837086646175258887,210605,170530,191902,1307
1783771446309754402,2026-07-11T19:04:06.309+07:00,837086646175258887,209989,169963,191257,1324
1783771446327936220,2026-07-11T19:04:06.327+07:00,837086646175258887,209544,169523,190815,1369
1783771446346118038,2026-07-11T19:04:06.346+07:00,837086646175258887,209234,169244,190486,1337
1783771446364299856,2026-07-11T19:04:06.364+07:00,837086646175258887,209067,169086,190307,1332
1783771446382481674,2026-07-11T19:04:06.382+07:00,837086646175258887,208934,168962,190163,1350
1783771446400663492,2026-07-11T19:04:06.400+07:00,837086646175258887,208837,168983,190076,1302
1783771446418845310,2026-07-11T19:04:06.418+07:00,837086646175258887,208803,168902,190104,1303
1783771446437027128,2026-07-11T19:04:06.437+07:00,837086646175258887,208838,168858,190154,1300
1783771446455208946,2026-07-11T19:04:06.455+07:00,837086646175258887,208857,168904,190159,1341
1783771446473390764,2026-07-11T19:04:06.473+07:00,837086646175258887,208870,168972,190129,1282
1783771446491572582,2026-07-11T19:04:06.491+07:00,837086646175258887,208894,168981,190096,1328
1783771446509754400,2026-07-11T19:04:06.509+07:00,837086646175258887,208825,168975,190100,1327
1783771446527936218,2026-07-11T19:04:06.527+07:00,837086646175258887,208771,168950,190065,1355
1783771446546118036,2026-07-11T19:04:06.546+07:00,837086646175258887,208740,168935,190013,1275
1783771446564299854,2026-07-11T19:04:06.564+07:00,837086646848524116,208780,168909,190036,1338
1783771446582481672,2026-07-11T19:04:06.582+07:00,837086646848524116,208750,168915,190114,1331
1783771446600663490,2026-07-11T19:04:06.600+07:00,837086646848524116,208802,168961,190158,1302
1783771446618845308,2026-07-11T19:04:06.618+07:00,837086646848524116,208925,168987,190196,1247
1783771446637027126,2026-07-11T19:04:06.637+07:00,837086646848524116,209147,169180,190413,1330
1783771446655208944,2026-07-11T19:04:06.655+07:00,837086646848524116,209336,169345,190573,1304
1783771446673390762,2026-07-11T19:04:06.673+07:00,837086646848524116,209483,169394,190777,1328
1783771446691572580,2026-07-11T19:04:06.691+07:00,837086646848524116,209753,169611,190949,1387
1783771446709754398,2026-07-11T19:04:06.709+07:00,837086646848524116,209926,169769,191193,1334
1783771446727936216,2026-07-11T19:04:06.727+07:00,837086646848524116,210102,170015,191445,1352
1783771446746118034,2026-07-11T19:04:06.746+07:00,837086646848524116,210358,170202,191693,1306
1783771446764299852,2026-07-11T19:04:06.764+07:00,837086646848524116,210521,170411,191800,1366
1783771446782481670,2026-07-11T19:04:06.782+07:00,837086646848524116,210469,170353,191702,1324
1783771446800663488,2026-07-11T19:04:06.800+07:00,837086646848524116,210109,169974,191267,1308
1783771446818845306,2026-07-11T19:04:06.818+07:00,837086646848524116,209516,169482,190657,1276
1783771446837027124,2026-07-11T19:04:06.837+07:00,837086646848524116,208913,169033,189973,1324
1783771446855208942,2026-07-11T19:04:06.855+07:00,837086646848524116,208361,168552,189441,1308
1783771446873390760,2026-07-11T19:04:06.873+07:00,837086646848524116,207957,168168,189097,1342
1783771446891572578,2026-07-11T19:04:06.891+07:00,837086646848524116,207733,168036,188867,1323
1783771446909754396,2026-07-11T19:04:06.909+07:00,837086646848524116,207670,167974,188792,1293
1783771446927936214,2026-07-11T19:04:06.927+07:00,837086646848524116,207714,168048,188898,1344
1783771446946118032,2026-07-11T19:04:06.946+07:00,837086646848524116,207900,168224,189127,1333
1783771446964299850,2026-07-11T19:04:06.964+07:00,837086646848524116,208152,168521,189359,1327
1783771446982481668,2026-07-11T19:04:06.982+07:00,837086646848524116,208326,168686,189646,1286
1783771447000663486,2026-07-11T19:04:07.000+07:00,837086646848524116,208658,168959,189965,1294
1783771447018845304,2026-07-11T19:04:07.018+07:00,837086646848524116,208937,169240,190354,1294
1783771447037027122,2026-07-11T19:04:07.037+07:00,837086646848524116,209171,169505,190613,1292
1783771447055208940,2026-07-11T19:04:07.055+07:00,837086646848524116,209467,169724,190898,1299
1783771447073390758,2026-07-11T19:04:07.073+07:00,837086646848524116,209596,169910,191083,1286
1783771447091572576,2026-07-11T19:04:07.091+07:00,837086646848524116,209764,170058,191234,1284
1783771447109754394,2026-07-11T19:04:07.109+07:00,837086646848524116,209974,170227,191397,1269
1783771447127936212,2026-07-11T19:04:07.127+07:00,837086646848524116,210126,170405,191633,1252
1783771447146118030,2026-07-11T19:04:07.146+07:00,837086646848524116,210318,170599,191844,1297
1783771447164299848,2026-07-11T19:04:07.164+07:00,837086646848524116,210534,170761,192041,1266
1783771447182481666,2026-07-11T19:04:07.182+07:00,837086646848524116,210777,170933,192367,1311
1783771447200663484,2026-07-11T19:04:07.200+07:00,837086646848524116,210992,171163,192641,1319
1783771447218845302,2026-07-11T19:04:07.218+07:00,837086646848524116,211286,171396,192868,1299
1783771447237027120,2026-07-11T19:04:07.237+07:00,837086647503592978,211562,171741,193226,1323
1783771447255208938,2026-07-11T19:04:07.255+07:00,837086647503592978,211884,171979,193568,1316
1783771447273390756,2026-07-11T19:04:07.273+07:00,837086647503592978,212157,172234,193864,1374
1783771447291572574,2026-07-11T19:04:07.291+07:00,837086647503592978,212452,172480,194152,1338
1783771447309754392,2026-07-11T19:04:07.309+07:00,837086647503592978,212626,172596,194261,1345
1783771447327936210,2026-07-11T19:04:07.327+07:00,837086647503592978,212463,172462,194009,1303
1783771447346118028,2026-07-11T19:04:07.346+07:00,837086647503592978,211922,172069,193525,1343
1783771447364299846,2026-07-11T19:04:07.364+07:00,837086647503592978,211307,171456,192808,1355
1783771447382481664,2026-07-11T19:04:07.382+07:00,837086647503592978,210681,170861,192048,1298
1783771447400663482,2026-07-11T19:04:07.400+07:00,837086647503592978,210135,170414,191570,1337
1783771447418845300,2026-07-11T19:04:07.418+07:00,837086647503592978,209807,170127,191254,1337
1783771447437027118,2026-07-11T19:04:07.437+07:00,837086647503592978,209634,169944,191074,1318
1783771447455208936,2026-07-11T19:04:07.455+07:00,837086647503592978,209564,169869,190985,1335
1783771447473390754,2026-07-11T19:04:07.473+07:00,837086647503592978,209576,169879,191042,1268
1783771447491572572,2026-07-11T19:04:07.491+07:00,837086647503592978,209776,170056,191182,1332
1783771447509754390,2026-07-11T19:04:07.509+07:00,837086647503592978,209880,170189,191352,1286
1783771447527936208,2026-07-11T19:04:07.527+07:00,837086647503592978,210156,170372,191614,1339
1783771447546118026,2026-07-11T19:04:07.546+07:00,837086647503592978,210318,170548,191842,1321
1783771447564299844,2026-07-11T19:04:07.564+07:00,837086647503592978,210535,170758,192038,1351
1783771447582481662,2026-07-11T19:04:07.582+07:00,837086647503592978,210771,170893,192182,1382
1783771447600663480,2026-07-11T19:04:07.600+07:00,837086647503592978,210793,170960,192288,1319
1783771447618845298,2026-07-11T19:04:07.618+07:00,837086647503592978,210904,171021,192403,1273
1783771447637027116,2026-07-11T19:04:07.637+07:00,837086647503592978,210961,171127,192501,1301
1783771447655208934,2026-07-11T19:04:07.655+07:00,837086647503592978,210978,171105,192489,1302
1783771447673390752,2026-07-11T19:04:07.673+07:00,837086647503592978,211125,171191,192609,1366
1783771447691572570,2026-07-11T19:04:07.691+07:00,837086647503592978,211222,171296,192718,1341
1783771447709754388,2026-07-11T19:04:07.709+07:00,837086647503592978,211343,171407,192888,1331
1783771447727936206,2026-07-11T19:04:07.727+07:00,837086647503592978,211545,171542,193116,1341
1783771447746118024,2026-07-11T19:04:07.746+07:00,837086647503592978,211776,171740,193299,1370
1783771447764299842,2026-07-11T19:04:07.764+07:00,837086647503592978,211988,171910,193532,1342
1783771447782481660,2026-07-11T19:04:07.782+07:00,837086647503592978,212196,172079,193780,1302
1783771447800663478,2026-07-11T19:04:07.800+07:00,837086647503592978,212376,172272,194002,1353
1783771447818845296,2026-07-11T19:04:07.818+07:00,837086647503592978,212684,172574,194310,1310
1783771447837027114,2026-07-11T19:04:07.837+07:00,837086647503592978,212878,172826,194614,1315
1783771447855208932,2026-07-11T19:04:07.855+07:00,837086647503592978,213029,172897,194646,1292
1783771447873390750,2026-07-11T19:04:07.873+07:00,837086647503592978,212846,172695,194371,1305
1783771447891572568,2026-07-11T19:04:07.891+07:00,837086648176989437,212281,172214,193772,1306
1783771447909754386,2026-07-11T19:04:07.909+07:00,837086648176989437,211560,171581,193064,1348
1783771447927936204,2026-07-11T19:04:07.927+07:00,837086648176989437,210847,170945,192339,1293
1783771447946118022,2026-07-11T19:04:07.946+07:00,837086648176989437,210322,170488,191786,1283
1783771447964299840,2026-07-11T19:04:07.964+07:00,837086648176989437,209982,170151,191414,1271
1783771447982481658,2026-07-11T19:04:07.982+07:00,837086648176989437,209830,169936,191268,1291
1783771448000663476,2026-07-11T19:04:08.000+07:00,837086648176989437,209672,169914,191207,1299
1783771448018845294,2026-07-11T19:04:08.018+07:00,837086648176989437,209685,169946,191250,1340
1783771448037027112,2026-07-11T19:04:08.037+07:00,837086648176989437,209788,170087,191404,1356
1783771448055208930,2026-07-11T19:04:08.055+07:00,837086648176989437,209962,170189,191579,1334
1783771448073390748,2026-07-11T19:04:08.073+07:00,837086648176989437,210183,170337,191752,1366
1783771448091572566,2026-07-11T19:04:08.091+07:00,837086648176989437,210364,170464,191929,1302
1783771448109754384,2026-07-11T19:04:08.109+07:00,837086648176989437,210495,170632,192086,1319
1783771448127936202,2026-07-11T19:04:08.127+07:00,837086648176989437,210638,170772,192295,1323
1783771448146118020,2026-07-11T19:04:08.146+07:00,837086648176989437,210730,170868,192380,1242
1783771448164299838,2026-07-11T19:04:08.164+07:00,837086648176989437,210879,170987,192453,1315
1783771448182481656,2026-07-11T19:04:08.182+07:00,837086648176989437,210826,171021,192529,1293
1783771448200663474,2026-07-11T19:04:08.200+07:00,837086648176989437,211040,171079,192679,1313
1783771448218845292,2026-07-11T19:04:08.218+07:00,837086648176989437,211039,171093,192747,1302
1783771448237027110,2026-07-11T19:04:08.237+07:00,837086648176989437,211231,171308,192888,1283
1783771448255208928,2026-07-11T19:04:08.255+07:00,837086648176989437,211381,171456,193083,1336
1783771448273390746,2026-07-11T19:04:08.273+07:00,837086648176989437,211550,171674,193281,1321
1783771448291572564,2026-07-11T19:04:08.291+07:00,837086648176989437,211762,171819,193508,1306
1783771448309754382,2026-07-11T19:04:08.309+07:00,837086648176989437,211959,172058,193748,1335
1783771448327936200,2026-07-11T19:04:08.327+07:00,837086648176989437,212192,172169,193952,1340
1783771448346118018,2026-07-11T19:04:08.346+07:00,837086648176989437,212380,172428,194179,1305
1783771448364299836,2026-07-11T19:04:08.364+07:00,837086648176989437,212745,172627,194484,1301
1783771448382481654,2026-07-11T19:04:08.382+07:00,837086648176989437,212937,172863,194710,1283
1783771448400663472,2026-07-11T19:04:08.400+07:00,837086648176989437,213170,173023,194933,1305
1783771448418845290,2026-07-11T19:04:08.418+07:00,837086648176989437,213222,173082,195000,1336
1783771448437027108,2026-07-11T19:04:08.437+07:00,837086648176989437,212820,172728,194570,1325
1783771448455208926,2026-07-11T19:04:08.455+07:00,837086648176989437,212176,172185,193932,1272
1783771448473390744,2026-07-11T19:04:08.473+07:00,837086648176989437,211533,171612,193271,1318
1783771448491572562,2026-07-11T19:04:08.491+07:00,837086648176989437,210779,170949,192569,1288
1783771448509754380,2026-07-11T19:04:08.509+07:00,837086648176989437,210308,170541,192165,1306
1783771448527936198,2026-07-11T19:04:08.527+07:00,837086648176989437,209972,170343,191873,1296
1783771448546118016,2026-07-11T19:04:08.546+07:00,837086648176989437,209797,170106,191728,1283
1783771448564299834,2026-07-11T19:04:08.564+07:00,837086648850367582,209808,170122,191824,1285
1783771448582481652,2026-07-11T19:04:08.582+07:00,837086648850367582,209986,170290,192038,1291
1783771448600663470,2026-07-11T19:04:08.600+07:00,837086648850367582,210141,170569,192260,1325
1783771448618845288,2026-07-11T19:04:08.618+07:00,837086648850367582,210442,170788,192665,1301
1783771448637027106,2026-07-11T19:04:08.637+07:00,837086648850367582,210733,171073,192990,1314
1783771448655208924,2026-07-11T19:04:08.655+07:00,837086648850367582,211093,171464,193413,1324
1783771448673390742,2026-07-11T19:04:08.673+07:00,837086648850367582,211404,171760,193843,1311
1783771448691572560,2026-07-11T19:04:08.691+07:00,837086648850367582,211705,172014,194269,1311
1783771448709754378,2026-07-11T19:04:08.709+07:00,837086648850367582,211976,172338,194626,1313
1783771448727936196,2026-07-11T19:04:08.727+07:00,837086648850367582,212282,172628,194979,1304
1783771448746118014,2026-07-11T19:04:08.746+07:00,837086648850367582,212516,172891,195302,1276
1783771448764299832,2026-07-11T19:04:08.764+07:00,837086648850367582,212821,173203,195745,1272
1783771448782481650,2026-07-11T19:04:08.782+07:00,837086648850367582,213118,173469,196099,1294
1783771448800663468,2026-07-11T19:04:08.800+07:00,837086648850367582,213512,173883,196518,1320
1783771448818845286,2026-07-11T19:04:08.818+07:00,837086648850367582,213801,174165,196901,1268
1783771448837027104,2026-07-11T19:04:08.837+07:00,837086648850367582,214172,174507,197320,1327
1783771448855208922,2026-07-11T19:04:08.855+07:00,837086648850367582,214506,174792,197744,1294
1783771448873390740,2026-07-11T19:04:08.873+07:00,837086648850367582,214861,175091,198118,1316
1783771448891572558,2026-07-11T19:04:08.891+07:00,837086648850367582,215106,175368,198443,1303
1783771448909754376,2026-07-11T19:04:08.909+07:00,837086648850367582,215383,175626,198695,1259
1783771448927936194,2026-07-11T19:04:08.927+07:00,837086648850367582,215735,175935,199079,1303
1783771448946118012,2026-07-11T19:04:08.946+07:00,837086648850367582,216018,176150,199368,1348
1783771448964299830,2026-07-11T19:04:08.964+07:00,837086648850367582,216209,176293,199491,1265
1783771448982481648,2026-07-11T19:04:08.982+07:00,837086648850367582,216406,176488,199705,1273
1783771449000663466,2026-07-11T19:04:09.000+07:00,837086648850367582,216521,176465,199721,1367
1783771449018845284,2026-07-11T19:04:09.018+07:00,837086648850367582,216252,176297,199472,1375
1783771449037027102,2026-07-11T19:04:09.037+07:00,837086648850367582,215697,175870,198924,1334
1783771449055208920,2026-07-11T19:04:09.055+07:00,837086648850367582,215047,175325,198281,1299
1783771449073390738,2026-07-11T19:04:09.073+07:00,837086648850367582,214443,174830,197750,1263
1783771449091572556,2026-07-11T19:04:09.091+07:00,837086648850367582,213999,174451,197397,1331
1783771449109754374,2026-07-11T19:04:09.109+07:00,837086648850367582,213726,174208,197063,1328
1783771449127936192,2026-07-11T19:04:09.127+07:00,837086648850367582,213601,174040,196969,1314
1783771449146118010,2026-07-11T19:04:09.146+07:00,837086648850367582,213522,173922,196862,1324
1783771449164299828,2026-07-11T19:04:09.164+07:00,837086648850367582,213520,173950,196836,1333
1783771449182481646,2026-07-11T19:04:09.182+07:00,837086648850367582,213566,173972,196867,1285
1783771449200663464,2026-07-11T19:04:09.200+07:00,837086648850367582,213627,174081,196974,1338
1783771449218845282,2026-07-11T19:04:09.218+07:00,837086648850367582,213852,174210,197131,1361
1783771449237027100,2026-07-11T19:04:09.237+07:00,837086649560175063,213919,174236,197253,1300
1783771449255208918,2026-07-11T19:04:09.255+07:00,837086649560175063,214038,174350,197346,1303
1783771449273390736,2026-07-11T19:04:09.273+07:00,837086649560175063,214144,174455,197476,1342
1783771449291572554,2026-07-11T19:04:09.291+07:00,837086649560175063,214215,174543,197533,1343
1783771449309754372,2026-07-11T19:04:09.309+07:00,837086649560175063,214220,174590,197594,1356
1783771449327936190,2026-07-11T19:04:09.327+07:00,837086649560175063,214316,174661,197638,1287
1783771449346118008,2026-07-11T19:04:09.346+07:00,837086649560175063,214278,174632,197631,1285
1783771449364299826,2026-07-11T19:04:09.364+07:00,837086649560175063,214339,174717,197714,1260
1783771449382481644,2026-07-11T19:04:09.382+07:00,837086649560175063,214367,174724,197766,1229
1783771449400663462,2026-07-11T19:04:09.400+07:00,837086649560175063,214418,174710,197767,1251
1783771449418845280,2026-07-11T19:04:09.418+07:00,837086649560175063,214562,174795,197859,1276
1783771449437027098,2026-07-11T19:04:09.437+07:00,837086649560175063,214665,174908,198002,1321
1783771449455208916,2026-07-11T19:04:09.455+07:00,837086649560175063,214891,175096,198194,1385
1783771449473390734,2026-07-11T19:04:09.473+07:00,837086649560175063,215077,175173,198275,1327
1783771449491572552,2026-07-11T19:04:09.491+07:00,837086649560175063,215199,175308,198406,1242
1783771449509754370,2026-07-11T19:04:09.509+07:00,837086649560175063,215450,175569,198627,1291
1783771449527936188,2026-07-11T19:04:09.527+07:00,837086649560175063,215601,175719,198786,1315
1783771449546118006,2026-07-11T19:04:09.546+07:00,837086649560175063,215807,175830,198977,1332
1783771449564299824,2026-07-11T19:04:09.564+07:00,837086649560175063,215716,175744,198883,1285
1783771449582481642,2026-07-11T19:04:09.582+07:00,837086649560175063,215381,175478,198532,1309
1783771449600663460,2026-07-11T19:04:09.600+07:00,837086649560175063,214913,175045,198108,1339
1783771449618845278,2026-07-11T19:04:09.618+07:00,837086649560175063,214385,174615,197597,1353
1783771449637027096,2026-07-11T19:04:09.637+07:00,837086649560175063,213794,174157,197107,1277
1783771449655208914,2026-07-11T19:04:09.655+07:00,837086649560175063,213509,173955,196884,1310
1783771449673390732,2026-07-11T19:04:09.673+07:00,837086649560175063,213250,173708,196708,1311
1783771449691572550,2026-07-11T19:04:09.691+07:00,837086649560175063,213149,173584,196616,1272
1783771449709754368,2026-07-11T19:04:09.709+07:00,837086649560175063,213116,173652,196626,1267
1783771449727936186,2026-07-11T19:04:09.727+07:00,837086649560175063,213226,173707,196728,1304
1783771449746118004,2026-07-11T19:04:09.746+07:00,837086649560175063,213370,173818,196938,1376
1783771449764299822,2026-07-11T19:04:09.764+07:00,837086649560175063,213499,173961,197144,1344
1783771449782481640,2026-07-11T19:04:09.782+07:00,837086649560175063,213752,174157,197394,1298
1783771449800663458,2026-07-11T19:04:09.800+07:00,837086649560175063,213933,174299,197510,1270
1783771449818845276,2026-07-11T19:04:09.818+07:00,837086649560175063,214126,174486,197717,1277
1783771449837027094,2026-07-11T19:04:09.837+07:00,837086649560175063,214283,174591,197836,1264
1783771449855208912,2026-07-11T19:04:09.855+07:00,837086649560175063,214410,174741,198011,1283
1783771449873390730,2026-07-11T19:04:09.873+07:00,837086649560175063,214560,174868,198189,1336
1783771449891572548,2026-07-11T19:04:09.891+07:00,837086649560175063,214749,175065,198324,1331
1783771449909754366,2026-07-11T19:04:09.909+07:00,837086649560175063,214914,175150,198529,1342
1783771449927936184,2026-07-11T19:04:09.927+07:00,837086649560175063,215084,175328,198810,1412
1783771449946118002,2026-07-11T19:04:09.946+07:00,837086650269952026,215314,175581,199046,1370
1783771449964299820,2026-07-11T19:04:09.964+07:00,837086650269952026,215551,175859,199383,1287
1783771449982481638,2026-07-11T19:04:09.982+07:00,837086650269952026,215970,176213,199769,1313
1783771450000663456,2026-07-11T19:04:10.000+07:00,837086650269952026,216321,176506,200207,1304
1783771450018845274,2026-07-11T19:04:10.018+07:00,837086650269952026,216660,176886,200724,1326
1783771450037027092,2026-07-11T19:04:10.037+07:00,837086650269952026,217099,177300,201230,1353
1783771450055208910,2026-07-11T19:04:10.055+07:00,837086650269952026,217546,177729,201736,1355
1783771450073390728,2026-07-11T19:04:10.073+07:00,837086650269952026,217985,178113,202311,1290
1783771450091572546,2026-07-11T19:04:10.091+07:00,837086650269952026,218253,178481,202634,1321
1783771450109754364,2026-07-11T19:04:10.109+07:00,837086650269952026,218322,178652,202850,1348
1783771450127936182,2026-07-11T19:04:10.127+07:00,837086650269952026,218230,178590,202866,1288
1783771450146118000,2026-07-11T19:04:10.146+07:00,837086650269952026,218024,178491,202751,1315
1783771450164299818,2026-07-11T19:04:10.164+07:00,837086650269952026,217884,178391,202780,1335
1783771450182481636,2026-07-11T19:04:10.182+07:00,837086650269952026,217834,178521,202939,1238
1783771450200663454,2026-07-11T19:04:10.200+07:00,837086650269952026,217859,178551,203089,1292
1783771450218845272,2026-07-11T19:04:10.218+07:00,837086650269952026,218060,178729,203312,1307
1783771450237027090,2026-07-11T19:04:10.237+07:00,837086650269952026,218316,178969,203596,1289
1783771450255208908,2026-07-11T19:04:10.255+07:00,837086650269952026,218536,179183,203942,1314
1783771450273390726,2026-07-11T19:04:10.273+07:00,837086650269952026,218822,179484,204289,1318
1783771450291572544,2026-07-11T19:04:10.291+07:00,837086650269952026,219141,179762,204621,1314
1783771450309754362,2026-07-11T19:04:10.309+07:00,837086650269952026,219513,180012,205001,1316
1783771450327936180,2026-07-11T19:04:10.327+07:00,837086650269952026,219825,180284,205330,1319
1783771450346117998,2026-07-11T19:04:10.346+07:00,837086650269952026,220148,180607,205672,1348
1783771450364299816,2026-07-11T19:04:10.364+07:00,837086650269952026,220371,180872,205963,1343
1783771450382481634,2026-07-11T19:04:10.382+07:00,837086650269952026,220597,181048,206174,1339
1783771450400663452,2026-07-11T19:04:10.400+07:00,837086650269952026,220760,181167,206364,1315
1783771450418845270,2026-07-11T19:04:10.418+07:00,837086650269952026,220916,181342,206457,1347
1783771450437027088,2026-07-11T19:04:10.437+07:00,837086650269952026,221105,181477,206678,1308
1783771450455208906,2026-07-11T19:04:10.455+07:00,837086650269952026,221239,181660,206808,1315
1783771450473390724,2026-07-11T19:04:10.473+07:00,837086650269952026,221346,181778,206943,1299
1783771450491572542,2026-07-11T19:04:10.491+07:00,837086650269952026,221553,181950,207190,1313
1783771450509754360,2026-07-11T19:04:10.509+07:00,837086650269952026,221712,182127,207310,1303
1783771450527936178,2026-07-11T19:04:10.527+07:00,837086650269952026,221958,182284,207578,1325
1783771450546117996,2026-07-11T19:04:10.546+07:00,837086650269952026,222198,182451,207688,1326
1783771450564299814,2026-07-11T19:04:10.564+07:00,837086650269952026,222417,182622,207856,1314
1783771450582481632,2026-07-11T19:04:10.582+07:00,837086650269952026,222477,182748,207912,1287
1783771450600663450,2026-07-11T19:04:10.600+07:00,837086650269952026,222419,182669,207829,1320
1783771450618845268,2026-07-11T19:04:10.618+07:00,837086650269952026,222085,182423,207542,1376
1783771450637027086,2026-07-11T19:04:10.637+07:00,837086650269952026,221607,182068,207201,1379
1783771450655208904,2026-07-11T19:04:10.655+07:00,837086651034327216,221194,181669,206788,1393
1783771450673390722,2026-07-11T19:04:10.673+07:00,837086651034327216,220802,181415,206476,1345
1783771450691572540,2026-07-11T19:04:10.691+07:00,837086651034327216,220563,181251,206314,1342
1783771450709754358,2026-07-11T19:04:10.709+07:00,837086651034327216,220423,181132,206278,1302
1783771450727936176,2026-07-11T19:04:10.727+07:00,837086651034327216,220408,181072,206239,1351
1783771450746117994,2026-07-11T19:04:10.746+07:00,837086651034327216,220390,181116,206266,1358
1783771450764299812,2026-07-11T19:04:10.764+07:00,837086651034327216,220529,181124,206354,1380
1783771450782481630,2026-07-11T19:04:10.782+07:00,837086651034327216,220612,181290,206474,1374
1783771450800663448,2026-07-11T19:04:10.800+07:00,837086651034327216,220777,181435,206573,1383
1783771450818845266,2026-07-11T19:04:10.818+07:00,837086651034327216,220889,181575,206773,1402
1783771450837027084,2026-07-11T19:04:10.837+07:00,837086651034327216,220999,181693,206931,1382
1783771450855208902,2026-07-11T19:04:10.855+07:00,837086651034327216,221204,181838,207107,1339
1783771450873390720,2026-07-11T19:04:10.873+07:00,837086651034327216,221277,181959,207170,1325
1783771450891572538,2026-07-11T19:04:10.891+07:00,837086651034327216,221451,182088,207375,1324
1783771450909754356,2026-07-11T19:04:10.909+07:00,837086651034327216,221566,182154,207502,1370
1783771450927936174,2026-07-11T19:04:10.927+07:00,837086651034327216,221629,182326,207603,1352
1783771450946117992,2026-07-11T19:04:10.946+07:00,837086651034327216,221822,182471,207760,1320
1783771450964299810,2026-07-11T19:04:10.964+07:00,837086651034327216,221969,182600,207978,1311
1783771450982481628,2026-07-11T19:04:10.982+07:00,837086651034327216,222155,182733,208143,1334
1783771451000663446,2026-07-11T19:04:11.000+07:00,837086651034327216,222447,182984,208390,1356
1783771451018845264,2026-07-11T19:04:11.018+07:00,837086651034327216,222651,183187,208598,1326
1783771451037027082,2026-07-11T19:04:11.037+07:00,837086651034327216,222862,183332,208902,1370
1783771451055208900,2026-07-11T19:04:11.055+07:00,837086651034327216,223106,183588,209193,1339
1783771451073390718,2026-07-11T19:04:11.073+07:00,837086651034327216,223370,183741,209438,1335
1783771451091572536,2026-07-11T19:04:11.091+07:00,837086651034327216,223443,183855,209506,1352
1783771451109754354,2026-07-11T19:04:11.109+07:00,837086651034327216,223266,183849,209415,1350
1783771451127936172,2026-07-11T19:04:11.127+07:00,837086651034327216,222979,183604,209188,1356
1783771451146117990,2026-07-11T19:04:11.146+07:00,837086651034327216,222632,183351,208907,1308
1783771451164299808,2026-07-11T19:04:11.164+07:00,837086651034327216,222405,183246,208760,1400
1783771451182481626,2026-07-11T19:04:11.182+07:00,837086651034327216,222247,183077,208632,1309
1783771451200663444,2026-07-11T19:04:11.200+07:00,837086651034327216,222233,183140,208712,1337
1783771451218845262,2026-07-11T19:04:11.218+07:00,837086651034327216,222201,183132,208755,1273
1783771451237027080,2026-07-11T19:04:11.237+07:00,837086651034327216,222282,183274,208879,1298
1783771451255208898,2026-07-11T19:04:11.255+07:00,837086651034327216,222412,183387,209074,1308
1783771451273390716,2026-07-11T19:04:11.273+07:00,837086651034327216,222657,183528,209242,1303
1783771451291572534,2026-07-11T19:04:11.291+07:00,837086651034327216,222736,183682,209485,1280
1783771451309754352,2026-07-11T19:04:11.309+07:00,837086651034327216,223014,183877,209725,1310
1783771451327936170,2026-07-11T19:04:11.327+07:00,837086651034327216,223215,184015,209984,1325
1783771451346117988,2026-07-11T19:04:11.346+07:00,837086651034327216,223411,184250,210141,1357
1783771451364299806,2026-07-11T19:04:11.364+07:00,837086651034327216,223564,184442,210291,1374
1783771451382481624,2026-07-11T19:04:11.382+07:00,837086651034327216,223762,184543,210451,1343
1783771451400663442,2026-07-11T19:04:11.400+07:00,837086651034327216,223942,184627,210608,1356
1783771451418845260,2026-07-11T19:04:11.418+07:00,837086651798604746,224044,184804,210781,1330
1783771451437027078,2026-07-11T19:04:11.437+07:00,837086651798604746,224215,184926,210910,1323
1783771451455208896,2026-07-11T19:04:11.455+07:00,837086651798604746,224320,185096,211071,1365
1783771451473390714,2026-07-11T19:04:11.473+07:00,837086651798604746,224512,185283,211286,1333
1783771451491572532,2026-07-11T19:04:11.491+07:00,837086651798604746,224736,185401,211470,1343
1783771451509754350,2026-07-11T19:04:11.509+07:00,837086651798604746,224859,185664,211636,1305
1783771451527936168,2026-07-11T19:04:11.527+07:00,837086651798604746,225212,185893,211899,1342
1783771451546117986,2026-07-11T19:04:11.546+07:00,837086651798604746,225372,186012,212059,1270
1783771451564299804,2026-07-11T19:04:11.564+07:00,837086651798604746,225560,186158,212250,1225
1783771451582481622,2026-07-11T19:04:11.582+07:00,837086651798604746,225660,186259,212255,1302
1783771451600663440,2026-07-11T19:04:11.600+07:00,837086651798604746,225465,186092,212136,1331
1783771451618845258,2026-07-11T19:04:11.618+07:00,837086651798604746,225117,185788,211716,1344
1783771451637027076,2026-07-11T19:04:11.637+07:00,837086651798604746,224743,185580,211409,1323
1783771451655208894,2026-07-11T19:04:11.655+07:00,837086651798604746,224446,185283,211082,1386
1783771451673390712,2026-07-11T19:04:11.673+07:00,837086651798604746,224144,185063,210831,1322
1783771451691572530,2026-07-11T19:04:11.691+07:00,837086651798604746,223988,184911,210671,1323
1783771451709754348,2026-07-11T19:04:11.709+07:00,837086651798604746,223955,184870,210598,1300
1783771451727936166,2026-07-11T19:04:11.727+07:00,837086651798604746,223955,184853,210670,1285
1783771451746117984,2026-07-11T19:04:11.746+07:00,837086651798604746,224025,184908,210728,1322
1783771451764299802,2026-07-11T19:04:11.764+07:00,837086651798604746,224100,185059,210817,1254
1783771451782481620,2026-07-11T19:04:11.782+07:00,837086651798604746,224238,185152,210948,1264
1783771451800663438,2026-07-11T19:04:11.800+07:00,837086651798604746,224388,185307,211099,1302
1783771451818845256,2026-07-11T19:04:11.818+07:00,837086651798604746,224539,185409,211299,1347
1783771451837027074,2026-07-11T19:04:11.837+07:00,837086651798604746,224757,185551,211418,1292
1783771451855208892,2026-07-11T19:04:11.855+07:00,837086651798604746,224881,185711,211504,1304
1783771451873390710,2026-07-11T19:04:11.873+07:00,837086651798604746,224995,185834,211638,1352
1783771451891572528,2026-07-11T19:04:11.891+07:00,837086651798604746,225111,185880,211776,1325
1783771451909754346,2026-07-11T19:04:11.909+07:00,837086651798604746,225244,186044,211936,1317
1783771451927936164,2026-07-11T19:04:11.927+07:00,837086651798604746,225375,186165,212004,1243
1783771451946117982,2026-07-11T19:04:11.946+07:00,837086651798604746,225515,186316,212166,1318
1783771451964299800,2026-07-11T19:04:11.964+07:00,837086651798604746,225680,186431,212411,1324
1783771451982481618,2026-07-11T19:04:11.982+07:00,837086651798604746,225852,186618,212534,1263
1783771452000663436,2026-07-11T19:04:12.000+07:00,837086651798604746,226058,186761,212763,1309
1783771452018845254,2026-07-11T19:04:12.018+07:00,837086651798604746,226268,186941,212972,1294
1783771452037027072,2026-07-11T19:04:12.037+07:00,837086651798604746,226562,187183,213249,1341
1783771452055208890,2026-07-11T19:04:12.055+07:00,837086651798604746,226808,187412,213404,1260
1783771452073390708,2026-07-11T19:04:12.073+07:00,837086651798604746,227050,187573,213725,1316
1783771452091572526,2026-07-11T19:04:12.091+07:00,837086651798604746,227208,187773,213897,1294
1783771452109754344,2026-07-11T19:04:12.109+07:00,837086651798604746,227179,187813,213879,1343
1783771452127936162,2026-07-11T19:04:12.127+07:00,837086651798604746,226972,187636,213611,1309
1783771452146117980,2026-07-11T19:04:12.146+07:00,837086651798604746,226615,187366,213278,1339
1783771452164299798,2026-07-11T19:04:12.164+07:00,837086651798604746,226296,187054,212967,1296
1783771452182481616,2026-07-11T19:04:12.182+07:00,837086652562799878,226004,186840,212710,1366
1783771452200663434,2026-07-11T19:04:12.200+07:00,837086652562799878,225846,186712,212535,1306
1783771452218845252,2026-07-11T19:04:12.218+07:00,837086652562799878,225753,186678,212438,1320
1783771452237027070,2026-07-11T19:04:12.237+07:00,837086652562799878,225772,186694,212449,1325
1783771452255208888,2026-07-11T19:04:12.255+07:00,837086652562799878,225878,186742,212593,1343
1783771452273390706,2026-07-11T19:04:12.273+07:00,837086652562799878,225967,186846,212692,1299
1783771452291572524,2026-07-11T19:04:12.291+07:00,837086652562799878,226120,186970,212862,1330
1783771452309754342,2026-07-11T19:04:12.309+07:00,837086652562799878,226290,187113,212987,1263
1783771452327936160,2026-07-11T19:04:12.327+07:00,837086652562799878,226463,187327,213183,1323
1783771452346117978,2026-07-11T19:04:12.346+07:00,837086652562799878,226646,187435,213379,1332
1783771452364299796,2026-07-11T19:04:12.364+07:00,837086652562799878,226765,187572,213473,1291
1783771452382481614,2026-07-11T19:04:12.382+07:00,837086652562799878,226912,187679,213693,1276
1783771452400663432,2026-07-11T19:04:12.400+07:00,837086652562799878,227030,187811,213729,1285
1783771452418845250,2026-07-11T19:04:12.418+07:00,837086652562799878,227126,187864,213798,1293
1783771452437027068,2026-07-11T19:04:12.437+07:00,837086652562799878,227221,188016,213920,1294
1783771452455208886,2026-07-11T19:04:12.455+07:00,837086652562799878,227382,188126,214006,1315
1783771452473390704,2026-07-11T19:04:12.473+07:00,837086652562799878,227558,188183,214077,1366
1783771452491572522,2026-07-11T19:04:12.491+07:00,837086652562799878,227709,188298,214210,1336
1783771452509754340,2026-07-11T19:04:12.509+07:00,837086652562799878,227913,188478,214464,1328
1783771452527936158,2026-07-11T19:04:12.527+07:00,837086652562799878,228064,188625,214632,1289
1783771452546117976,2026-07-11T19:04:12.546+07:00,837086652562799878,228229,188820,214818,1309
1783771452564299794,2026-07-11T19:04:12.564+07:00,837086652562799878,228505,189002,214979,1297
1783771452582481612,2026-07-11T19:04:12.582+07:00,837086652562799878,228671,189211,215190,1269
1783771452600663430,2026-07-11T19:04:12.600+07:00,837086652562799878,228859,189393,215391,1333
1783771452618845248,2026-07-11T19:04:12.618+07:00,837086652562799878,229025,189566,215589,1321
1783771452637027066,2026-07-11T19:04:12.637+07:00,837086652562799878,229173,189667,215702,1296
1783771452655208884,2026-07-11T19:04:12.655+07:00,837086652562799878,229217,189688,215661,1340
1783771452673390702,2026-07-11T19:04:12.673+07:00,837086652562799878,229001,189498,215370,1365
1783771452691572520,2026-07-11T19:04:12.691+07:00,837086652562799878,228660,189210,215034,1366
1783771452709754338,2026-07-11T19:04:12.709+07:00,837086652562799878,228220,188939,214614,1308
1783771452727936156,2026-07-11T19:04:12.727+07:00,837086652562799878,227984,188667,214366,1334
1783771452746117974,2026-07-11T19:04:12.746+07:00,837086652562799878,227797,188419,214151,1304
1783771452764299792,2026-07-11T19:04:12.764+07:00,837086652562799878,227716,188419,214054,1291
1783771452782481610,2026-07-11T19:04:12.782+07:00,837086652562799878,227707,188392,213985,1358
1783771452800663428,2026-07-11T19:04:12.800+07:00,837086652562799878,227723,188418,214023,1288
1783771452818845246,2026-07-11T19:04:12.818+07:00,837086652562799878,227840,188464,214182,1291
1783771452837027064,2026-07-11T19:04:12.837+07:00,837086652562799878,228001,188628,214258,1334
1783771452855208882,2026-07-11T19:04:12.855+07:00,837086652562799878,228137,188754,214432,1315
1783771452873390700,2026-07-11T19:04:12.873+07:00,837086652562799878,228333,188898,214650,1332
1783771452891572518,2026-07-11T19:04:12.891+07:00,837086652562799878,228553,189091,214844,1323
1783771452909754336,2026-07-11T19:04:12.909+07:00,837086652562799878,228711,189258,214965,1334
1783771452927936154,2026-07-11T19:04:12.927+07:00,837086652562799878,228827,189378,215143,1268
1783771452946117972,2026-07-11T19:04:12.946+07:00,837086653326952286,228902,189483,215209,1284
1783771452964299790,2026-07-11T19:04:12.964+07:00,837086653326952286,229118,189669,215364,1323
1783771452982481608,2026-07-11T19:04:12.982+07:00,837086653326952286,229228,189760,215509,1248
1783771453000663426,2026-07-11T19:04:13.000+07:00,837086653326952286,229391,189876,215650,1288
1783771453018845244,2026-07-11T19:04:13.018+07:00,837086653326952286,229515,189986,215796,1343
1783771453037027062,2026-07-11T19:04:13.037+07:00,837086653326952286,229664,190071,215983,1302
1783771453055208880,2026-07-11T19:04:13.055+07:00,837086653326952286,229937,190287,216194,1283
1783771453073390698,2026-07-11T19:04:13.073+07:00,837086653326952286,230087,190441,216360,1294
1783771453091572516,2026-07-11T19:04:13.091+07:00,837086653326952286,230307,190650,216636,1275
1783771453109754334,2026-07-11T19:04:13.109+07:00,837086653326952286,230525,190858,216792,1325
1783771453127936152,2026-07-11T19:04:13.127+07:00,837086653326952286,230742,191088,217110,1320
1783771453146117970,2026-07-11T19:04:13.146+07:00,837086653326952286,231069,191344,217367,1357
1783771453164299788,2026-07-11T19:04:13.164+07:00,837086653326952286,231279,191549,217658,1325
1783771453182481606,2026-07-11T19:04:13.182+07:00,837086653326952286,231443,191779,217969,1341
1783771453200663424,2026-07-11T19:04:13.200+07:00,837086653326952286,231698,191960,218197,1320
1783771453218845242,2026-07-11T19:04:13.218+07:00,837086653326952286,231907,192149,218409,1320
1783771453237027060,2026-07-11T19:04:13.237+07:00,837086653326952286,232035,192231,218432,1324
1783771453255208878,2026-07-11T19:04:13.255+07:00,837086653326952286,231830,192142,218273,1298
1783771453273390696,2026-07-11T19:04:13.273+07:00,837086653326952286,231591,191920,218020,1345
1783771453291572514,2026-07-11T19:04:13.291+07:00,837086653326952286,231405,191735,217842,1349
1783771453309754332,2026-07-11T19:04:13.309+07:00,837086653326952286,231223,191574,217714,1319
1783771453327936150,2026-07-11T19:04:13.327+07:00,837086653326952286,231091,191560,217639,1299
1783771453346117968,2026-07-11T19:04:13.346+07:00,837086653326952286,231191,191583,217727,1358
1783771453364299786,2026-07-11T19:04:13.364+07:00,837086653326952286,231242,191709,217845,1375
1783771453382481604,2026-07-11T19:04:13.382+07:00,837086653326952286,231477,191907,218036,1340
1783771453400663422,2026-07-11T19:04:13.400+07:00,837086653326952286,231661,192009,218207,1362
1783771453418845240,2026-07-11T19:04:13.418+07:00,837086653326952286,231924,192342,218591,1349
1783771453437027058,2026-07-11T19:04:13.437+07:00,837086653326952286,232146,192526,218829,1405
1783771453455208876,2026-07-11T19:04:13.455+07:00,837086653326952286,232433,192767,219085,1386
1783771453473390694,2026-07-11T19:04:13.473+07:00,837086653326952286,232644,192921,219284,1333
1783771453491572512,2026-07-11T19:04:13.491+07:00,837086653326952286,232875,193185,219534,1354
1783771453509754330,2026-07-11T19:04:13.509+07:00,837086653326952286,232974,193335,219617,1390
1783771453527936148,2026-07-11T19:04:13.527+07:00,837086653326952286,233111,193475,219766,1318
1783771453546117966,2026-07-11T19:04:13.546+07:00,837086653326952286,233262,193586,219908,1355
1783771453564299784,2026-07-11T19:04:13.564+07:00,837086653326952286,233337,193662,219944,1397
1783771453582481602,2026-07-11T19:04:13.582+07:00,837086653326952286,233481,193762,220087,1337
1783771453600663420,2026-07-11T19:04:13.600+07:00,837086653326952286,233602,193732,220114,1317
1783771453618845238,2026-07-11T19:04:13.618+07:00,837086653326952286,233747,193866,220212,1336
1783771453637027056,2026-07-11T19:04:13.637+07:00,837086653326952286,233893,194055,220322,1352
1783771453655208874,2026-07-11T19:04:13.655+07:00,837086653326952286,233983,194137,220400,1319
1783771453673390692,2026-07-11T19:04:13.673+07:00,837086653326952286,234081,194265,220484,1345
1783771453691572510,2026-07-11T19:04:13.691+07:00,837086653326952286,234297,194347,220566,1338
1783771453709754328,2026-07-11T19:04:13.709+07:00,837086654000161057,234395,194344,220602,1326
1783771453727936146,2026-07-11T19:04:13.727+07:00,837086654000161057,234480,194505,220683,1325
1783771453746117964,2026-07-11T19:04:13.746+07:00,837086654000161057,234627,194504,220769,1337
1783771453764299782,2026-07-11T19:04:13.764+07:00,837086654000161057,234722,194531,220820,1353
1783771453782481600,2026-07-11T19:04:13.782+07:00,837086654000161057,234817,194536,220766,1337
1783771453800663418,2026-07-11T19:04:13.800+07:00,837086654000161057,234720,194429,220678,1253
1783771453818845236,2026-07-11T19:04:13.818+07:00,837086654000161057,234542,194271,220382,1367
1783771453837027054,2026-07-11T19:04:13.837+07:00,837086654000161057,234051,193824,219789,1284
1783771453855208872,2026-07-11T19:04:13.855+07:00,837086654000161057,233574,193347,219243,1357
1783771453873390690,2026-07-11T19:04:13.873+07:00,837086654000161057,233060,192843,218681,1283
1783771453891572508,2026-07-11T19:04:13.891+07:00,837086654000161057,232699,192409,218221,1333
1783771453909754326,2026-07-11T19:04:13.909+07:00,837086654000161057,232416,192128,217930,1290
1783771453927936144,2026-07-11T19:04:13.927+07:00,837086654000161057,232170,191870,217677,1291
1783771453946117962,2026-07-11T19:04:13.946+07:00,837086654000161057,232034,191717,217406,1302
1783771453964299780,2026-07-11T19:04:13.964+07:00,837086654000161057,231967,191614,217328,1321
1783771453982481598,2026-07-11T19:04:13.982+07:00,837086654000161057,232013,191530,217250,1305
1783771454000663416,2026-07-11T19:04:14.000+07:00,837086654000161057,231991,191495,217233,1302
1783771454018845234,2026-07-11T19:04:14.018+07:00,837086654000161057,231999,191520,217251,1308
1783771454037027052,2026-07-11T19:04:14.037+07:00,837086654000161057,231989,191526,217284,1306
1783771454055208870,2026-07-11T19:04:14.055+07:00,837086654000161057,232023,191427,217231,1284
1783771454073390688,2026-07-11T19:04:14.073+07:00,837086654000161057,232030,191401,217152,1333
1783771454091572506,2026-07-11T19:04:14.091+07:00,837086654000161057,231977,191365,217087,1336
1783771454109754324,2026-07-11T19:04:14.109+07:00,837086654000161057,231932,191338,217041,1338
1783771454127936142,2026-07-11T19:04:14.127+07:00,837086654000161057,231939,191290,217025,1340
1783771454146117960,2026-07-11T19:04:14.146+07:00,837086654000161057,231820,191231,217006,1338
1783771454164299778,2026-07-11T19:04:14.164+07:00,837086654000161057,231870,191275,217011,1322
1783771454182481596,2026-07-11T19:04:14.182+07:00,837086654000161057,231915,191243,216975,1245
1783771454200663414,2026-07-11T19:04:14.200+07:00,837086654000161057,231949,191299,217021,1299
1783771454218845232,2026-07-11T19:04:14.218+07:00,837086654000161057,232084,191416,217050,1357
1783771454237027050,2026-07-11T19:04:14.237+07:00,837086654000161057,232130,191448,217148,1299
1783771454255208868,2026-07-11T19:04:14.255+07:00,837086654000161057,232283,191519,217258,1304
1783771454273390686,2026-07-11T19:04:14.273+07:00,837086654000161057,232411,191597,217384,1340
1783771454291572504,2026-07-11T19:04:14.291+07:00,837086654000161057,232535,191726,217476,1296
1783771454309754322,2026-07-11T19:04:14.309+07:00,837086654000161057,232662,191843,217625,1349
1783771454327936140,2026-07-11T19:04:14.327+07:00,837086654000161057,232798,191940,217739,1338
1783771454346117958,2026-07-11T19:04:14.346+07:00,837086654000161057,232812,191998,217768,1298
1783771454364299776,2026-07-11T19:04:14.364+07:00,837086654000161057,232641,191834,217514,1348
1783771454382481594,2026-07-11T19:04:14.382+07:00,837086654709741178,232265,191507,217161,1315
1783771454400663412,2026-07-11T19:04:14.400+07:00,837086654709741178,231803,191118,216664,1331
1783771454418845230,2026-07-11T19:04:14.418+07:00,837086654709741178,231359,190652,216231,1315
1783771454437027048,2026-07-11T19:04:14.437+07:00,837086654709741178,230998,190337,215932,1328
1783771454455208866,2026-07-11T19:04:14.455+07:00,837086654709741178,230749,190051,215644,1344
1783771454473390684,2026-07-11T19:04:14.473+07:00,837086654709741178,230597,189922,215383,1390
1783771454491572502,2026-07-11T19:04:14.491+07:00,837086654709741178,230500,189797,215233,1367
1783771454509754320,2026-07-11T19:04:14.509+07:00,837086654709741178,230434,189711,215102,1345
1783771454527936138,2026-07-11T19:04:14.527+07:00,837086654709741178,230392,189732,215149,1305
1783771454546117956,2026-07-11T19:04:14.546+07:00,837086654709741178,230373,189628,215117,1320
1783771454564299774,2026-07-11T19:04:14.564+07:00,837086654709741178,230514,189636,215152,1311
1783771454582481592,2026-07-11T19:04:14.582+07:00,837086654709741178,230622,189749,215289,1375
1783771454600663410,2026-07-11T19:04:14.600+07:00,837086654709741178,230673,189787,215411,1353
1783771454618845228,2026-07-11T19:04:14.618+07:00,837086654709741178,230788,189780,215444,1327
1783771454637027046,2026-07-11T19:04:14.637+07:00,837086654709741178,230759,189852,215574,1349
1783771454655208864,2026-07-11T19:04:14.655+07:00,837086654709741178,230867,189882,215637,1368
1783771454673390682,2026-07-11T19:04:14.673+07:00,837086654709741178,230894,189915,215671,1361
1783771454691572500,2026-07-11T19:04:14.691+07:00,837086654709741178,230925,189916,215757,1352
1783771454709754318,2026-07-11T19:04:14.709+07:00,837086654709741178,230955,190040,215780,1321
1783771454727936136,2026-07-11T19:04:14.727+07:00,837086654709741178,231022,190127,215831,1302
1783771454746117954,2026-07-11T19:04:14.746+07:00,837086654709741178,231109,190189,215989,1296
1783771454764299772,2026-07-11T19:04:14.764+07:00,837086654709741178,231278,190268,216105,1380
1783771454782481590,2026-07-11T19:04:14.782+07:00,837086654709741178,231373,190362,216184,1354
1783771454800663408,2026-07-11T19:04:14.800+07:00,837086654709741178,231500,190437,216328,1374
1783771454818845226,2026-07-11T19:04:14.818+07:00,837086654709741178,231648,190597,216464,1344
1783771454837027044,2026-07-11T19:04:14.837+07:00,837086654709741178,231811,190712,216666,1347
1783771454855208862,2026-07-11T19:04:14.855+07:00,837086654709741178,232005,190840,216807,1303
1783771454873390680,2026-07-11T19:04:14.873+07:00,837086654709741178,232106,190931,216958,1350
1783771454891572498,2026-07-11T19:04:14.891+07:00,837086654709741178,232061,190856,216856,1391
1783771454909754316,2026-07-11T19:04:14.909+07:00,837086654709741178,231747,190596,216567,1339
1783771454927936134,2026-07-11T19:04:14.927+07:00,837086654709741178,231263,190123,216040,1321
1783771454946117952,2026-07-11T19:04:14.946+07:00,837086654709741178,230833,189717,215599,1337
1783771454964299770,2026-07-11T19:04:14.964+07:00,837086654709741178,230515,189385,215214,1356
1783771454982481588,2026-07-11T19:04:14.982+07:00,837086654709741178,230229,189109,215012,1313
1783771455000663406,2026-07-11T19:04:15.000+07:00,837086654709741178,230005,188928,214773,1326
1783771455018845224,2026-07-11T19:04:15.018+07:00,837086654709741178,229853,188766,214580,1308
1783771455037027042,2026-07-11T19:04:15.037+07:00,837086654709741178,229764,188625,214476,1324
1783771455055208860,2026-07-11T19:04:15.055+07:00,837086654709741178,229834,188633,214489,1386
1783771455073390678,2026-07-11T19:04:15.073+07:00,837086654709741178,229831,188604,214494,1337
1783771455091572496,2026-07-11T19:04:15.091+07:00,837086655473911898,229927,188740,214610,1337
1783771455109754314,2026-07-11T19:04:15.109+07:00,837086655473911898,230092,188822,214682,1351
1783771455127936132,2026-07-11T19:04:15.127+07:00,837086655473911898,230194,188894,214811,1286
1783771455146117950,2026-07-11T19:04:15.146+07:00,837086655473911898,230264,189038,215010,1301
1783771455164299768,2026-07-11T19:04:15.164+07:00,837086655473911898,230425,189184,215153,1358
1783771455182481586,2026-07-11T19:04:15.182+07:00,837086655473911898,230549,189254,215303,1374
1783771455200663404,2026-07-11T19:04:15.200+07:00,837086655473911898,230639,189385,215434,1337
1783771455218845222,2026-07-11T19:04:15.218+07:00,837086655473911898,230805,189526,215637,1311
1783771455237027040,2026-07-11T19:04:15.237+07:00,837086655473911898,230927,189644,215817,1332
1783771455255208858,2026-07-11T19:04:15.255+07:00,837086655473911898,231134,189876,216139,1316
1783771455273390676,2026-07-11T19:04:15.273+07:00,837086655473911898,231344,190114,216474,1377
1783771455291572494,2026-07-11T19:04:15.291+07:00,837086655473911898,231693,190435,216858,1352
1783771455309754312,2026-07-11T19:04:15.309+07:00,837086655473911898,231977,190683,217213,1334
1783771455327936130,2026-07-11T19:04:15.327+07:00,837086655473911898,232225,190963,217596,1269
1783771455346117948,2026-07-11T19:04:15.346+07:00,837086655473911898,232589,191374,218066,1373
1783771455364299766,2026-07-11T19:04:15.364+07:00,837086655473911898,232988,191776,218519,1395
1783771455382481584,2026-07-11T19:04:15.382+07:00,837086655473911898,233322,192150,218943,1359
1783771455400663402,2026-07-11T19:04:15.400+07:00,837086655473911898,233667,192504,219409,1380
1783771455418845220,2026-07-11T19:04:15.418+07:00,837086655473911898,233910,192776,219699,1322
1783771455437027038,2026-07-11T19:04:15.437+07:00,837086655473911898,234030,192912,219730,1379
1783771455455208856,2026-07-11T19:04:15.455+07:00,837086655473911898,233828,192733,219480,1344
1783771455473390674,2026-07-11T19:04:15.473+07:00,837086655473911898,233488,192436,219162,1405
1783771455491572492,2026-07-11T19:04:15.491+07:00,837086655473911898,233131,192031,218805,1380
1783771455509754310,2026-07-11T19:04:15.509+07:00,837086655473911898,232774,191731,218457,1337
1783771455527936128,2026-07-11T19:04:15.527+07:00,837086655473911898,232531,191446,218141,1339
1783771455546117946,2026-07-11T19:04:15.546+07:00,837086655473911898,232362,191268,217891,1360
1783771455564299764,2026-07-11T19:04:15.564+07:00,837086655473911898,232144,191135,217729,1321
1783771455582481582,2026-07-11T19:04:15.582+07:00,837086655473911898,232190,191125,217711,1395
1783771455600663400,2026-07-11T19:04:15.600+07:00,837086655473911898,232255,191140,217704,1362
1783771455618845218,2026-07-11T19:04:15.618+07:00,837086655473911898,232274,191097,217668,1326
1783771455637027036,2026-07-11T19:04:15.637+07:00,837086655473911898,232357,191191,217742,1376
1783771455655208854,2026-07-11T19:04:15.655+07:00,837086655473911898,232398,191145,217761,1300
1783771455673390672,2026-07-11T19:04:15.673+07:00,837086655473911898,232452,191200,217731,1396
1783771455691572490,2026-07-11T19:04:15.691+07:00,837086655473911898,232519,191210,217745,1452
1783771455709754308,2026-07-11T19:04:15.709+07:00,837086655473911898,232433,191130,217560,1371
1783771455727936126,2026-07-11T19:04:15.727+07:00,837086655473911898,232388,190989,217390,1349
1783771455746117944,2026-07-11T19:04:15.746+07:00,837086655473911898,232261,190895,217218,1338
1783771455764299762,2026-07-11T19:04:15.764+07:00,837086655473911898,232108,190653,216943,1372
1783771455782481580,2026-07-11T19:04:15.782+07:00,837086655473911898,231975,190483,216711,1330
1783771455800663398,2026-07-11T19:04:15.800+07:00,837086655473911898,231898,190307,216482,1371
1783771455818845216,2026-07-11T19:04:15.818+07:00,837086655473911898,231851,190220,216443,1358
1783771455837027034,2026-07-11T19:04:15.837+07:00,837086655473911898,231817,190074,216358,1350
1783771455855208852,2026-07-11T19:04:15.855+07:00,837086656128941098,231768,190054,216263,1399
1783771455873390670,2026-07-11T19:04:15.873+07:00,837086656128941098,231875,190045,216282,1359
1783771455891572488,2026-07-11T19:04:15.891+07:00,837086656128941098,231880,190086,216336,1332
1783771455909754306,2026-07-11T19:04:15.909+07:00,837086656128941098,231984,190084,216364,1304
1783771455927936124,2026-07-11T19:04:15.927+07:00,837086656128941098,232074,190184,216383,1338
1783771455946117942,2026-07-11T19:04:15.946+07:00,837086656128941098,232118,190190,216384,1293
1783771455964299760,2026-07-11T19:04:15.964+07:00,837086656128941098,231935,190040,216179,1372
1783771455982481578,2026-07-11T19:04:15.982+07:00,837086656128941098,231491,189564,215655,1325
1783771456000663396,2026-07-11T19:04:16.000+07:00,837086656128941098,230891,188967,215055,1382
1783771456018845214,2026-07-11T19:04:16.018+07:00,837086656128941098,230332,188436,214459,1401
1783771456037027032,2026-07-11T19:04:16.037+07:00,837086656128941098,229775,187921,213812,1311
1783771456055208850,2026-07-11T19:04:16.055+07:00,837086656128941098,229406,187467,213352,1349
1783771456073390668,2026-07-11T19:04:16.073+07:00,837086656128941098,229056,187266,213117,1359
1783771456091572486,2026-07-11T19:04:16.091+07:00,837086656128941098,228861,187156,212911,1327
1783771456109754304,2026-07-11T19:04:16.109+07:00,837086656128941098,228765,187028,212780,1297
1783771456127936122,2026-07-11T19:04:16.127+07:00,837086656128941098,228806,187033,212856,1383
1783771456146117940,2026-07-11T19:04:16.146+07:00,837086656128941098,228840,187058,212834,1349
1783771456164299758,2026-07-11T19:04:16.164+07:00,837086656128941098,228902,187094,212926,1252
1783771456182481576,2026-07-11T19:04:16.182+07:00,837086656128941098,228930,187243,213031,1296
1783771456200663394,2026-07-11T19:04:16.200+07:00,837086656128941098,229084,187382,213171,1353
1783771456218845212,2026-07-11T19:04:16.218+07:00,837086656128941098,229149,187384,213221,1320
1783771456237027030,2026-07-11T19:04:16.237+07:00,837086656128941098,229194,187387,213303,1310
1783771456255208848,2026-07-11T19:04:16.255+07:00,837086656128941098,229219,187508,213302,1330
1783771456273390666,2026-07-11T19:04:16.273+07:00,837086656128941098,229310,187518,213390,1282
1783771456291572484,2026-07-11T19:04:16.291+07:00,837086656128941098,229397,187666,213532,1284
1783771456309754302,2026-07-11T19:04:16.309+07:00,837086656128941098,229449,187768,213593,1306
1783771456327936120,2026-07-11T19:04:16.327+07:00,837086656128941098,229503,187860,213709,1279
1783771456346117938,2026-07-11T19:04:16.346+07:00,837086656128941098,229663,188043,213903,1294
1783771456364299756,2026-07-11T19:04:16.364+07:00,837086656128941098,229860,188133,214105,1304
1783771456382481574,2026-07-11T19:04:16.382+07:00,837086656128941098,230012,188350,214305,1318
1783771456400663392,2026-07-11T19:04:16.400+07:00,837086656128941098,230204,188550,214557,1337
1783771456418845210,2026-07-11T19:04:16.418+07:00,837086656128941098,230391,188702,214774,1337
1783771456437027028,2026-07-11T19:04:16.437+07:00,837086656128941098,230614,188976,214988,1310
1783771456455208846,2026-07-11T19:04:16.455+07:00,837086656128941098,230664,189037,214991,1357
1783771456473390664,2026-07-11T19:04:16.473+07:00,837086656128941098,230506,188878,214816,1358
1783771456491572482,2026-07-11T19:04:16.491+07:00,837086656128941098,230149,188503,214418,1374
1783771456509754300,2026-07-11T19:04:16.509+07:00,837086656838599041,229662,188057,213921,1350
1783771456527936118,2026-07-11T19:04:16.527+07:00,837086656838599041,229156,187558,213373,1337
1783771456546117936,2026-07-11T19:04:16.546+07:00,837086656838599041,228761,187209,212963,1328
1783771456564299754,2026-07-11T19:04:16.564+07:00,837086656838599041,228555,186992,212776,1378
1783771456582481572,2026-07-11T19:04:16.582+07:00,837086656838599041,228343,186841,212596,1370
1783771456600663390,2026-07-11T19:04:16.600+07:00,837086656838599041,228290,186806,212553,1272
1783771456618845208,2026-07-11T19:04:16.618+07:00,837086656838599041,228302,186797,212548,1272
1783771456637027026,2026-07-11T19:04:16.637+07:00,837086656838599041,228401,186886,212739,1369
1783771456655208844,2026-07-11T19:04:16.655+07:00,837086656838599041,228486,187016,212848,1354
1783771456673390662,2026-07-11T19:04:16.673+07:00,837086656838599041,228628,187161,212955,1308
1783771456691572480,2026-07-11T19:04:16.691+07:00,837086656838599041,228826,187309,213110,1313
1783771456709754298,2026-07-11T19:04:16.709+07:00,837086656838599041,228953,187389,213242,1323
1783771456727936116,2026-07-11T19:04:16.727+07:00,837086656838599041,229001,187518,213285,1297
1783771456746117934,2026-07-11T19:04:16.746+07:00,837086656838599041,229106,187578,213396,1305
1783771456764299752,2026-07-11T19:04:16.764+07:00,837086656838599041,229167,187630,213527,1339
1783771456782481570,2026-07-11T19:04:16.782+07:00,837086656838599041,229294,187760,213588,1331
1783771456800663388,2026-07-11T19:04:16.800+07:00,837086656838599041,229287,187747,213681,1270
1783771456818845206,2026-07-11T19:04:16.818+07:00,837086656838599041,229388,187861,213746,1354
1783771456837027024,2026-07-11T19:04:16.837+07:00,837086656838599041,229547,187997,213867,1379
1783771456855208842,2026-07-11T19:04:16.855+07:00,837086656838599041,229673,188077,214007,1366
1783771456873390660,2026-07-11T19:04:16.873+07:00,837086656838599041,229862,188271,214219,1315
1783771456891572478,2026-07-11T19:04:16.891+07:00,837086656838599041,230094,188500,214479,1394
1783771456909754296,2026-07-11T19:04:16.909+07:00,837086656838599041,230265,188635,214658,1334
1783771456927936114,2026-07-11T19:04:16.927+07:00,837086656838599041,230495,188889,214862,1296
1783771456946117932,2026-07-11T19:04:16.946+07:00,837086656838599041,230650,189030,215079,1323
1783771456964299750,2026-07-11T19:04:16.964+07:00,837086656838599041,230610,188988,214987,1303
1783771456982481568,2026-07-11T19:04:16.982+07:00,837086656838599041,230302,188748,214639,1340
1783771457000663386,2026-07-11T19:04:17.000+07:00,837086656838599041,229905,188391,214319,1334
1783771457018845204,2026-07-11T19:04:17.018+07:00,837086656838599041,229507,188052,213923,1359
1783771457037027022,2026-07-11T19:04:17.037+07:00,837086656838599041,229089,187680,213597,1379
1783771457055208840,2026-07-11T19:04:17.055+07:00,837086656838599041,228846,187504,213398,1320
1783771457073390658,2026-07-11T19:04:17.073+07:00,837086656838599041,228715,187393,213274,1332
1783771457091572476,2026-07-11T19:04:17.091+07:00,837086656838599041,228728,187363,213264,1374
1783771457109754294,2026-07-11T19:04:17.109+07:00,837086656838599041,228774,187467,213341,1377
1783771457127936112,2026-07-11T19:04:17.127+07:00,837086656838599041,228852,187536,213456,1368
1783771457146117930,2026-07-11T19:04:17.146+07:00,837086656838599041,228976,187617,213597,1391
1783771457164299748,2026-07-11T19:04:17.164+07:00,837086656838599041,229109,187811,213736,1316
1783771457182481566,2026-07-11T19:04:17.182+07:00,837086656838599041,229287,187961,213946,1338
1783771457200663384,2026-07-11T19:04:17.200+07:00,837086656838599041,229476,188104,214112,1311
1783771457218845202,2026-07-11T19:04:17.218+07:00,837086657511803234,229593,188189,214241,1241
1783771457237027020,2026-07-11T19:04:17.237+07:00,837086657511803234,229752,188404,214411,1353
1783771457255208838,2026-07-11T19:04:17.255+07:00,837086657511803234,229792,188422,214462,1321
1783771457273390656,2026-07-11T19:04:17.273+07:00,837086657511803234,229912,188554,214578,1324
1783771457291572474,2026-07-11T19:04:17.291+07:00,837086657511803234,229953,188589,214600,1327
1783771457309754292,2026-07-11T19:04:17.309+07:00,837086657511803234,230007,188670,214641,1297
1783771457327936110,2026-07-11T19:04:17.327+07:00,837086657511803234,230153,188766,214765,1319
1783771457346117928,2026-07-11T19:04:17.346+07:00,837086657511803234,230220,188853,214863,1310
1783771457364299746,2026-07-11T19:04:17.364+07:00,837086657511803234,230345,188934,214980,1326
1783771457382481564,2026-07-11T19:04:17.382+07:00,837086657511803234,230498,189049,215117,1292
1783771457400663382,2026-07-11T19:04:17.400+07:00,837086657511803234,230648,189199,215241,1307
1783771457418845200,2026-07-11T19:04:17.418+07:00,837086657511803234,230842,189361,215444,1296
1783771457437027018,2026-07-11T19:04:17.437+07:00,837086657511803234,231024,189486,215622,1299
1783771457455208836,2026-07-11T19:04:17.455+07:00,837086657511803234,231078,189565,215637,1307
1783771457473390654,2026-07-11T19:04:17.473+07:00,837086657511803234,230916,189471,215407,1341
1783771457491572472,2026-07-11T19:04:17.491+07:00,837086657511803234,230637,189114,215063,1345
1783771457509754290,2026-07-11T19:04:17.509+07:00,837086657511803234,230203,188718,214581,1299
1783771457527936108,2026-07-11T19:04:17.527+07:00,837086657511803234,229683,188360,214137,1277
1783771457546117926,2026-07-11T19:04:17.546+07:00,837086657511803234,229394,188060,213805,1315
1783771457564299744,2026-07-11T19:04:17.564+07:00,837086657511803234,229127,187877,213611,1313
1783771457582481562,2026-07-11T19:04:17.582+07:00,837086657511803234,228938,187753,213500,1345
1783771457600663380,2026-07-11T19:04:17.600+07:00,837086657511803234,228876,187650,213414,1309
1783771457618845198,2026-07-11T19:04:17.618+07:00,837086657511803234,228927,187688,213498,1302
1783771457637027016,2026-07-11T19:04:17.637+07:00,837086657511803234,229025,187759,213549,1324
1783771457655208834,2026-07-11T19:04:17.655+07:00,837086657511803234,229156,187861,213697,1339
1783771457673390652,2026-07-11T19:04:17.673+07:00,837086657511803234,229268,187943,213780,1316
1783771457691572470,2026-07-11T19:04:17.691+07:00,837086657511803234,229366,188030,213904,1318
1783771457709754288,2026-07-11T19:04:17.709+07:00,837086657511803234,229556,188140,214057,1338
1783771457727936106,2026-07-11T19:04:17.727+07:00,837086657511803234,229601,188259,214109,1320
1783771457746117924,2026-07-11T19:04:17.746+07:00,837086657511803234,229719,188335,214223,1355
1783771457764299742,2026-07-11T19:04:17.764+07:00,837086657511803234,229715,188363,214173,1291
1783771457782481560,2026-07-11T19:04:17.782+07:00,837086657511803234,229742,188401,214257,1288
1783771457800663378,2026-07-11T19:04:17.800+07:00,837086657511803234,229894,188504,214383,1355
1783771457818845196,2026-07-11T19:04:17.818+07:00,837086657511803234,229908,188578,214460,1317
1783771457837027014,2026-07-11T19:04:17.837+07:00,837086657511803234,230003,188602,214461,1273
1783771457855208832,2026-07-11T19:04:17.855+07:00,837086657511803234,230142,188731,214572,1284
1783771457873390650,2026-07-11T19:04:17.873+07:00,837086657511803234,230225,188786,214689,1299
1783771457891572468,2026-07-11T19:04:17.891+07:00,837086658276007522,230381,188974,214803,1318
1783771457909754286,2026-07-11T19:04:17.909+07:00,837086658276007522,230565,189045,214922,1337
1783771457927936104,2026-07-11T19:04:17.927+07:00,837086658276007522,230721,189251,215128,1345
1783771457946117922,2026-07-11T19:04:17.946+07:00,837086658276007522,230851,189355,215209,1392
1783771457964299740,2026-07-11T19:04:17.964+07:00,837086658276007522,230778,189281,215138,1331
1783771457982481558,2026-07-11T19:04:17.982+07:00,837086658276007522,230588,189024,214873,1371
1783771458000663376,2026-07-11T19:04:18.000+07:00,837086658276007522,230187,188711,214470,1310
1783771458018845194,2026-07-11T19:04:18.018+07:00,837086658276007522,229767,188447,214096,1343
1783771458037027012,2026-07-11T19:04:18.037+07:00,837086658276007522,229464,188141,213844,1400
1783771458055208830,2026-07-11T19:04:18.055+07:00,837086658276007522,229192,187933,213667,1315
1783771458073390648,2026-07-11T19:04:18.073+07:00,837086658276007522,229031,187793,213530,1333
1783771458091572466,2026-07-11T19:04:18.091+07:00,837086658276007522,228984,187773,213411,1286
1783771458109754284,2026-07-11T19:04:18.109+07:00,837086658276007522,229047,187730,213463,1339
1783771458127936102,2026-07-11T19:04:18.127+07:00,837086658276007522,229129,187918,213622,1352
1783771458146117920,2026-07-11T19:04:18.146+07:00,837086658276007522,229098,187871,213657,1349
1783771458164299738,2026-07-11T19:04:18.164+07:00,837086658276007522,229272,187979,213789,1369
1783771458182481556,2026-07-11T19:04:18.182+07:00,837086658276007522,229422,188087,213862,1341
1783771458200663374,2026-07-11T19:04:18.200+07:00,837086658276007522,229573,188186,213982,1360
1783771458218845192,2026-07-11T19:04:18.218+07:00,837086658276007522,229587,188246,213998,1348
1783771458237027010,2026-07-11T19:04:18.237+07:00,837086658276007522,229757,188349,214125,1371
1783771458255208828,2026-07-11T19:04:18.255+07:00,837086658276007522,229743,188409,214118,1384
1783771458273390646,2026-07-11T19:04:18.273+07:00,837086658276007522,229773,188436,214165,1321
1783771458291572464,2026-07-11T19:04:18.291+07:00,837086658276007522,229811,188434,214233,1319
1783771458309754282,2026-07-11T19:04:18.309+07:00,837086658276007522,229852,188521,214276,1340
1783771458327936100,2026-07-11T19:04:18.327+07:00,837086658276007522,229860,188588,214349,1343
1783771458346117918,2026-07-11T19:04:18.346+07:00,837086658276007522,230042,188715,214492,1344
1783771458364299736,2026-07-11T19:04:18.364+07:00,837086658276007522,230125,188780,214623,1348
1783771458382481554,2026-07-11T19:04:18.382+07:00,837086658276007522,230303,188943,214739,1353
1783771458400663372,2026-07-11T19:04:18.400+07:00,837086658276007522,230510,189039,214862,1383
1783771458418845190,2026-07-11T19:04:18.418+07:00,837086658276007522,230640,189193,215061,1320
1783771458437027008,2026-07-11T19:04:18.437+07:00,837086658276007522,230713,189251,215117,1337
1783771458455208826,2026-07-11T19:04:18.455+07:00,837086658276007522,230570,189159,214984,1314
1783771458473390644,2026-07-11T19:04:18.473+07:00,837086658276007522,230340,188929,214723,1338
1783771458491572462,2026-07-11T19:04:18.491+07:00,837086658276007522,229996,188680,214424,1332
1783771458509754280,2026-07-11T19:04:18.509+07:00,837086658276007522,229656,188442,214180,1396
1783771458527936098,2026-07-11T19:04:18.527+07:00,837086658276007522,229389,188246,213942,1360
1783771458546117916,2026-07-11T19:04:18.546+07:00,837086658276007522,229220,188129,213863,1338
1783771458564299734,2026-07-11T19:04:18.564+07:00,837086658276007522,229074,188064,213818,1272
1783771458582481552,2026-07-11T19:04:18.582+07:00,837086658276007522,229125,188127,213893,1307
1783771458600663370,2026-07-11T19:04:18.600+07:00,837086658276007522,229204,188102,214010,1292
1783771458618845188,2026-07-11T19:04:18.618+07:00,837086658276007522,229333,188177,214077,1292
1783771458637027006,2026-07-11T19:04:18.637+07:00,837086658276007522,229457,188331,214250,1309
1783771458655208824,2026-07-11T19:04:18.655+07:00,837086659040220966,229543,188470,214340,1306
1783771458673390642,2026-07-11T19:04:18.673+07:00,837086659040220966,229723,188615,214494,1288
1783771458691572460,2026-07-11T19:04:18.691+07:00,837086659040220966,229870,188707,214657,1338
1783771458709754278,2026-07-11T19:04:18.709+07:00,837086659040220966,229964,188832,214846,1354
1783771458727936096,2026-07-11T19:04:18.727+07:00,837086659040220966,230029,188873,214862,1335
1783771458746117914,2026-07-11T19:04:18.746+07:00,837086659040220966,230098,188912,214876,1343
1783771458764299732,2026-07-11T19:04:18.764+07:00,837086659040220966,230205,189063,215047,1337
1783771458782481550,2026-07-11T19:04:18.782+07:00,837086659040220966,230283,189165,215209,1333
1783771458800663368,2026-07-11T19:04:18.800+07:00,837086659040220966,230387,189294,215351,1331
1783771458818845186,2026-07-11T19:04:18.818+07:00,837086659040220966,230529,189491,215497,1412
1783771458837027004,2026-07-11T19:04:18.837+07:00,837086659040220966,230624,189518,215572,1327
1783771458855208822,2026-07-11T19:04:18.855+07:00,837086659040220966,230741,189640,215795,1317
1783771458873390640,2026-07-11T19:04:18.873+07:00,837086659040220966,230971,189866,215992,1369
1783771458891572458,2026-07-11T19:04:18.891+07:00,837086659040220966,231223,190015,216227,1305
1783771458909754276,2026-07-11T19:04:18.909+07:00,837086659040220966,231267,190125,216338,1314
1783771458927936094,2026-07-11T19:04:18.927+07:00,837086659040220966,231295,190127,216278,1339
1783771458946117912,2026-07-11T19:04:18.946+07:00,837086659040220966,231091,189997,216158,1357
1783771458964299730,2026-07-11T19:04:18.964+07:00,837086659040220966,230783,189815,215958,1333
1783771458982481548,2026-07-11T19:04:18.982+07:00,837086659040220966,230542,189594,215756,1352
1783771459000663366,2026-07-11T19:04:19.000+07:00,837086659040220966,230258,189414,215507,1386
1783771459018845184,2026-07-11T19:04:19.018+07:00,837086659040220966,230184,189378,215554,1379
1783771459037027002,2026-07-11T19:04:19.037+07:00,837086659040220966,230092,189287,215505,1310
1783771459055208820,2026-07-11T19:04:19.055+07:00,837086659040220966,230134,189374,215538,1286
1783771459073390638,2026-07-11T19:04:19.073+07:00,837086659040220966,230184,189468,215626,1358
1783771459091572456,2026-07-11T19:04:19.091+07:00,837086659040220966,230311,189494,215692,1353
1783771459109754274,2026-07-11T19:04:19.109+07:00,837086659040220966,230422,189589,215862,1333
1783771459127936092,2026-07-11T19:04:19.127+07:00,837086659040220966,230536,189744,216028,1342
1783771459146117910,2026-07-11T19:04:19.146+07:00,837086659040220966,230621,189874,216167,1325
1783771459164299728,2026-07-11T19:04:19.164+07:00,837086659040220966,230692,189947,216261,1281
1783771459182481546,2026-07-11T19:04:19.182+07:00,837086659040220966,230867,190081,216410,1287
1783771459200663364,2026-07-11T19:04:19.200+07:00,837086659040220966,231018,190206,216543,1330
1783771459218845182,2026-07-11T19:04:19.218+07:00,837086659040220966,231071,190294,216595,1284
1783771459237027000,2026-07-11T19:04:19.237+07:00,837086659040220966,231206,190398,216751,1316
1783771459255208818,2026-07-11T19:04:19.255+07:00,837086659040220966,231277,190558,216872,1340
1783771459273390636,2026-07-11T19:04:19.273+07:00,837086659040220966,231385,190591,217013,1322
1783771459291572454,2026-07-11T19:04:19.291+07:00,837086659040220966,231550,190771,217205,1359
1783771459309754272,2026-07-11T19:04:19.309+07:00,837086659040220966,231669,190920,217347,1311
1783771459327936090,2026-07-11T19:04:19.327+07:00,837086659040220966,231852,191062,217493,1365
1783771459346117908,2026-07-11T19:04:19.346+07:00,837086659040220966,232061,191212,217691,1368
1783771459364299726,2026-07-11T19:04:19.364+07:00,837086659040220966,232199,191297,217831,1303
1783771459382481544,2026-07-11T19:04:19.382+07:00,837086659040220966,232295,191426,217932,1267
1783771459400663362,2026-07-11T19:04:19.400+07:00,837086659040220966,232293,191497,217977,1325
1783771459418845180,2026-07-11T19:04:19.418+07:00,837086659804373374,232118,191315,217830,1296
1783771459437026998,2026-07-11T19:04:19.437+07:00,837086659804373374,231857,191174,217651,1317
1783771459455208816,2026-07-11T19:04:19.455+07:00,837086659804373374,231702,191023,217444,1347
1783771459473390634,2026-07-11T19:04:19.473+07:00,837086659804373374,231470,190807,217281,1292
1783771459491572452,2026-07-11T19:04:19.491+07:00,837086659804373374,231286,190698,217195,1302
1783771459509754270,2026-07-11T19:04:19.509+07:00,837086659804373374,231197,190625,217113,1303
1783771459527936088,2026-07-11T19:04:19.527+07:00,837086659804373374,231199,190676,217166,1388
1783771459546117906,2026-07-11T19:04:19.546+07:00,837086659804373374,231202,190675,217237,1347
1783771459564299724,2026-07-11T19:04:19.564+07:00,837086659804373374,231319,190703,217214,1332
1783771459582481542,2026-07-11T19:04:19.582+07:00,837086659804373374,231307,190673,217253,1305
1783771459600663360,2026-07-11T19:04:19.600+07:00,837086659804373374,231427,190788,217394,1310
1783771459618845178,2026-07-11T19:04:19.618+07:00,837086659804373374,231534,190880,217490,1359
1783771459637026996,2026-07-11T19:04:19.637+07:00,837086659804373374,231679,191006,217571,1345
1783771459655208814,2026-07-11T19:04:19.655+07:00,837086659804373374,231716,191123,217659,1404
1783771459673390632,2026-07-11T19:04:19.673+07:00,837086659804373374,231798,191118,217727,1287
1783771459691572450,2026-07-11T19:04:19.691+07:00,837086659804373374,231860,191146,217769,1280
1783771459709754268,2026-07-11T19:04:19.709+07:00,837086659804373374,231951,191214,217875,1308
1783771459727936086,2026-07-11T19:04:19.727+07:00,837086659804373374,231996,191273,217897,1296
1783771459746117904,2026-07-11T19:04:19.746+07:00,837086659804373374,232078,191380,218042,1338
1783771459764299722,2026-07-11T19:04:19.764+07:00,837086659804373374,232086,191425,218024,1322
1783771459782481540,2026-07-11T19:04:19.782+07:00,837086659804373374,232187,191466,218139,1309
1783771459800663358,2026-07-11T19:04:19.800+07:00,837086659804373374,232360,191545,218209,1263
1783771459818845176,2026-07-11T19:04:19.818+07:00,837086659804373374,232481,191654,218301,1263
1783771459837026994,2026-07-11T19:04:19.837+07:00,837086659804373374,232607,191844,218482,1326
1783771459855208812,2026-07-11T19:04:19.855+07:00,837086659804373374,232718,191902,218653,1334
1783771459873390630,2026-07-11T19:04:19.873+07:00,837086659804373374,232771,192010,218674,1325
1783771459891572448,2026-07-11T19:04:19.891+07:00,837086659804373374,232671,191926,218539,1326
1783771459909754266,2026-07-11T19:04:19.909+07:00,837086659804373374,232428,191717,218260,1283
1783771459927936084,2026-07-11T19:04:19.927+07:00,837086659804373374,232214,191460,217986,1311
1783771459946117902,2026-07-11T19:04:19.946+07:00,837086659804373374,231944,191268,217747,1308
1783771459964299720,2026-07-11T19:04:19.964+07:00,837086659804373374,231725,191057,217555,1323
1783771459982481538,2026-07-11T19:04:19.982+07:00,837086659804373374,231548,190930,217431,1374
1783771460000663356,2026-07-11T19:04:20.000+07:00,837086659804373374,231444,190895,217363,1333
1783771460018845174,2026-07-11T19:04:20.018+07:00,837086659804373374,231407,190859,217381,1348
1783771460037026992,2026-07-11T19:04:20.037+07:00,837086659804373374,231409,190823,217388,1315
1783771460055208810,2026-07-11T19:04:20.055+07:00,837086659804373374,231395,190812,217313,1281
1783771460073390628,2026-07-11T19:04:20.073+07:00,837086659804373374,231515,190903,217436,1345
1783771460091572446,2026-07-11T19:04:20.091+07:00,837086659804373374,231566,190925,217461,1323
1783771460109754264,2026-07-11T19:04:20.109+07:00,837086659804373374,231672,190968,217510,1345
1783771460127936082,2026-07-11T19:04:20.127+07:00,837086659804373374,231684,190939,217495,1285
1783771460146117900,2026-07-11T19:04:20.146+07:00,837086659804373374,231729,191033,217486,1273
1783771460164299718,2026-07-11T19:04:20.164+07:00,837086659804373374,231798,191027,217540,1331
1783771460182481536,2026-07-11T19:04:20.182+07:00,837086660586720613,231751,190994,217492,1313
1783771460200663354,2026-07-11T19:04:20.200+07:00,837086660586720613,231831,191038,217532,1282
1783771460218845172,2026-07-11T19:04:20.218+07:00,837086660586720613,231796,191004,217475,1284
1783771460237026990,2026-07-11T19:04:20.237+07:00,837086660586720613,231879,191017,217529,1327
1783771460255208808,2026-07-11T19:04:20.255+07:00,837086660586720613,231903,191066,217514,1300
1783771460273390626,2026-07-11T19:04:20.273+07:00,837086660586720613,231940,191105,217544,1304
1783771460291572444,2026-07-11T19:04:20.291+07:00,837086660586720613,231999,191194,217576,1247
1783771460309754262,2026-07-11T19:04:20.309+07:00,837086660586720613,232110,191257,217702,1336
1783771460327936080,2026-07-11T19:04:20.327+07:00,837086660586720613,232164,191261,217713,1337
1783771460346117898,2026-07-11T19:04:20.346+07:00,837086660586720613,232330,191400,217838,1390
1783771460364299716,2026-07-11T19:04:20.364+07:00,837086660586720613,232306,191380,217826,1283
1783771460382481534,2026-07-11T19:04:20.382+07:00,837086660586720613,232258,191183,217677,1330
1783771460400663352,2026-07-11T19:04:20.400+07:00,837086660586720613,231951,190963,217384,1340
1783771460418845170,2026-07-11T19:04:20.418+07:00,837086660586720613,231637,190696,217133,1334
1783771460437026988,2026-07-11T19:04:20.437+07:00,837086660586720613,231371,190386,216764,1352
1783771460455208806,2026-07-11T19:04:20.455+07:00,837086660586720613,231151,190172,216532,1324
1783771460473390624,2026-07-11T19:04:20.473+07:00,837086660586720613,230925,190054,216304,1306
1783771460491572442,2026-07-11T19:04:20.491+07:00,837086660586720613,230815,189947,216194,1246
1783771460509754260,2026-07-11T19:04:20.509+07:00,837086660586720613,230826,189913,216125,1343
1783771460527936078,2026-07-11T19:04:20.527+07:00,837086660586720613,230801,189849,216132,1325
1783771460546117896,2026-07-11T19:04:20.546+07:00,837086660586720613,230787,189857,216136,1288
1783771460564299714,2026-07-11T19:04:20.564+07:00,837086660586720613,230798,189845,216117,1284
1783771460582481532,2026-07-11T19:04:20.582+07:00,837086660586720613,230860,189886,216132,1266
1783771460600663350,2026-07-11T19:04:20.600+07:00,837086660586720613,230869,189910,216203,1271
1783771460618845168,2026-07-11T19:04:20.618+07:00,837086660586720613,230839,189787,216207,1285
1783771460637026986,2026-07-11T19:04:20.637+07:00,837086660586720613,230911,189817,216158,1276
1783771460655208804,2026-07-11T19:04:20.655+07:00,837086660586720613,230953,189884,216188,1337
1783771460673390622,2026-07-11T19:04:20.673+07:00,837086660586720613,230949,189881,216145,1298
1783771460691572440,2026-07-11T19:04:20.691+07:00,837086660586720613,230986,189907,216213,1334
1783771460709754258,2026-07-11T19:04:20.709+07:00,837086660586720613,231004,189865,216172,1337
1783771460727936076,2026-07-11T19:04:20.727+07:00,837086660586720613,230984,189858,216185,1310
1783771460746117894,2026-07-11T19:04:20.746+07:00,837086660586720613,231048,189917,216205,1308
1783771460764299712,2026-07-11T19:04:20.764+07:00,837086660586720613,231194,189999,216281,1313
1783771460782481530,2026-07-11T19:04:20.782+07:00,837086660586720613,231199,190048,216332,1321
1783771460800663348,2026-07-11T19:04:20.800+07:00,837086660586720613,231284,190125,216426,1294
1783771460818845166,2026-07-11T19:04:20.818+07:00,837086660586720613,231368,190176,216486,1319
1783771460837026984,2026-07-11T19:04:20.837+07:00,837086660586720613,231512,190283,216555,1304
1783771460855208802,2026-07-11T19:04:20.855+07:00,837086660586720613,231487,190287,216517,1303
1783771460873390620,2026-07-11T19:04:20.873+07:00,837086660586720613,231389,190171,216376,1269
1783771460891572438,2026-07-11T19:04:20.891+07:00,837086660586720613,231111,189942,216199,1266
1783771460909754256,2026-07-11T19:04:20.909+07:00,837086660586720613,230851,189710,215877,1280
1783771460927936074,2026-07-11T19:04:20.927+07:00,837086660586720613,230635,189397,215607,1302
1783771460946117892,2026-07-11T19:04:20.946+07:00,837086660586720613,230468,189224,215454,1319
1783771460964299710,2026-07-11T19:04:20.964+07:00,837086661369040384,230382,189148,215326,1265
1783771460982481528,2026-07-11T19:04:20.982+07:00,837086661369040384,230290,189062,215159,1257
1783771461000663346,2026-07-11T19:04:21.000+07:00,837086661369040384,230314,189104,215227,1355
1783771461018845164,2026-07-11T19:04:21.018+07:00,837086661369040384,230287,189113,215280,1333
1783771461037026982,2026-07-11T19:04:21.037+07:00,837086661369040384,230317,189172,215257,1303
1783771461055208800,2026-07-11T19:04:21.055+07:00,837086661369040384,230360,189209,215281,1324
1783771461073390618,2026-07-11T19:04:21.073+07:00,837086661369040384,230391,189179,215330,1271
1783771461091572436,2026-07-11T19:04:21.091+07:00,837086661369040384,230459,189210,215346,1293
1783771461109754254,2026-07-11T19:04:21.109+07:00,837086661369040384,230566,189217,215375,1307
1783771461127936072,2026-07-11T19:04:21.127+07:00,837086661369040384,230605,189332,215412,1370
1783771461146117890,2026-07-11T19:04:21.146+07:00,837086661369040384,230645,189394,215407,1355
1783771461164299708,2026-07-11T19:04:21.164+07:00,837086661369040384,230670,189407,215422,1299
1783771461182481526,2026-07-11T19:04:21.182+07:00,837086661369040384,230677,189379,215393,1353
1783771461200663344,2026-07-11T19:04:21.200+07:00,837086661369040384,230672,189386,215455,1323
