host_timestamp_ns,host_timestamp_iso,pmd_timestamp,ppg0,ppg1,ppg2,ambient
1783265973801019200,2026-07-05T22:39:33.801+07:00,540127549108483071,-329432,-297713,-355159,-472886
1783265973819201018,2026-07-05T22:39:33.819+07:00,540127549108483071,-329614,-297850,-355215,-472899
1783265973837382836,2026-07-05T22:39:33.837+07:00,540127549108483071,-329926,-298119,-355412,-472901
1783265973855564654,2026-07-05T22:39:33.855+07:00,540127549108483071,-330241,-298523,-355705,-472848
1783265973873746472,2026-07-05T22:39:33.873+07:00,540127549108483071,-330602,-299067,-356122,-472854
1783265973891928290,2026-07-05T22:39:33.891+07:00,540127549108483071,-330975,-299458,-356482,-472933
1783265973910110109,2026-07-05T22:39:33.910+07:00,540127549108483071,-331232,-299806,-356699,-472863
1783265973928291927,2026-07-05T22:39:33.928+07:00,540127549108483071,-331487,-300066,-356931,-472852
1783265973946473745,2026-07-05T22:39:33.946+07:00,540127549108483071,-331689,-300344,-357131,-472928
1783265973964655563,2026-07-05T22:39:33.964+07:00,540127549108483071,-331852,-300492,-357306,-472878
1783265973982837381,2026-07-05T22:39:33.982+07:00,540127549108483071,-331958,-300572,-357411,-472854
1783265974001019200,2026-07-05T22:39:34.001+07:00,540127549108483071,-332071,-300661,-357493,-472860
1783265974019201018,2026-07-05T22:39:34.019+07:00,540127549108483071,-332104,-300702,-357508,-472887
1783265974037382836,2026-07-05T22:39:34.037+07:00,540127549108483071,-332080,-300685,-357486,-472849
1783265974055564654,2026-07-05T22:39:34.055+07:00,540127549108483071,-332053,-300721,-357507,-472869
1783265974073746472,2026-07-05T22:39:34.073+07:00,540127549108483071,-332138,-300814,-357536,-472898
1783265974091928290,2026-07-05T22:39:34.091+07:00,540127549108483071,-332130,-300751,-357566,-472819
1783265974110110109,2026-07-05T22:39:34.110+07:00,540127549108483071,-332254,-300843,-357613,-472858
1783265974128291927,2026-07-05T22:39:34.128+07:00,540127549108483071,-332266,-300864,-357663,-472853
1783265974146473745,2026-07-05T22:39:34.146+07:00,540127549108483071,-332284,-300881,-357679,-472931
1783265974164655563,2026-07-05T22:39:34.164+07:00,540127549108483071,-332322,-300910,-357731,-472894
1783265974182837381,2026-07-05T22:39:34.182+07:00,540127549108483071,-332261,-300877,-357731,-472882
1783265974201019200,2026-07-05T22:39:34.201+07:00,540127549108483071,-332284,-300860,-357733,-472897
1783265974219201018,2026-07-05T22:39:34.219+07:00,540127549108483071,-332200,-300756,-357699,-472885
1783265974237382836,2026-07-05T22:39:34.237+07:00,540127549108483071,-332129,-300627,-357548,-472834
1783265974255564654,2026-07-05T22:39:34.255+07:00,540127549108483071,-332049,-300536,-357527,-472829
1783265974273746472,2026-07-05T22:39:34.273+07:00,540127549108483071,-331946,-300456,-357456,-472865
1783265974291928290,2026-07-05T22:39:34.291+07:00,540127549108483071,-331844,-300378,-357311,-472830
1783265974310110109,2026-07-05T22:39:34.310+07:00,540127549108483071,-331752,-300325,-357322,-472896
1783265974328291927,2026-07-05T22:39:34.328+07:00,540127549108483071,-331569,-300141,-357161,-472871
1783265974346473745,2026-07-05T22:39:34.346+07:00,540127549108483071,-331567,-300073,-357106,-472856
1783265974364655563,2026-07-05T22:39:34.364+07:00,540127549108483071,-331373,-299869,-357003,-472815
1783265974382837381,2026-07-05T22:39:34.382+07:00,540127549108483071,-331298,-299729,-356873,-472856
1783265974401019200,2026-07-05T22:39:34.401+07:00,540127549108483071,-331210,-299565,-356752,-472903
1783265974419201018,2026-07-05T22:39:34.419+07:00,540127549108483071,-331112,-299422,-356636,-472913
1783265974437382836,2026-07-05T22:39:34.437+07:00,540127549108483071,-330961,-299267,-356514,-472873
1783265974455564654,2026-07-05T22:39:34.455+07:00,540127549108483071,-330841,-299139,-356409,-472884
1783265974464692400,2026-07-05T22:39:34.464+07:00,540127549799798171,-330720,-298970,-356292,-472874
1783265974482874218,2026-07-05T22:39:34.482+07:00,540127549799798171,-330571,-298831,-356237,-472954
1783265974501056036,2026-07-05T22:39:34.501+07:00,540127549799798171,-330367,-298642,-356081,-472937
1783265974519237854,2026-07-05T22:39:34.519+07:00,540127549799798171,-330234,-298489,-355975,-472888
1783265974537419672,2026-07-05T22:39:34.537+07:00,540127549799798171,-330032,-298280,-355794,-472902
1783265974555601490,2026-07-05T22:39:34.555+07:00,540127549799798171,-329891,-298144,-355710,-472913
1783265974573783309,2026-07-05T22:39:34.573+07:00,540127549799798171,-329779,-297953,-355545,-472931
1783265974591965127,2026-07-05T22:39:34.591+07:00,540127549799798171,-329596,-297716,-355397,-472853
1783265974610146945,2026-07-05T22:39:34.610+07:00,540127549799798171,-329573,-297697,-355346,-472905
1783265974628328763,2026-07-05T22:39:34.628+07:00,540127549799798171,-329707,-297843,-355468,-472891
1783265974646510581,2026-07-05T22:39:34.646+07:00,540127549799798171,-330022,-298182,-355707,-472869
1783265974664692400,2026-07-05T22:39:34.664+07:00,540127549799798171,-330449,-298731,-356119,-472945
1783265974682874218,2026-07-05T22:39:34.682+07:00,540127549799798171,-330902,-299216,-356450,-472869
1783265974701056036,2026-07-05T22:39:34.701+07:00,540127549799798171,-331208,-299632,-356801,-472928
1783265974719237854,2026-07-05T22:39:34.719+07:00,540127549799798171,-331542,-300048,-357053,-472864
1783265974737419672,2026-07-05T22:39:34.737+07:00,540127549799798171,-331809,-300358,-357291,-472833
1783265974755601490,2026-07-05T22:39:34.755+07:00,540127549799798171,-332121,-300651,-357553,-472823
1783265974773783309,2026-07-05T22:39:34.773+07:00,540127549799798171,-332395,-300948,-357787,-472887
1783265974791965127,2026-07-05T22:39:34.791+07:00,540127549799798171,-332578,-301181,-357977,-472909
1783265974810146945,2026-07-05T22:39:34.810+07:00,540127549799798171,-332661,-301212,-358053,-472934
1783265974828328763,2026-07-05T22:39:34.828+07:00,540127549799798171,-332706,-301367,-358090,-472886
1783265974846510581,2026-07-05T22:39:34.846+07:00,540127549799798171,-332719,-301405,-358156,-472881
1783265974864692400,2026-07-05T22:39:34.864+07:00,540127549799798171,-332785,-301476,-358238,-472883
1783265974882874218,2026-07-05T22:39:34.882+07:00,540127549799798171,-332757,-301509,-358253,-472871
1783265974901056036,2026-07-05T22:39:34.901+07:00,540127549799798171,-332869,-301557,-358325,-472884
1783265974919237854,2026-07-05T22:39:34.919+07:00,540127549799798171,-332879,-301583,-358357,-472884
1783265974937419672,2026-07-05T22:39:34.937+07:00,540127549799798171,-332937,-301625,-358352,-472844
1783265974955601490,2026-07-05T22:39:34.955+07:00,540127549799798171,-333009,-301676,-358438,-472885
1783265974973783309,2026-07-05T22:39:34.973+07:00,540127549799798171,-332948,-301703,-358396,-472890
1783265974991965127,2026-07-05T22:39:34.991+07:00,540127549799798171,-332968,-301691,-358419,-472848
1783265975010146945,2026-07-05T22:39:35.010+07:00,540127549799798171,-332974,-301696,-358383,-472824
1783265975028328763,2026-07-05T22:39:35.028+07:00,540127549799798171,-332939,-301636,-358368,-472876
1783265975046510581,2026-07-05T22:39:35.046+07:00,540127549799798171,-332898,-301555,-358273,-472896
1783265975064692400,2026-07-05T22:39:35.064+07:00,540127549799798171,-332747,-301470,-358216,-472899
1783265975082874218,2026-07-05T22:39:35.082+07:00,540127549799798171,-332701,-301320,-358151,-472817
1783265975101056036,2026-07-05T22:39:35.101+07:00,540127549799798171,-332628,-301273,-358036,-472877
1783265975119237854,2026-07-05T22:39:35.119+07:00,540127549799798171,-332493,-301182,-357880,-472850
1783265975137419672,2026-07-05T22:39:35.137+07:00,540127549799798171,-332471,-301107,-357876,-472928
1783265975141352900,2026-07-05T22:39:35.141+07:00,540127550563942951,-332298,-300907,-357765,-472869
1783265975159534718,2026-07-05T22:39:35.159+07:00,540127550563942951,-332222,-300780,-357705,-472859
1783265975177716536,2026-07-05T22:39:35.177+07:00,540127550563942951,-332041,-300627,-357591,-472873
1783265975195898354,2026-07-05T22:39:35.195+07:00,540127550563942951,-331982,-300531,-357514,-472885
1783265975214080172,2026-07-05T22:39:35.214+07:00,540127550563942951,-331835,-300369,-357346,-472900
1783265975232261990,2026-07-05T22:39:35.232+07:00,540127550563942951,-331715,-300218,-357266,-472947
1783265975250443809,2026-07-05T22:39:35.250+07:00,540127550563942951,-331521,-299982,-357125,-472835
1783265975268625627,2026-07-05T22:39:35.268+07:00,540127550563942951,-331456,-299842,-356986,-472875
1783265975286807445,2026-07-05T22:39:35.286+07:00,540127550563942951,-331294,-299661,-356837,-472848
1783265975304989263,2026-07-05T22:39:35.304+07:00,540127550563942951,-331174,-299521,-356724,-472860
1783265975323171081,2026-07-05T22:39:35.323+07:00,540127550563942951,-330983,-299384,-356622,-472861
1783265975341352900,2026-07-05T22:39:35.341+07:00,540127550563942951,-330862,-299220,-356528,-472887
1783265975359534718,2026-07-05T22:39:35.359+07:00,540127550563942951,-330628,-298980,-356346,-472832
1783265975377716536,2026-07-05T22:39:35.377+07:00,540127550563942951,-330419,-298775,-356170,-472844
1783265975395898354,2026-07-05T22:39:35.395+07:00,540127550563942951,-330255,-298549,-355931,-472868
1783265975414080172,2026-07-05T22:39:35.414+07:00,540127550563942951,-330044,-298347,-355777,-472845
1783265975432261990,2026-07-05T22:39:35.432+07:00,540127550563942951,-329843,-298073,-355565,-472834
1783265975450443809,2026-07-05T22:39:35.450+07:00,540127550563942951,-329860,-298063,-355586,-472892
1783265975468625627,2026-07-05T22:39:35.468+07:00,540127550563942951,-329954,-298224,-355617,-472901
1783265975486807445,2026-07-05T22:39:35.486+07:00,540127550563942951,-330203,-298470,-355845,-472897
1783265975504989263,2026-07-05T22:39:35.504+07:00,540127550563942951,-330670,-298972,-356251,-472921
1783265975523171081,2026-07-05T22:39:35.523+07:00,540127550563942951,-331069,-299442,-356566,-472927
1783265975541352900,2026-07-05T22:39:35.541+07:00,540127550563942951,-331414,-299896,-356920,-472827
1783265975559534718,2026-07-05T22:39:35.559+07:00,540127550563942951,-331777,-300315,-357207,-472836
1783265975577716536,2026-07-05T22:39:35.577+07:00,540127550563942951,-332118,-300682,-357489,-472902
1783265975595898354,2026-07-05T22:39:35.595+07:00,540127550563942951,-332359,-300980,-357714,-472883
1783265975614080172,2026-07-05T22:39:35.614+07:00,540127550563942951,-332587,-301258,-357884,-472832
1783265975632261990,2026-07-05T22:39:35.632+07:00,540127550563942951,-332886,-301485,-358175,-472869
1783265975650443809,2026-07-05T22:39:35.650+07:00,540127550563942951,-332952,-301573,-358196,-472823
1783265975668625627,2026-07-05T22:39:35.668+07:00,540127550563942951,-333048,-301652,-358252,-472790
1783265975686807445,2026-07-05T22:39:35.686+07:00,540127550563942951,-333159,-301728,-358344,-472845
1783265975704989263,2026-07-05T22:39:35.704+07:00,540127550563942951,-333128,-301743,-358371,-472850
1783265975723171081,2026-07-05T22:39:35.723+07:00,540127550563942951,-333149,-301801,-358408,-472900
1783265975741352900,2026-07-05T22:39:35.741+07:00,540127550563942951,-333255,-301889,-358474,-472852
1783265975759534718,2026-07-05T22:39:35.759+07:00,540127550563942951,-333298,-301990,-358547,-472905
1783265975777716536,2026-07-05T22:39:35.777+07:00,540127550563942951,-333377,-301975,-358532,-472825
1783265975795898354,2026-07-05T22:39:35.795+07:00,540127550563942951,-333380,-302049,-358559,-472813
1783265975814080172,2026-07-05T22:39:35.814+07:00,540127550563942951,-333401,-302114,-358617,-472813
1783265975832261990,2026-07-05T22:39:35.832+07:00,540127550563942951,-333449,-302049,-358623,-472805
1783265975850443809,2026-07-05T22:39:35.850+07:00,540127550563942951,-333432,-302112,-358650,-472858
1783265975868625627,2026-07-05T22:39:35.868+07:00,540127550563942951,-333332,-301984,-358549,-472819
1783265975886807445,2026-07-05T22:39:35.886+07:00,540127550563942951,-333248,-301904,-358514,-472841
1783265975902148000,2026-07-05T22:39:35.902+07:00,540127551255323663,-333309,-301823,-358421,-472881
1783265975920329818,2026-07-05T22:39:35.920+07:00,540127551255323663,-333152,-301744,-358345,-472916
1783265975938511636,2026-07-05T22:39:35.938+07:00,540127551255323663,-333127,-301617,-358265,-472860
1783265975956693454,2026-07-05T22:39:35.956+07:00,540127551255323663,-333093,-301522,-358198,-472823
1783265975974875272,2026-07-05T22:39:35.974+07:00,540127551255323663,-333050,-301455,-358142,-472938
1783265975993057090,2026-07-05T22:39:35.993+07:00,540127551255323663,-332939,-301382,-358059,-472849
1783265976011238909,2026-07-05T22:39:36.011+07:00,540127551255323663,-332810,-301249,-358035,-472911
1783265976029420727,2026-07-05T22:39:36.029+07:00,540127551255323663,-332712,-301072,-357884,-472882
1783265976047602545,2026-07-05T22:39:36.047+07:00,540127551255323663,-332630,-300947,-357829,-472910
1783265976065784363,2026-07-05T22:39:36.065+07:00,540127551255323663,-332461,-300801,-357613,-472858
1783265976083966181,2026-07-05T22:39:36.083+07:00,540127551255323663,-332350,-300726,-357548,-472812
1783265976102148000,2026-07-05T22:39:36.102+07:00,540127551255323663,-332151,-300538,-357430,-472813
1783265976120329818,2026-07-05T22:39:36.120+07:00,540127551255323663,-332110,-300424,-357370,-472863
1783265976138511636,2026-07-05T22:39:36.138+07:00,540127551255323663,-331964,-300295,-357240,-472824
1783265976156693454,2026-07-05T22:39:36.156+07:00,540127551255323663,-331821,-300104,-357097,-472866
1783265976174875272,2026-07-05T22:39:36.174+07:00,540127551255323663,-331707,-299956,-357003,-472851
1783265976193057090,2026-07-05T22:39:36.193+07:00,540127551255323663,-331540,-299765,-356843,-472810
1783265976211238909,2026-07-05T22:39:36.211+07:00,540127551255323663,-331439,-299624,-356716,-472868
1783265976229420727,2026-07-05T22:39:36.229+07:00,540127551255323663,-331278,-299364,-356558,-472843
1783265976247602545,2026-07-05T22:39:36.247+07:00,540127551255323663,-331148,-299265,-356423,-472808
1783265976265784363,2026-07-05T22:39:36.265+07:00,540127551255323663,-331070,-299157,-356343,-472832
1783265976283966181,2026-07-05T22:39:36.283+07:00,540127551255323663,-331174,-299293,-356417,-472902
1783265976302148000,2026-07-05T22:39:36.302+07:00,540127551255323663,-331433,-299596,-356692,-472911
1783265976320329818,2026-07-05T22:39:36.320+07:00,540127551255323663,-331787,-300036,-357061,-472921
1783265976338511636,2026-07-05T22:39:36.338+07:00,540127551255323663,-332207,-300569,-357385,-472969
1783265976356693454,2026-07-05T22:39:36.356+07:00,540127551255323663,-332636,-301059,-357782,-472925
1783265976374875272,2026-07-05T22:39:36.374+07:00,540127551255323663,-332989,-301450,-358068,-472900
1783265976393057090,2026-07-05T22:39:36.393+07:00,540127551255323663,-333324,-301795,-358373,-472903
1783265976411238909,2026-07-05T22:39:36.411+07:00,540127551255323663,-333575,-302048,-358568,-472891
1783265976429420727,2026-07-05T22:39:36.429+07:00,540127551255323663,-333849,-302380,-358778,-472851
1783265976447602545,2026-07-05T22:39:36.447+07:00,540127551255323663,-334026,-302577,-358913,-472924
1783265976465784363,2026-07-05T22:39:36.465+07:00,540127551255323663,-334097,-302715,-359039,-472812
1783265976483966181,2026-07-05T22:39:36.483+07:00,540127551255323663,-334261,-302833,-359131,-472896
1783265976502148000,2026-07-05T22:39:36.502+07:00,540127551255323663,-334246,-302809,-359110,-472884
1783265976520329818,2026-07-05T22:39:36.520+07:00,540127551255323663,-334231,-302847,-359146,-472900
1783265976538511636,2026-07-05T22:39:36.538+07:00,540127551255323663,-334210,-302864,-359204,-472840
1783265976556693454,2026-07-05T22:39:36.556+07:00,540127551255323663,-334229,-302908,-359211,-472812
1783265976574875272,2026-07-05T22:39:36.574+07:00,540127551255323663,-334277,-302979,-359289,-472842
1783265976681362800,2026-07-05T22:39:36.681+07:00,540127551964914468,-334342,-303046,-359325,-472927
1783265976699544618,2026-07-05T22:39:36.699+07:00,540127551964914468,-334407,-303078,-359418,-472898
1783265976717726436,2026-07-05T22:39:36.717+07:00,540127551964914468,-334396,-303112,-359352,-472883
1783265976735908254,2026-07-05T22:39:36.735+07:00,540127551964914468,-334362,-303176,-359392,-472842
1783265976754090072,2026-07-05T22:39:36.754+07:00,540127551964914468,-334345,-303079,-359300,-472836
1783265976772271890,2026-07-05T22:39:36.772+07:00,540127551964914468,-334310,-303086,-359313,-472857
1783265976790453709,2026-07-05T22:39:36.790+07:00,540127551964914468,-334215,-302978,-359202,-472870
1783265976808635527,2026-07-05T22:39:36.808+07:00,540127551964914468,-334128,-302933,-359175,-472943
1783265976826817345,2026-07-05T22:39:36.826+07:00,540127551964914468,-334032,-302782,-359064,-472877
1783265976844999163,2026-07-05T22:39:36.844+07:00,540127551964914468,-334022,-302702,-359032,-472911
1783265976863180981,2026-07-05T22:39:36.863+07:00,540127551964914468,-333883,-302536,-358873,-472859
1783265976881362800,2026-07-05T22:39:36.881+07:00,540127551964914468,-333753,-302386,-358760,-472909
1783265976899544618,2026-07-05T22:39:36.899+07:00,540127551964914468,-333622,-302290,-358612,-472860
1783265976917726436,2026-07-05T22:39:36.917+07:00,540127551964914468,-333524,-302164,-358611,-472895
1783265976935908254,2026-07-05T22:39:36.935+07:00,540127551964914468,-333405,-301982,-358431,-472854
1783265976954090072,2026-07-05T22:39:36.954+07:00,540127551964914468,-333278,-301885,-358329,-472865
1783265976972271890,2026-07-05T22:39:36.972+07:00,540127551964914468,-333169,-301724,-358216,-472848
1783265976990453709,2026-07-05T22:39:36.990+07:00,540127551964914468,-332974,-301548,-358102,-472857
1783265977008635527,2026-07-05T22:39:37.008+07:00,540127551964914468,-332911,-301464,-358017,-472881
1783265977026817345,2026-07-05T22:39:37.026+07:00,540127551964914468,-332726,-301228,-357826,-472835
1783265977044999163,2026-07-05T22:39:37.044+07:00,540127551964914468,-332617,-301044,-357667,-472871
1783265977063180981,2026-07-05T22:39:37.063+07:00,540127551964914468,-332497,-300893,-357538,-472829
1783265977081362800,2026-07-05T22:39:37.081+07:00,540127551964914468,-332302,-300698,-357394,-472829
1783265977099544618,2026-07-05T22:39:37.099+07:00,540127551964914468,-332165,-300498,-357249,-472818
1783265977117726436,2026-07-05T22:39:37.117+07:00,540127551964914468,-332043,-300293,-357143,-472858
1783265977135908254,2026-07-05T22:39:37.135+07:00,540127551964914468,-331898,-300125,-356958,-472845
1783265977154090072,2026-07-05T22:39:37.154+07:00,540127551964914468,-331754,-299979,-356901,-472841
1783265977172271890,2026-07-05T22:39:37.172+07:00,540127551964914468,-331803,-300036,-356900,-472824
1783265977190453709,2026-07-05T22:39:37.190+07:00,540127551964914468,-332044,-300310,-357069,-472816
1783265977208635527,2026-07-05T22:39:37.208+07:00,540127551964914468,-332469,-300777,-357485,-472851
1783265977226817345,2026-07-05T22:39:37.226+07:00,540127551964914468,-332848,-301299,-357854,-472801
1783265977244999163,2026-07-05T22:39:37.244+07:00,540127551964914468,-333274,-301806,-358200,-472832
1783265977263180981,2026-07-05T22:39:37.263+07:00,540127551964914468,-333657,-302193,-358537,-472781
1783265977281362800,2026-07-05T22:39:37.281+07:00,540127551964914468,-334022,-302627,-358858,-472827
1783265977299544618,2026-07-05T22:39:37.299+07:00,540127551964914468,-334336,-302950,-359109,-472890
1783265977317726436,2026-07-05T22:39:37.317+07:00,540127551964914468,-334474,-303191,-359262,-472883
1783265977335908254,2026-07-05T22:39:37.335+07:00,540127551964914468,-334773,-303518,-359535,-472905
1783265977354090072,2026-07-05T22:39:37.354+07:00,540127551964914468,-334884,-303654,-359622,-472891
1783265977372271890,2026-07-05T22:39:37.372+07:00,540127551964914468,-334974,-303743,-359770,-472857
1783265977475928900,2026-07-05T22:39:37.475+07:00,540127552710849155,-334996,-303806,-359814,-472858
1783265977494110718,2026-07-05T22:39:37.494+07:00,540127552710849155,-335031,-303815,-359809,-472953
1783265977512292536,2026-07-05T22:39:37.512+07:00,540127552710849155,-335010,-303811,-359767,-472840
1783265977530474354,2026-07-05T22:39:37.530+07:00,540127552710849155,-335018,-303879,-359829,-472829
1783265977548656172,2026-07-05T22:39:37.548+07:00,540127552710849155,-335077,-303937,-359862,-472828
1783265977566837990,2026-07-05T22:39:37.566+07:00,540127552710849155,-335141,-304032,-359948,-472811
1783265977585019809,2026-07-05T22:39:37.585+07:00,540127552710849155,-335209,-304105,-359960,-472901
1783265977603201627,2026-07-05T22:39:37.603+07:00,540127552710849155,-335281,-304184,-359996,-472844
1783265977621383445,2026-07-05T22:39:37.621+07:00,540127552710849155,-335255,-304126,-360011,-472819
1783265977639565263,2026-07-05T22:39:37.639+07:00,540127552710849155,-335231,-304146,-359978,-472853
1783265977657747081,2026-07-05T22:39:37.657+07:00,540127552710849155,-335171,-304076,-359929,-472828
1783265977675928900,2026-07-05T22:39:37.675+07:00,540127552710849155,-335170,-304062,-359937,-472879
1783265977694110718,2026-07-05T22:39:37.694+07:00,540127552710849155,-335063,-303932,-359808,-472883
1783265977712292536,2026-07-05T22:39:37.712+07:00,540127552710849155,-335015,-303879,-359767,-472910
1783265977730474354,2026-07-05T22:39:37.730+07:00,540127552710849155,-334914,-303766,-359681,-472835
1783265977748656172,2026-07-05T22:39:37.748+07:00,540127552710849155,-334797,-303587,-359566,-472883
1783265977766837990,2026-07-05T22:39:37.766+07:00,540127552710849155,-334644,-303484,-359408,-472805
1783265977785019809,2026-07-05T22:39:37.785+07:00,540127552710849155,-334587,-303351,-359361,-472819
1783265977803201627,2026-07-05T22:39:37.803+07:00,540127552710849155,-334475,-303230,-359279,-472847
1783265977821383445,2026-07-05T22:39:37.821+07:00,540127552710849155,-334383,-303138,-359132,-472862
1783265977839565263,2026-07-05T22:39:37.839+07:00,540127552710849155,-334226,-302930,-358989,-472856
1783265977857747081,2026-07-05T22:39:37.857+07:00,540127552710849155,-334121,-302777,-358898,-472857
1783265977875928900,2026-07-05T22:39:37.875+07:00,540127552710849155,-333937,-302662,-358822,-472836
1783265977894110718,2026-07-05T22:39:37.894+07:00,540127552710849155,-333938,-302543,-358705,-472830
1783265977912292536,2026-07-05T22:39:37.912+07:00,540127552710849155,-333771,-302374,-358560,-472852
1783265977930474354,2026-07-05T22:39:37.930+07:00,540127552710849155,-333689,-302219,-358415,-472852
1783265977948656172,2026-07-05T22:39:37.948+07:00,540127552710849155,-333447,-301987,-358230,-472822
1783265977966837990,2026-07-05T22:39:37.966+07:00,540127552710849155,-333321,-301867,-358242,-472865
1783265977985019809,2026-07-05T22:39:37.985+07:00,540127552710849155,-333156,-301675,-358027,-472886
1783265978003201627,2026-07-05T22:39:38.003+07:00,540127552710849155,-333002,-301444,-357849,-472845
1783265978021383445,2026-07-05T22:39:38.021+07:00,540127552710849155,-332829,-301278,-357735,-472849
1783265978039565263,2026-07-05T22:39:38.039+07:00,540127552710849155,-332649,-301020,-357540,-472815
1783265978057747081,2026-07-05T22:39:38.057+07:00,540127552710849155,-332508,-300908,-357400,-472859
1783265978075928900,2026-07-05T22:39:38.075+07:00,540127552710849155,-332505,-300924,-357437,-472858
1783265978094110718,2026-07-05T22:39:38.094+07:00,540127552710849155,-332752,-301131,-357586,-472928
1783265978112292536,2026-07-05T22:39:38.112+07:00,540127552710849155,-333105,-301565,-357886,-472917
1783265978130474354,2026-07-05T22:39:38.130+07:00,540127552710849155,-333553,-302046,-358322,-472912
1783265978148656172,2026-07-05T22:39:38.148+07:00,540127552710849155,-333934,-302570,-358669,-472854
1783265978166837990,2026-07-05T22:39:38.166+07:00,540127552710849155,-334356,-303082,-359051,-472870
1783265978185019809,2026-07-05T22:39:38.185+07:00,540127552710849155,-334710,-303467,-359328,-472868
1783265978203201627,2026-07-05T22:39:38.203+07:00,540127552710849155,-335027,-303898,-359615,-472912
1783265978124621500,2026-07-05T22:39:38.124+07:00,540127553438611901,-335290,-304161,-359925,-472867
1783265978142803318,2026-07-05T22:39:38.142+07:00,540127553438611901,-335489,-304479,-360082,-472879
1783265978160985136,2026-07-05T22:39:38.160+07:00,540127553438611901,-335684,-304615,-360246,-472901
1783265978179166954,2026-07-05T22:39:38.179+07:00,540127553438611901,-335755,-304758,-360336,-472849
1783265978197348772,2026-07-05T22:39:38.197+07:00,540127553438611901,-335850,-304804,-360440,-472857
1783265978215530590,2026-07-05T22:39:38.215+07:00,540127553438611901,-335900,-304882,-360418,-472873
1783265978233712409,2026-07-05T22:39:38.233+07:00,540127553438611901,-335912,-304916,-360452,-472876
1783265978251894227,2026-07-05T22:39:38.251+07:00,540127553438611901,-335952,-304933,-360475,-472850
1783265978270076045,2026-07-05T22:39:38.270+07:00,540127553438611901,-335994,-305053,-360499,-472848
1783265978288257863,2026-07-05T22:39:38.288+07:00,540127553438611901,-336014,-305087,-360575,-472842
1783265978306439681,2026-07-05T22:39:38.306+07:00,540127553438611901,-336111,-305015,-360545,-472842
1783265978324621500,2026-07-05T22:39:38.324+07:00,540127553438611901,-336035,-305066,-360585,-472876
1783265978342803318,2026-07-05T22:39:38.342+07:00,540127553438611901,-336093,-305132,-360643,-472888
1783265978360985136,2026-07-05T22:39:38.360+07:00,540127553438611901,-336104,-305071,-360531,-472893
1783265978379166954,2026-07-05T22:39:38.379+07:00,540127553438611901,-335965,-305070,-360512,-472880
1783265978397348772,2026-07-05T22:39:38.397+07:00,540127553438611901,-335978,-305018,-360463,-472879
1783265978415530590,2026-07-05T22:39:38.415+07:00,540127553438611901,-335916,-304851,-360390,-472873
1783265978433712409,2026-07-05T22:39:38.433+07:00,540127553438611901,-335863,-304732,-360348,-472912
1783265978451894227,2026-07-05T22:39:38.451+07:00,540127553438611901,-335695,-304682,-360197,-472863
1783265978470076045,2026-07-05T22:39:38.470+07:00,540127553438611901,-335584,-304536,-360098,-472910
1783265978488257863,2026-07-05T22:39:38.488+07:00,540127553438611901,-335485,-304403,-359930,-472844
1783265978506439681,2026-07-05T22:39:38.506+07:00,540127553438611901,-335342,-304228,-359862,-472873
1783265978524621500,2026-07-05T22:39:38.524+07:00,540127553438611901,-335203,-304068,-359770,-472853
1783265978542803318,2026-07-05T22:39:38.542+07:00,540127553438611901,-335133,-304037,-359745,-472907
1783265978560985136,2026-07-05T22:39:38.560+07:00,540127553438611901,-334984,-303812,-359535,-472846
1783265978579166954,2026-07-05T22:39:38.579+07:00,540127553438611901,-334923,-303652,-359429,-472876
1783265978597348772,2026-07-05T22:39:38.597+07:00,540127553438611901,-334718,-303503,-359278,-472823
1783265978615530590,2026-07-05T22:39:38.615+07:00,540127553438611901,-334578,-303298,-359165,-472817
1783265978633712409,2026-07-05T22:39:38.633+07:00,540127553438611901,-334514,-303192,-359062,-472881
1783265978651894227,2026-07-05T22:39:38.651+07:00,540127553438611901,-334357,-303098,-358920,-472834
1783265978670076045,2026-07-05T22:39:38.670+07:00,540127553438611901,-334213,-302839,-358762,-472836
1783265978688257863,2026-07-05T22:39:38.688+07:00,540127553438611901,-333999,-302681,-358631,-472900
1783265978706439681,2026-07-05T22:39:38.706+07:00,540127553438611901,-333926,-302513,-358533,-472877
1783265978724621500,2026-07-05T22:39:38.724+07:00,540127553438611901,-333692,-302296,-358337,-472863
1783265978742803318,2026-07-05T22:39:38.742+07:00,540127553438611901,-333593,-302049,-358197,-472886
1783265978760985136,2026-07-05T22:39:38.760+07:00,540127553438611901,-333408,-301808,-358044,-472791
1783265978779166954,2026-07-05T22:39:38.779+07:00,540127553438611901,-333227,-301705,-357881,-472825
1783265978797348772,2026-07-05T22:39:38.797+07:00,540127553438611901,-333236,-301572,-357843,-472857
1783265978815530590,2026-07-05T22:39:38.815+07:00,540127553438611901,-333348,-301791,-357958,-472875
1783265978833712409,2026-07-05T22:39:38.833+07:00,540127553438611901,-333683,-302219,-358228,-472885
1783265978928927100,2026-07-05T22:39:38.928+07:00,540127554166374647,-334060,-302760,-358578,-472943
1783265978947108918,2026-07-05T22:39:38.947+07:00,540127554166374647,-334531,-303289,-359016,-472904
1783265978965290736,2026-07-05T22:39:38.965+07:00,540127554166374647,-334883,-303747,-359363,-472890
1783265978983472554,2026-07-05T22:39:38.983+07:00,540127554166374647,-335283,-304217,-359726,-472930
1783265979001654372,2026-07-05T22:39:39.001+07:00,540127554166374647,-335669,-304531,-359967,-472825
1783265979019836190,2026-07-05T22:39:39.019+07:00,540127554166374647,-335851,-304843,-360193,-472806
1783265979038018009,2026-07-05T22:39:39.038+07:00,540127554166374647,-336048,-305184,-360406,-472857
1783265979056199827,2026-07-05T22:39:39.056+07:00,540127554166374647,-336277,-305323,-360593,-472862
1783265979074381645,2026-07-05T22:39:39.074+07:00,540127554166374647,-336398,-305501,-360719,-472875
1783265979092563463,2026-07-05T22:39:39.092+07:00,540127554166374647,-336461,-305586,-360829,-472891
1783265979110745281,2026-07-05T22:39:39.110+07:00,540127554166374647,-336504,-305559,-360800,-472919
1783265979128927100,2026-07-05T22:39:39.128+07:00,540127554166374647,-336489,-305678,-360787,-472840
1783265979147108918,2026-07-05T22:39:39.147+07:00,540127554166374647,-336543,-305720,-360835,-472823
1783265979165290736,2026-07-05T22:39:39.165+07:00,540127554166374647,-336596,-305768,-360900,-472831
1783265979183472554,2026-07-05T22:39:39.183+07:00,540127554166374647,-336676,-305791,-360950,-472907
1783265979201654372,2026-07-05T22:39:39.201+07:00,540127554166374647,-336774,-305873,-360968,-472868
1783265979219836190,2026-07-05T22:39:39.219+07:00,540127554166374647,-336831,-305990,-361071,-472874
1783265979238018009,2026-07-05T22:39:39.238+07:00,540127554166374647,-336840,-306028,-361060,-472917
1783265979256199827,2026-07-05T22:39:39.256+07:00,540127554166374647,-336840,-305967,-361016,-472844
1783265979274381645,2026-07-05T22:39:39.274+07:00,540127554166374647,-336796,-305989,-361032,-472903
1783265979292563463,2026-07-05T22:39:39.292+07:00,540127554166374647,-336732,-305908,-360956,-472867
1783265979310745281,2026-07-05T22:39:39.310+07:00,540127554166374647,-336714,-305791,-360924,-472819
1783265979328927100,2026-07-05T22:39:39.328+07:00,540127554166374647,-336565,-305749,-360853,-472849
1783265979347108918,2026-07-05T22:39:39.347+07:00,540127554166374647,-336454,-305629,-360786,-472862
1783265979365290736,2026-07-05T22:39:39.365+07:00,540127554166374647,-336435,-305481,-360674,-472899
1783265979383472554,2026-07-05T22:39:39.383+07:00,540127554166374647,-336317,-305429,-360564,-472913
1783265979401654372,2026-07-05T22:39:39.401+07:00,540127554166374647,-336162,-305334,-360491,-472875
1783265979419836190,2026-07-05T22:39:39.419+07:00,540127554166374647,-336029,-305160,-360354,-472871
1783265979438018009,2026-07-05T22:39:39.438+07:00,540127554166374647,-335995,-305046,-360286,-472843
1783265979456199827,2026-07-05T22:39:39.456+07:00,540127554166374647,-335766,-304861,-360066,-472854
1783265979474381645,2026-07-05T22:39:39.474+07:00,540127554166374647,-335694,-304734,-359994,-472936
1783265979492563463,2026-07-05T22:39:39.492+07:00,540127554166374647,-335540,-304589,-359903,-472861
1783265979510745281,2026-07-05T22:39:39.510+07:00,540127554166374647,-335397,-304503,-359778,-472830
1783265979528927100,2026-07-05T22:39:39.528+07:00,540127554166374647,-335303,-304286,-359686,-472839
1783265979547108918,2026-07-05T22:39:39.547+07:00,540127554166374647,-335136,-304108,-359528,-472879
1783265979565290736,2026-07-05T22:39:39.565+07:00,540127554166374647,-334977,-303900,-359358,-472898
1783265979583472554,2026-07-05T22:39:39.583+07:00,540127554166374647,-334803,-303652,-359159,-472805
1783265979601654372,2026-07-05T22:39:39.601+07:00,540127554166374647,-334661,-303469,-359049,-472868
1783265979619836190,2026-07-05T22:39:39.619+07:00,540127554166374647,-334532,-303344,-358939,-472821
1783265979638018009,2026-07-05T22:39:39.638+07:00,540127554166374647,-334347,-303132,-358767,-472823
1783265979551410500,2026-07-05T22:39:39.551+07:00,540127554839526960,-334225,-302993,-358652,-472761
1783265979569592318,2026-07-05T22:39:39.569+07:00,540127554839526960,-334220,-303081,-358691,-472796
1783265979587774136,2026-07-05T22:39:39.587+07:00,540127554839526960,-334530,-303388,-358922,-472903
1783265979605955954,2026-07-05T22:39:39.605+07:00,540127554839526960,-334897,-303790,-359224,-472905
1783265979624137772,2026-07-05T22:39:39.624+07:00,540127554839526960,-335277,-304290,-359604,-472873
1783265979642319590,2026-07-05T22:39:39.642+07:00,540127554839526960,-335731,-304849,-360009,-472884
1783265979660501409,2026-07-05T22:39:39.660+07:00,540127554839526960,-336149,-305366,-360324,-472892
1783265979678683227,2026-07-05T22:39:39.678+07:00,540127554839526960,-336402,-305689,-360576,-472867
1783265979696865045,2026-07-05T22:39:39.696+07:00,540127554839526960,-336748,-306033,-360874,-472877
1783265979715046863,2026-07-05T22:39:39.715+07:00,540127554839526960,-336945,-306234,-361045,-472781
1783265979733228681,2026-07-05T22:39:39.733+07:00,540127554839526960,-337205,-306625,-361330,-472839
1783265979751410500,2026-07-05T22:39:39.751+07:00,540127554839526960,-337376,-306782,-361442,-472824
1783265979769592318,2026-07-05T22:39:39.769+07:00,540127554839526960,-337404,-306839,-361517,-472811
1783265979787774136,2026-07-05T22:39:39.787+07:00,540127554839526960,-337452,-306880,-361558,-472880
1783265979805955954,2026-07-05T22:39:39.805+07:00,540127554839526960,-337452,-306889,-361555,-472853
1783265979824137772,2026-07-05T22:39:39.824+07:00,540127554839526960,-337463,-306940,-361560,-472833
1783265979842319590,2026-07-05T22:39:39.842+07:00,540127554839526960,-337461,-306967,-361578,-472792
1783265979860501409,2026-07-05T22:39:39.860+07:00,540127554839526960,-337527,-306984,-361644,-472819
1783265979878683227,2026-07-05T22:39:39.878+07:00,540127554839526960,-337563,-307072,-361681,-472856
1783265979896865045,2026-07-05T22:39:39.896+07:00,540127554839526960,-337602,-307082,-361733,-472812
1783265979915046863,2026-07-05T22:39:39.915+07:00,540127554839526960,-337650,-307135,-361740,-472867
1783265979933228681,2026-07-05T22:39:39.933+07:00,540127554839526960,-337657,-307091,-361712,-472854
1783265979951410500,2026-07-05T22:39:39.951+07:00,540127554839526960,-337608,-307133,-361722,-472849
1783265979969592318,2026-07-05T22:39:39.969+07:00,540127554839526960,-337561,-307063,-361615,-472844
1783265979987774136,2026-07-05T22:39:39.987+07:00,540127554839526960,-337458,-306960,-361588,-472847
1783265980005955954,2026-07-05T22:39:40.005+07:00,540127554839526960,-337400,-306906,-361592,-472930
1783265980024137772,2026-07-05T22:39:40.024+07:00,540127554839526960,-337273,-306719,-361434,-472888
1783265980042319590,2026-07-05T22:39:40.042+07:00,540127554839526960,-337195,-306573,-361337,-472859
1783265980060501409,2026-07-05T22:39:40.060+07:00,540127554839526960,-337163,-306551,-361260,-472895
1783265980078683227,2026-07-05T22:39:40.078+07:00,540127554839526960,-336947,-306355,-361091,-472849
1783265980096865045,2026-07-05T22:39:40.096+07:00,540127554839526960,-336824,-306200,-361008,-472834
1783265980115046863,2026-07-05T22:39:40.115+07:00,540127554839526960,-336726,-306092,-360876,-472813
1783265980133228681,2026-07-05T22:39:40.133+07:00,540127554839526960,-336617,-305916,-360764,-472811
1783265980151410500,2026-07-05T22:39:40.151+07:00,540127554839526960,-336537,-305769,-360640,-472882
1783265980169592318,2026-07-05T22:39:40.169+07:00,540127554839526960,-336375,-305563,-360513,-472834
1783265980187774136,2026-07-05T22:39:40.187+07:00,540127554839526960,-336211,-305395,-360386,-472797
1783265980205955954,2026-07-05T22:39:40.205+07:00,540127554839526960,-336070,-305218,-360237,-472784
1783265980387629400,2026-07-05T22:39:40.387+07:00,540127555512679273,-335963,-305111,-360136,-472841
1783265980405811218,2026-07-05T22:39:40.405+07:00,540127555512679273,-335764,-304878,-359978,-472858
1783265980423993036,2026-07-05T22:39:40.423+07:00,540127555512679273,-335562,-304696,-359823,-472836
1783265980442174854,2026-07-05T22:39:40.442+07:00,540127555512679273,-335469,-304562,-359731,-472850
1783265980460356672,2026-07-05T22:39:40.460+07:00,540127555512679273,-335291,-304372,-359618,-472885
1783265980478538490,2026-07-05T22:39:40.478+07:00,540127555512679273,-335079,-304116,-359395,-472860
1783265980496720309,2026-07-05T22:39:40.496+07:00,540127555512679273,-334982,-303907,-359245,-472880
1783265980514902127,2026-07-05T22:39:40.514+07:00,540127555512679273,-334800,-303756,-359060,-472862
1783265980533083945,2026-07-05T22:39:40.533+07:00,540127555512679273,-334695,-303674,-358989,-472857
1783265980551265763,2026-07-05T22:39:40.551+07:00,540127555512679273,-334730,-303708,-359058,-472881
1783265980569447581,2026-07-05T22:39:40.569+07:00,540127555512679273,-335053,-304030,-359268,-472903
1783265980587629400,2026-07-05T22:39:40.587+07:00,540127555512679273,-335496,-304529,-359703,-472879
1783265980605811218,2026-07-05T22:39:40.605+07:00,540127555512679273,-335905,-305078,-360091,-472826
1783265980623993036,2026-07-05T22:39:40.623+07:00,540127555512679273,-336412,-305614,-360544,-472864
1783265980642174854,2026-07-05T22:39:40.642+07:00,540127555512679273,-336767,-306096,-360858,-472830
1783265980660356672,2026-07-05T22:39:40.660+07:00,540127555512679273,-337199,-306582,-361195,-472866
1783265980678538490,2026-07-05T22:39:40.678+07:00,540127555512679273,-337465,-306995,-361439,-472845
1783265980696720309,2026-07-05T22:39:40.696+07:00,540127555512679273,-337781,-307242,-361704,-472917
1783265980714902127,2026-07-05T22:39:40.714+07:00,540127555512679273,-337970,-307461,-361956,-472869
1783265980733083945,2026-07-05T22:39:40.733+07:00,540127555512679273,-338203,-307757,-362115,-472927
1783265980751265763,2026-07-05T22:39:40.751+07:00,540127555512679273,-338222,-307827,-362152,-472866
1783265980769447581,2026-07-05T22:39:40.769+07:00,540127555512679273,-338260,-307861,-362198,-472891
1783265980787629400,2026-07-05T22:39:40.787+07:00,540127555512679273,-338302,-307921,-362327,-472905
1783265980805811218,2026-07-05T22:39:40.805+07:00,540127555512679273,-338340,-307952,-362287,-472857
1783265980823993036,2026-07-05T22:39:40.823+07:00,540127555512679273,-338418,-307999,-362396,-472894
1783265980842174854,2026-07-05T22:39:40.842+07:00,540127555512679273,-338440,-308089,-362395,-472922
1783265980860356672,2026-07-05T22:39:40.860+07:00,540127555512679273,-338571,-308193,-362457,-472862
1783265980878538490,2026-07-05T22:39:40.878+07:00,540127555512679273,-338602,-308148,-362401,-472814
1783265980896720309,2026-07-05T22:39:40.896+07:00,540127555512679273,-338613,-308205,-362459,-472859
1783265980914902127,2026-07-05T22:39:40.914+07:00,540127555512679273,-338589,-308222,-362465,-472871
1783265980933083945,2026-07-05T22:39:40.933+07:00,540127555512679273,-338530,-308125,-362395,-472873
1783265980951265763,2026-07-05T22:39:40.951+07:00,540127555512679273,-338559,-308102,-362410,-472915
1783265980969447581,2026-07-05T22:39:40.969+07:00,540127555512679273,-338495,-308089,-362368,-472887
1783265980987629400,2026-07-05T22:39:40.987+07:00,540127555512679273,-338421,-307994,-362295,-472892
1783265981005811218,2026-07-05T22:39:41.005+07:00,540127555512679273,-338322,-307850,-362196,-472914
1783265981023993036,2026-07-05T22:39:41.023+07:00,540127555512679273,-338224,-307688,-362047,-472922
1783265981042174854,2026-07-05T22:39:41.042+07:00,540127555512679273,-338106,-307601,-362019,-472897
1783265980992393100,2026-07-05T22:39:40.992+07:00,540127556222205988,-338018,-307498,-361885,-472875
1783265981010574918,2026-07-05T22:39:41.010+07:00,540127556222205988,-337985,-307376,-361819,-472952
1783265981028756736,2026-07-05T22:39:41.028+07:00,540127556222205988,-337845,-307281,-361739,-472995
1783265981046938554,2026-07-05T22:39:41.046+07:00,540127556222205988,-337693,-307030,-361548,-472886
1783265981065120372,2026-07-05T22:39:41.065+07:00,540127556222205988,-337574,-306903,-361428,-472929
1783265981083302190,2026-07-05T22:39:41.083+07:00,540127556222205988,-337469,-306769,-361336,-472891
1783265981101484009,2026-07-05T22:39:41.101+07:00,540127556222205988,-337334,-306528,-361234,-472834
1783265981119665827,2026-07-05T22:39:41.119+07:00,540127556222205988,-337162,-306421,-361087,-472885
1783265981137847645,2026-07-05T22:39:41.137+07:00,540127556222205988,-337053,-306330,-360983,-472880
1783265981156029463,2026-07-05T22:39:41.156+07:00,540127556222205988,-336851,-306108,-360800,-472868
1783265981174211281,2026-07-05T22:39:41.174+07:00,540127556222205988,-336733,-305897,-360683,-472858
1783265981192393100,2026-07-05T22:39:41.192+07:00,540127556222205988,-336566,-305713,-360564,-472888
1783265981210574918,2026-07-05T22:39:41.210+07:00,540127556222205988,-336454,-305552,-360433,-472895
1783265981228756736,2026-07-05T22:39:41.228+07:00,540127556222205988,-336326,-305235,-360236,-472830
1783265981246938554,2026-07-05T22:39:41.246+07:00,540127556222205988,-336156,-305150,-360112,-472869
1783265981265120372,2026-07-05T22:39:41.265+07:00,540127556222205988,-335941,-304903,-359958,-472822
1783265981283302190,2026-07-05T22:39:41.283+07:00,540127556222205988,-335821,-304775,-359823,-472821
1783265981301484009,2026-07-05T22:39:41.301+07:00,540127556222205988,-335866,-304813,-359872,-472877
1783265981319665827,2026-07-05T22:39:41.319+07:00,540127556222205988,-336111,-305171,-360091,-472916
1783265981337847645,2026-07-05T22:39:41.337+07:00,540127556222205988,-336494,-305620,-360401,-472914
1783265981356029463,2026-07-05T22:39:41.356+07:00,540127556222205988,-336947,-306084,-360857,-472858
1783265981374211281,2026-07-05T22:39:41.374+07:00,540127556222205988,-337404,-306639,-361252,-472862
1783265981392393100,2026-07-05T22:39:41.392+07:00,540127556222205988,-337850,-307172,-361623,-472897
1783265981410574918,2026-07-05T22:39:41.410+07:00,540127556222205988,-338140,-307556,-361919,-472891
1783265981428756736,2026-07-05T22:39:41.428+07:00,540127556222205988,-338377,-307822,-362168,-472845
1783265981446938554,2026-07-05T22:39:41.446+07:00,540127556222205988,-338674,-308176,-362380,-472844
1783265981465120372,2026-07-05T22:39:41.465+07:00,540127556222205988,-338937,-308450,-362627,-472888
1783265981483302190,2026-07-05T22:39:41.483+07:00,540127556222205988,-339040,-308625,-362725,-472910
1783265981501484009,2026-07-05T22:39:41.501+07:00,540127556222205988,-339124,-308690,-362851,-472887
1783265981519665827,2026-07-05T22:39:41.519+07:00,540127556222205988,-339129,-308780,-362907,-472854
1783265981537847645,2026-07-05T22:39:41.537+07:00,540127556222205988,-339184,-308798,-362891,-472893
1783265981556029463,2026-07-05T22:39:41.556+07:00,540127556222205988,-339198,-308793,-362868,-472907
1783265981574211281,2026-07-05T22:39:41.574+07:00,540127556222205988,-339297,-308830,-362987,-472869
1783265981592393100,2026-07-05T22:39:41.592+07:00,540127556222205988,-339278,-308801,-362980,-472890
1783265981610574918,2026-07-05T22:39:41.610+07:00,540127556222205988,-339273,-308895,-362965,-472895
1783265981628756736,2026-07-05T22:39:41.628+07:00,540127556222205988,-339303,-308962,-363018,-472850
1783265981646938554,2026-07-05T22:39:41.646+07:00,540127556222205988,-339348,-309035,-363069,-472900
1783265981665120372,2026-07-05T22:39:41.665+07:00,540127556222205988,-339314,-309031,-363083,-472868
1783265981683302190,2026-07-05T22:39:41.683+07:00,540127556222205988,-339177,-308870,-362951,-472814
1783265981803378100,2026-07-05T22:39:41.803+07:00,540127556986306514,-339232,-308899,-362951,-472873
1783265981821559918,2026-07-05T22:39:41.821+07:00,540127556986306514,-339177,-308770,-362913,-472852
1783265981839741736,2026-07-05T22:39:41.839+07:00,540127556986306514,-339052,-308644,-362822,-472842
1783265981857923554,2026-07-05T22:39:41.857+07:00,540127556986306514,-338937,-308486,-362718,-472871
1783265981876105372,2026-07-05T22:39:41.876+07:00,540127556986306514,-338770,-308349,-362575,-472831
1783265981894287190,2026-07-05T22:39:41.894+07:00,540127556986306514,-338711,-308256,-362455,-472944
1783265981912469009,2026-07-05T22:39:41.912+07:00,540127556986306514,-338638,-308106,-362343,-472951
1783265981930650827,2026-07-05T22:39:41.930+07:00,540127556986306514,-338511,-307958,-362252,-472891
1783265981948832645,2026-07-05T22:39:41.948+07:00,540127556986306514,-338379,-307754,-362133,-472917
1783265981967014463,2026-07-05T22:39:41.967+07:00,540127556986306514,-338212,-307555,-361957,-472854
1783265981985196281,2026-07-05T22:39:41.985+07:00,540127556986306514,-338075,-307381,-361906,-472898
1783265982003378100,2026-07-05T22:39:42.003+07:00,540127556986306514,-337909,-307181,-361731,-472885
1783265982021559918,2026-07-05T22:39:42.021+07:00,540127556986306514,-337736,-306969,-361595,-472852
1783265982039741736,2026-07-05T22:39:42.039+07:00,540127556986306514,-337637,-306852,-361472,-472868
1783265982057923554,2026-07-05T22:39:42.057+07:00,540127556986306514,-337494,-306682,-361275,-472901
1783265982076105372,2026-07-05T22:39:42.076+07:00,540127556986306514,-337319,-306527,-361144,-472966
1783265982094287190,2026-07-05T22:39:42.094+07:00,540127556986306514,-337104,-306277,-361008,-472856
1783265982112469009,2026-07-05T22:39:42.112+07:00,540127556986306514,-336999,-306108,-360882,-472879
1783265982130650827,2026-07-05T22:39:42.130+07:00,540127556986306514,-336768,-305832,-360661,-472850
1783265982148832645,2026-07-05T22:39:42.148+07:00,540127556986306514,-336599,-305563,-360505,-472830
1783265982167014463,2026-07-05T22:39:42.167+07:00,540127556986306514,-336437,-305405,-360365,-472881
1783265982185196281,2026-07-05T22:39:42.185+07:00,540127556986306514,-336231,-305219,-360116,-472860
1783265982203378100,2026-07-05T22:39:42.203+07:00,540127556986306514,-336052,-305006,-359992,-472876
1783265982221559918,2026-07-05T22:39:42.221+07:00,540127556986306514,-336017,-304887,-359940,-472873
1783265982239741736,2026-07-05T22:39:42.239+07:00,540127556986306514,-336154,-305025,-360040,-472869
1783265982257923554,2026-07-05T22:39:42.257+07:00,540127556986306514,-336431,-305455,-360343,-472890
1783265982276105372,2026-07-05T22:39:42.276+07:00,540127556986306514,-336860,-305919,-360708,-472851
1783265982294287190,2026-07-05T22:39:42.294+07:00,540127556986306514,-337264,-306426,-361096,-472815
1783265982312469009,2026-07-05T22:39:42.312+07:00,540127556986306514,-337657,-306894,-361491,-472880
1783265982330650827,2026-07-05T22:39:42.330+07:00,540127556986306514,-337928,-307291,-361786,-472854
1783265982348832645,2026-07-05T22:39:42.348+07:00,540127556986306514,-338282,-307683,-362026,-472836
1783265982367014463,2026-07-05T22:39:42.367+07:00,540127556986306514,-338582,-307942,-362301,-472898
1783265982385196281,2026-07-05T22:39:42.385+07:00,540127556986306514,-338731,-308244,-362438,-472843
1783265982403378100,2026-07-05T22:39:42.403+07:00,540127556986306514,-338907,-308412,-362622,-472798
1783265982421559918,2026-07-05T22:39:42.421+07:00,540127556986306514,-339071,-308590,-362839,-472870
1783265982439741736,2026-07-05T22:39:42.439+07:00,540127556986306514,-339127,-308580,-362776,-472854
1783265982457923554,2026-07-05T22:39:42.457+07:00,540127556986306514,-339125,-308624,-362800,-472823
1783265982476105372,2026-07-05T22:39:42.476+07:00,540127556986306514,-339197,-308640,-362854,-472858
1783265982494287190,2026-07-05T22:39:42.494+07:00,540127556986306514,-339165,-308676,-362953,-472904
1783265982512469009,2026-07-05T22:39:42.512+07:00,540127556986306514,-339240,-308709,-362950,-472901
1783265982530650827,2026-07-05T22:39:42.530+07:00,540127556986306514,-339256,-308711,-362979,-472875
1783265982548832645,2026-07-05T22:39:42.548+07:00,540127556986306514,-339239,-308754,-362976,-472877
1783265982431101900,2026-07-05T22:39:42.431+07:00,540127557750455872,-339241,-308728,-362982,-472860
1783265982449283718,2026-07-05T22:39:42.449+07:00,540127557750455872,-339208,-308695,-362962,-472863
1783265982467465536,2026-07-05T22:39:42.467+07:00,540127557750455872,-339215,-308692,-362948,-472866
1783265982485647354,2026-07-05T22:39:42.485+07:00,540127557750455872,-339172,-308644,-362848,-472830
1783265982503829172,2026-07-05T22:39:42.503+07:00,540127557750455872,-339132,-308620,-362796,-472918
1783265982522010990,2026-07-05T22:39:42.522+07:00,540127557750455872,-338964,-308425,-362708,-472834
1783265982540192809,2026-07-05T22:39:42.540+07:00,540127557750455872,-338852,-308323,-362572,-472873
1783265982558374627,2026-07-05T22:39:42.558+07:00,540127557750455872,-338828,-308192,-362515,-472880
1783265982576556445,2026-07-05T22:39:42.576+07:00,540127557750455872,-338686,-308097,-362452,-472896
1783265982594738263,2026-07-05T22:39:42.594+07:00,540127557750455872,-338591,-307960,-362288,-472881
1783265982612920081,2026-07-05T22:39:42.612+07:00,540127557750455872,-338506,-307791,-362231,-472897
1783265982631101900,2026-07-05T22:39:42.631+07:00,540127557750455872,-338358,-307569,-362076,-472902
1783265982649283718,2026-07-05T22:39:42.649+07:00,540127557750455872,-338236,-307449,-361941,-472895
1783265982667465536,2026-07-05T22:39:42.667+07:00,540127557750455872,-338005,-307196,-361844,-472842
1783265982685647354,2026-07-05T22:39:42.685+07:00,540127557750455872,-337927,-307047,-361667,-472843
1783265982703829172,2026-07-05T22:39:42.703+07:00,540127557750455872,-337689,-306848,-361523,-472857
1783265982722010990,2026-07-05T22:39:42.722+07:00,540127557750455872,-337582,-306637,-361396,-472782
1783265982740192809,2026-07-05T22:39:42.740+07:00,540127557750455872,-337411,-306455,-361250,-472812
1783265982758374627,2026-07-05T22:39:42.758+07:00,540127557750455872,-337349,-306380,-361134,-472894
1783265982776556445,2026-07-05T22:39:42.776+07:00,540127557750455872,-337175,-306131,-361022,-472866
1783265982794738263,2026-07-05T22:39:42.794+07:00,540127557750455872,-337000,-305947,-360830,-472841
1783265982812920081,2026-07-05T22:39:42.812+07:00,540127557750455872,-336808,-305728,-360688,-472901
1783265982831101900,2026-07-05T22:39:42.831+07:00,540127557750455872,-336586,-305441,-360444,-472894
1783265982849283718,2026-07-05T22:39:42.849+07:00,540127557750455872,-336465,-305288,-360298,-472846
1783265982867465536,2026-07-05T22:39:42.867+07:00,540127557750455872,-336307,-305068,-360168,-472856
1783265982885647354,2026-07-05T22:39:42.885+07:00,540127557750455872,-336084,-304838,-360007,-472882
1783265982903829172,2026-07-05T22:39:42.903+07:00,540127557750455872,-335909,-304576,-359825,-472854
1783265982922010990,2026-07-05T22:39:42.922+07:00,540127557750455872,-335660,-304387,-359640,-472826
1783265982940192809,2026-07-05T22:39:42.940+07:00,540127557750455872,-335595,-304193,-359534,-472916
1783265982958374627,2026-07-05T22:39:42.958+07:00,540127557750455872,-335564,-304182,-359446,-472847
1783265982976556445,2026-07-05T22:39:42.976+07:00,540127557750455872,-335713,-304367,-359623,-472864
1783265982994738263,2026-07-05T22:39:42.994+07:00,540127557750455872,-336087,-304866,-359945,-472862
1783265983012920081,2026-07-05T22:39:43.012+07:00,540127557750455872,-336533,-305364,-360401,-472904
1783265983031101900,2026-07-05T22:39:43.031+07:00,540127557750455872,-336928,-305835,-360705,-472938
1783265983049283718,2026-07-05T22:39:43.049+07:00,540127557750455872,-337330,-306312,-361086,-472890
1783265983067465536,2026-07-05T22:39:43.067+07:00,540127557750455872,-337679,-306731,-361425,-472928
1783265983085647354,2026-07-05T22:39:43.085+07:00,540127557750455872,-337933,-307027,-361622,-472904
1783265983103829172,2026-07-05T22:39:43.103+07:00,540127557750455872,-338150,-307254,-361808,-472866
1783265983122010990,2026-07-05T22:39:43.122+07:00,540127557750455872,-338316,-307512,-362070,-472858
1783265983140192809,2026-07-05T22:39:43.140+07:00,540127557750455872,-338495,-307689,-362248,-472847
1783265983158374627,2026-07-05T22:39:43.158+07:00,540127557750455872,-338581,-307822,-362325,-472875
1783265983176556445,2026-07-05T22:39:43.176+07:00,540127557750455872,-338626,-307890,-362331,-472854
1783265983231259400,2026-07-05T22:39:43.231+07:00,540127558496381405,-338694,-307895,-362351,-472914
1783265983249441218,2026-07-05T22:39:43.249+07:00,540127558496381405,-338638,-307917,-362383,-472960
1783265983267623036,2026-07-05T22:39:43.267+07:00,540127558496381405,-338650,-307906,-362354,-472841
1783265983285804854,2026-07-05T22:39:43.285+07:00,540127558496381405,-338661,-307914,-362423,-472807
1783265983303986672,2026-07-05T22:39:43.303+07:00,540127558496381405,-338695,-307927,-362480,-472884
1783265983322168490,2026-07-05T22:39:43.322+07:00,540127558496381405,-338707,-307960,-362455,-472812
1783265983340350309,2026-07-05T22:39:43.340+07:00,540127558496381405,-338754,-307982,-362445,-472851
1783265983358532127,2026-07-05T22:39:43.358+07:00,540127558496381405,-338700,-307964,-362427,-472874
1783265983376713945,2026-07-05T22:39:43.376+07:00,540127558496381405,-338735,-307955,-362380,-472895
1783265983394895763,2026-07-05T22:39:43.394+07:00,540127558496381405,-338626,-307888,-362343,-472873
1783265983413077581,2026-07-05T22:39:43.413+07:00,540127558496381405,-338593,-307828,-362297,-472905
1783265983431259400,2026-07-05T22:39:43.431+07:00,540127558496381405,-338435,-307648,-362176,-472873
1783265983449441218,2026-07-05T22:39:43.449+07:00,540127558496381405,-338376,-307580,-362100,-472840
1783265983467623036,2026-07-05T22:39:43.467+07:00,540127558496381405,-338282,-307438,-361973,-472869
1783265983485804854,2026-07-05T22:39:43.485+07:00,540127558496381405,-338164,-307303,-361905,-472865
1783265983503986672,2026-07-05T22:39:43.503+07:00,540127558496381405,-338016,-307157,-361779,-472828
1783265983522168490,2026-07-05T22:39:43.522+07:00,540127558496381405,-337945,-306981,-361714,-472891
1783265983540350309,2026-07-05T22:39:43.540+07:00,540127558496381405,-337846,-306843,-361563,-472892
1783265983558532127,2026-07-05T22:39:43.558+07:00,540127558496381405,-337715,-306646,-361432,-472884
1783265983576713945,2026-07-05T22:39:43.576+07:00,540127558496381405,-337565,-306521,-361325,-472886
1783265983594895763,2026-07-05T22:39:43.594+07:00,540127558496381405,-337414,-306334,-361179,-472878
1783265983613077581,2026-07-05T22:39:43.613+07:00,540127558496381405,-337220,-306149,-360995,-472854
1783265983631259400,2026-07-05T22:39:43.631+07:00,540127558496381405,-337092,-305994,-360898,-472877
1783265983649441218,2026-07-05T22:39:43.649+07:00,540127558496381405,-336966,-305812,-360764,-472902
1783265983667623036,2026-07-05T22:39:43.667+07:00,540127558496381405,-336799,-305576,-360632,-472885
1783265983685804854,2026-07-05T22:39:43.685+07:00,540127558496381405,-336573,-305365,-360478,-472836
1783265983703986672,2026-07-05T22:39:43.703+07:00,540127558496381405,-336453,-305210,-360355,-472921
1783265983722168490,2026-07-05T22:39:43.722+07:00,540127558496381405,-336402,-305094,-360222,-472969
1783265983740350309,2026-07-05T22:39:43.740+07:00,540127558496381405,-336187,-304853,-360031,-472901
1783265983758532127,2026-07-05T22:39:43.758+07:00,540127558496381405,-335992,-304654,-359900,-472899
1783265983776713945,2026-07-05T22:39:43.776+07:00,540127558496381405,-335830,-304423,-359749,-472909
1783265983794895763,2026-07-05T22:39:43.794+07:00,540127558496381405,-335728,-304181,-359561,-472901
1783265983813077581,2026-07-05T22:39:43.813+07:00,540127558496381405,-335493,-303956,-359369,-472795
1783265983831259400,2026-07-05T22:39:43.831+07:00,540127558496381405,-335357,-303695,-359212,-472868
1783265983849441218,2026-07-05T22:39:43.849+07:00,540127558496381405,-335340,-303740,-359210,-472896
1783265983867623036,2026-07-05T22:39:43.867+07:00,540127558496381405,-335502,-303942,-359418,-472853
1783265983885804854,2026-07-05T22:39:43.885+07:00,540127558496381405,-335785,-304320,-359644,-472878
1783265983903986672,2026-07-05T22:39:43.903+07:00,540127558496381405,-336222,-304807,-360061,-472920
1783265983922168490,2026-07-05T22:39:43.922+07:00,540127558496381405,-336653,-305329,-360384,-472916
1783265983940350309,2026-07-05T22:39:43.940+07:00,540127558496381405,-337028,-305789,-360813,-472917
1783265983958532127,2026-07-05T22:39:43.958+07:00,540127558496381405,-337364,-306169,-361104,-472878
1783265984063056800,2026-07-05T22:39:44.063+07:00,540127559278717964,-337597,-306422,-361319,-472849
1783265984081238618,2026-07-05T22:39:44.081+07:00,540127559278717964,-337843,-306754,-361534,-472925
1783265984099420436,2026-07-05T22:39:44.099+07:00,540127559278717964,-338028,-307003,-361710,-472911
1783265984117602254,2026-07-05T22:39:44.117+07:00,540127559278717964,-338110,-307077,-361848,-472870
1783265984135784072,2026-07-05T22:39:44.135+07:00,540127559278717964,-338206,-307276,-361984,-472914
1783265984153965890,2026-07-05T22:39:44.153+07:00,540127559278717964,-338245,-307241,-361955,-472952
1783265984172147709,2026-07-05T22:39:44.172+07:00,540127559278717964,-338227,-307234,-361958,-472913
1783265984190329527,2026-07-05T22:39:44.190+07:00,540127559278717964,-338256,-307242,-361952,-472863
1783265984208511345,2026-07-05T22:39:44.208+07:00,540127559278717964,-338245,-307230,-361969,-472851
1783265984226693163,2026-07-05T22:39:44.226+07:00,540127559278717964,-338289,-307295,-361976,-472886
1783265984244874981,2026-07-05T22:39:44.244+07:00,540127559278717964,-338282,-307330,-362025,-472886
1783265984263056800,2026-07-05T22:39:44.263+07:00,540127559278717964,-338303,-307334,-362058,-472860
1783265984281238618,2026-07-05T22:39:44.281+07:00,540127559278717964,-338367,-307376,-362118,-472916
1783265984299420436,2026-07-05T22:39:44.299+07:00,540127559278717964,-338346,-307418,-362149,-472898
1783265984317602254,2026-07-05T22:39:44.317+07:00,540127559278717964,-338281,-307317,-362053,-472873
1783265984335784072,2026-07-05T22:39:44.335+07:00,540127559278717964,-338203,-307294,-362026,-472823
1783265984353965890,2026-07-05T22:39:44.353+07:00,540127559278717964,-338103,-307198,-361992,-472834
1783265984372147709,2026-07-05T22:39:44.372+07:00,540127559278717964,-338048,-307099,-361876,-472878
1783265984390329527,2026-07-05T22:39:44.390+07:00,540127559278717964,-337961,-306959,-361833,-472931
1783265984408511345,2026-07-05T22:39:44.408+07:00,540127559278717964,-337829,-306882,-361720,-472905
1783265984426693163,2026-07-05T22:39:44.426+07:00,540127559278717964,-337645,-306733,-361549,-472862
1783265984444874981,2026-07-05T22:39:44.444+07:00,540127559278717964,-337599,-306586,-361463,-472925
1783265984463056800,2026-07-05T22:39:44.463+07:00,540127559278717964,-337495,-306435,-361394,-472884
1783265984481238618,2026-07-05T22:39:44.481+07:00,540127559278717964,-337258,-306233,-361207,-472870
1783265984499420436,2026-07-05T22:39:44.499+07:00,540127559278717964,-337158,-306118,-361101,-472877
1783265984517602254,2026-07-05T22:39:44.517+07:00,540127559278717964,-337069,-305917,-360948,-472914
1783265984535784072,2026-07-05T22:39:44.535+07:00,540127559278717964,-336910,-305774,-360850,-472929
1783265984553965890,2026-07-05T22:39:44.553+07:00,540127559278717964,-336821,-305689,-360729,-472995
1783265984572147709,2026-07-05T22:39:44.572+07:00,540127559278717964,-336580,-305384,-360570,-472832
1783265984590329527,2026-07-05T22:39:44.590+07:00,540127559278717964,-336505,-305208,-360468,-472903
1783265984608511345,2026-07-05T22:39:44.608+07:00,540127559278717964,-336257,-305023,-360264,-472871
1783265984626693163,2026-07-05T22:39:44.626+07:00,540127559278717964,-336186,-304888,-360203,-472908
1783265984644874981,2026-07-05T22:39:44.644+07:00,540127559278717964,-335954,-304663,-359977,-472802
1783265984663056800,2026-07-05T22:39:44.663+07:00,540127559278717964,-335805,-304522,-359849,-472917
1783265984681238618,2026-07-05T22:39:44.681+07:00,540127559278717964,-335596,-304299,-359702,-472917
1783265984699420436,2026-07-05T22:39:44.699+07:00,540127559278717964,-335465,-304117,-359541,-472898
1783265984717602254,2026-07-05T22:39:44.717+07:00,540127559278717964,-335226,-303780,-359334,-472880
1783265984735784072,2026-07-05T22:39:44.735+07:00,540127559278717964,-335067,-303591,-359161,-472877
1783265984753965890,2026-07-05T22:39:44.753+07:00,540127559278717964,-334980,-303505,-359110,-472873
1783265984772147709,2026-07-05T22:39:44.772+07:00,540127559278717964,-335005,-303504,-359043,-472860
1783265984790329527,2026-07-05T22:39:44.790+07:00,540127559278717964,-335237,-303807,-359277,-472891
1783265984808511345,2026-07-05T22:39:44.808+07:00,540127559278717964,-335565,-304266,-359640,-472893
1783265984826693163,2026-07-05T22:39:44.826+07:00,540127559278717964,-336049,-304777,-360082,-472941
1783265984666093600,2026-07-05T22:39:44.666+07:00,540127560042870372,-336362,-305153,-360364,-472862
1783265984684275418,2026-07-05T22:39:44.684+07:00,540127560042870372,-336785,-305637,-360704,-472857
1783265984702457236,2026-07-05T22:39:44.702+07:00,540127560042870372,-337057,-305903,-360932,-472878
1783265984720639054,2026-07-05T22:39:44.720+07:00,540127560042870372,-337283,-306243,-361171,-472873
1783265984738820872,2026-07-05T22:39:44.738+07:00,540127560042870372,-337536,-306454,-361353,-472890
1783265984757002690,2026-07-05T22:39:44.757+07:00,540127560042870372,-337655,-306677,-361554,-472878
1783265984775184509,2026-07-05T22:39:44.775+07:00,540127560042870372,-337738,-306809,-361601,-472824
1783265984793366327,2026-07-05T22:39:44.793+07:00,540127560042870372,-337772,-306867,-361660,-472822
1783265984811548145,2026-07-05T22:39:44.811+07:00,540127560042870372,-337795,-306942,-361687,-472863
1783265984829729963,2026-07-05T22:39:44.829+07:00,540127560042870372,-337802,-306880,-361698,-472806
1783265984847911781,2026-07-05T22:39:44.847+07:00,540127560042870372,-337751,-306886,-361750,-472807
1783265984866093600,2026-07-05T22:39:44.866+07:00,540127560042870372,-337811,-306852,-361741,-472851
1783265984884275418,2026-07-05T22:39:44.884+07:00,540127560042870372,-337876,-306954,-361811,-472845
1783265984902457236,2026-07-05T22:39:44.902+07:00,540127560042870372,-337853,-306950,-361856,-472886
1783265984920639054,2026-07-05T22:39:44.920+07:00,540127560042870372,-337925,-307084,-361860,-472881
1783265984938820872,2026-07-05T22:39:44.938+07:00,540127560042870372,-337940,-307022,-361873,-472863
1783265984957002690,2026-07-05T22:39:44.957+07:00,540127560042870372,-337928,-307060,-361869,-472885
1783265984975184509,2026-07-05T22:39:44.975+07:00,540127560042870372,-337888,-306988,-361882,-472912
1783265984993366327,2026-07-05T22:39:44.993+07:00,540127560042870372,-337799,-306979,-361793,-472898
1783265985011548145,2026-07-05T22:39:45.011+07:00,540127560042870372,-337762,-306898,-361741,-472934
1783265985029729963,2026-07-05T22:39:45.029+07:00,540127560042870372,-337605,-306769,-361689,-472888
1783265985047911781,2026-07-05T22:39:45.047+07:00,540127560042870372,-337574,-306645,-361629,-472922
1783265985066093600,2026-07-05T22:39:45.066+07:00,540127560042870372,-337468,-306481,-361510,-472866
1783265985084275418,2026-07-05T22:39:45.084+07:00,540127560042870372,-337342,-306364,-361374,-472868
1783265985102457236,2026-07-05T22:39:45.102+07:00,540127560042870372,-337325,-306234,-361329,-472939
1783265985120639054,2026-07-05T22:39:45.120+07:00,540127560042870372,-337121,-306042,-361176,-472836
1783265985138820872,2026-07-05T22:39:45.138+07:00,540127560042870372,-337017,-305939,-361017,-472874
1783265985157002690,2026-07-05T22:39:45.157+07:00,540127560042870372,-336921,-305827,-360966,-472985
1783265985175184509,2026-07-05T22:39:45.175+07:00,540127560042870372,-336803,-305603,-360858,-472951
1783265985193366327,2026-07-05T22:39:45.193+07:00,540127560042870372,-336591,-305394,-360678,-472896
1783265985211548145,2026-07-05T22:39:45.211+07:00,540127560042870372,-336507,-305231,-360554,-472902
1783265985229729963,2026-07-05T22:39:45.229+07:00,540127560042870372,-336341,-305132,-360426,-472896
1783265985247911781,2026-07-05T22:39:45.247+07:00,540127560042870372,-336174,-304957,-360285,-472858
1783265985266093600,2026-07-05T22:39:45.266+07:00,540127560042870372,-336024,-304743,-360114,-472797
1783265985284275418,2026-07-05T22:39:45.284+07:00,540127560042870372,-335917,-304551,-359961,-472836
1783265985302457236,2026-07-05T22:39:45.302+07:00,540127560042870372,-335783,-304415,-359834,-472894
1783265985320639054,2026-07-05T22:39:45.320+07:00,540127560042870372,-335602,-304236,-359702,-472830
1783265985338820872,2026-07-05T22:39:45.338+07:00,540127560042870372,-335422,-304057,-359604,-472884
1783265985357002690,2026-07-05T22:39:45.357+07:00,540127560042870372,-335273,-303822,-359376,-472841
1783265985375184509,2026-07-05T22:39:45.375+07:00,540127560042870372,-335134,-303558,-359261,-472811
1783265985393366327,2026-07-05T22:39:45.393+07:00,540127560042870372,-334923,-303369,-359101,-472868
1783265985411548145,2026-07-05T22:39:45.411+07:00,540127560042870372,-334812,-303247,-358995,-472938
1783265985481009500,2026-07-05T22:39:45.481+07:00,540127560716025735,-334757,-303257,-358993,-472852
1783265985499191318,2026-07-05T22:39:45.499+07:00,540127560716025735,-335022,-303542,-359198,-472885
1783265985517373136,2026-07-05T22:39:45.517+07:00,540127560716025735,-335405,-304011,-359470,-472836
1783265985535554954,2026-07-05T22:39:45.535+07:00,540127560716025735,-335825,-304573,-359947,-472816
1783265985553736772,2026-07-05T22:39:45.553+07:00,540127560716025735,-336253,-305044,-360278,-472840
1783265985571918590,2026-07-05T22:39:45.571+07:00,540127560716025735,-336637,-305445,-360619,-472898
1783265985590100409,2026-07-05T22:39:45.590+07:00,540127560716025735,-336916,-305894,-360932,-472857
1783265985608282227,2026-07-05T22:39:45.608+07:00,540127560716025735,-337215,-306149,-361175,-472830
1783265985626464045,2026-07-05T22:39:45.626+07:00,540127560716025735,-337373,-306451,-361407,-472805
1783265985644645863,2026-07-05T22:39:45.644+07:00,540127560716025735,-337584,-306640,-361553,-472845
1783265985662827681,2026-07-05T22:39:45.662+07:00,540127560716025735,-337684,-306794,-361699,-472832
1783265985681009500,2026-07-05T22:39:45.681+07:00,540127560716025735,-337796,-306896,-361803,-472890
1783265985699191318,2026-07-05T22:39:45.699+07:00,540127560716025735,-337781,-306916,-361762,-472836
1783265985717373136,2026-07-05T22:39:45.717+07:00,540127560716025735,-337894,-307005,-361839,-472898
1783265985735554954,2026-07-05T22:39:45.735+07:00,540127560716025735,-337818,-306986,-361839,-472772
1783265985753736772,2026-07-05T22:39:45.753+07:00,540127560716025735,-337862,-307049,-361875,-472805
1783265985771918590,2026-07-05T22:39:45.771+07:00,540127560716025735,-337897,-307078,-361886,-472813
1783265985790100409,2026-07-05T22:39:45.790+07:00,540127560716025735,-337984,-307143,-361974,-472785
1783265985808282227,2026-07-05T22:39:45.808+07:00,540127560716025735,-337994,-307215,-362008,-472868
1783265985826464045,2026-07-05T22:39:45.826+07:00,540127560716025735,-338001,-307233,-361971,-472815
1783265985844645863,2026-07-05T22:39:45.844+07:00,540127560716025735,-338083,-307253,-362043,-472868
1783265985862827681,2026-07-05T22:39:45.862+07:00,540127560716025735,-338073,-307260,-362019,-472893
1783265985881009500,2026-07-05T22:39:45.881+07:00,540127560716025735,-337944,-307146,-361962,-472917
1783265985899191318,2026-07-05T22:39:45.899+07:00,540127560716025735,-337885,-307120,-361930,-472905
1783265985917373136,2026-07-05T22:39:45.917+07:00,540127560716025735,-337816,-306970,-361836,-472949
1783265985935554954,2026-07-05T22:39:45.935+07:00,540127560716025735,-337692,-306866,-361741,-472876
1783265985953736772,2026-07-05T22:39:45.953+07:00,540127560716025735,-337646,-306769,-361646,-472885
1783265985971918590,2026-07-05T22:39:45.971+07:00,540127560716025735,-337559,-306653,-361524,-472871
1783265985990100409,2026-07-05T22:39:45.990+07:00,540127560716025735,-337485,-306501,-361428,-472862
1783265986008282227,2026-07-05T22:39:46.008+07:00,540127560716025735,-337290,-306386,-361342,-472857
1783265986026464045,2026-07-05T22:39:46.026+07:00,540127560716025735,-337201,-306252,-361280,-472936
1783265986044645863,2026-07-05T22:39:46.044+07:00,540127560716025735,-337103,-306163,-361164,-472873
1783265986062827681,2026-07-05T22:39:46.062+07:00,540127560716025735,-336958,-305917,-361033,-472831
1783265986081009500,2026-07-05T22:39:46.081+07:00,540127560716025735,-336839,-305782,-360902,-472809
1783265986099191318,2026-07-05T22:39:46.099+07:00,540127560716025735,-336700,-305621,-360796,-472851
1783265986117373136,2026-07-05T22:39:46.117+07:00,540127560716025735,-336608,-305504,-360626,-472836
1783265986135554954,2026-07-05T22:39:46.135+07:00,540127560716025735,-336451,-305317,-360510,-472854
1783265986122212500,2026-07-05T22:39:46.122+07:00,540127561389208566,-336379,-305135,-360393,-472929
1783265986140394318,2026-07-05T22:39:46.140+07:00,540127561389208566,-336213,-305055,-360262,-472876
1783265986158576136,2026-07-05T22:39:46.158+07:00,540127561389208566,-336138,-304871,-360195,-472913
1783265986176757954,2026-07-05T22:39:46.176+07:00,540127561389208566,-335896,-304612,-360001,-472835
1783265986194939772,2026-07-05T22:39:46.194+07:00,540127561389208566,-335766,-304467,-359886,-472857
1783265986213121590,2026-07-05T22:39:46.213+07:00,540127561389208566,-335651,-304264,-359752,-472864
1783265986231303409,2026-07-05T22:39:46.231+07:00,540127561389208566,-335522,-304062,-359604,-472908
1783265986249485227,2026-07-05T22:39:46.249+07:00,540127561389208566,-335337,-303890,-359436,-472843
1783265986267667045,2026-07-05T22:39:46.267+07:00,540127561389208566,-335272,-303842,-359337,-472877
1783265986285848863,2026-07-05T22:39:46.285+07:00,540127561389208566,-335334,-303921,-359375,-472841
1783265986304030681,2026-07-05T22:39:46.304+07:00,540127561389208566,-335612,-304343,-359685,-472892
1783265986322212500,2026-07-05T22:39:46.322+07:00,540127561389208566,-336044,-304747,-360063,-472864
1783265986340394318,2026-07-05T22:39:46.340+07:00,540127561389208566,-336435,-305234,-360454,-472876
1783265986358576136,2026-07-05T22:39:46.358+07:00,540127561389208566,-336873,-305800,-360815,-472854
1783265986376757954,2026-07-05T22:39:46.376+07:00,540127561389208566,-337239,-306178,-361137,-472873
1783265986394939772,2026-07-05T22:39:46.394+07:00,540127561389208566,-337511,-306600,-361449,-472879
1783265986413121590,2026-07-05T22:39:46.413+07:00,540127561389208566,-337665,-306821,-361661,-472844
1783265986431303409,2026-07-05T22:39:46.431+07:00,540127561389208566,-337935,-307118,-361901,-472814
1783265986449485227,2026-07-05T22:39:46.449+07:00,540127561389208566,-338100,-307288,-361952,-472850
1783265986467667045,2026-07-05T22:39:46.467+07:00,540127561389208566,-338193,-307437,-362123,-472844
1783265986485848863,2026-07-05T22:39:46.485+07:00,540127561389208566,-338213,-307455,-362148,-472845
1783265986504030681,2026-07-05T22:39:46.504+07:00,540127561389208566,-338162,-307449,-362118,-472806
1783265986522212500,2026-07-05T22:39:46.522+07:00,540127561389208566,-338252,-307452,-362194,-472883
1783265986540394318,2026-07-05T22:39:46.540+07:00,540127561389208566,-338199,-307514,-362201,-472861
1783265986558576136,2026-07-05T22:39:46.558+07:00,540127561389208566,-338250,-307615,-362239,-472844
1783265986576757954,2026-07-05T22:39:46.576+07:00,540127561389208566,-338354,-307642,-362286,-472879
1783265986594939772,2026-07-05T22:39:46.594+07:00,540127561389208566,-338360,-307716,-362304,-472866
1783265986613121590,2026-07-05T22:39:46.613+07:00,540127561389208566,-338365,-307754,-362350,-472845
1783265986631303409,2026-07-05T22:39:46.631+07:00,540127561389208566,-338379,-307713,-362352,-472898
1783265986649485227,2026-07-05T22:39:46.649+07:00,540127561389208566,-338389,-307795,-362425,-472845
1783265986667667045,2026-07-05T22:39:46.667+07:00,540127561389208566,-338363,-307793,-362391,-472893
1783265986685848863,2026-07-05T22:39:46.685+07:00,540127561389208566,-338262,-307671,-362245,-472818
1783265986704030681,2026-07-05T22:39:46.704+07:00,540127561389208566,-338205,-307568,-362213,-472814
1783265986722212500,2026-07-05T22:39:46.722+07:00,540127561389208566,-338124,-307542,-362182,-472809
1783265986740394318,2026-07-05T22:39:46.740+07:00,540127561389208566,-338070,-307403,-362093,-472909
1783265986758576136,2026-07-05T22:39:46.758+07:00,540127561389208566,-337895,-307275,-361891,-472852
1783265986776757954,2026-07-05T22:39:46.776+07:00,540127561389208566,-337874,-307168,-361871,-472911
1783265986937203700,2026-07-05T22:39:46.937+07:00,540127562171551227,-337786,-307023,-361762,-472914
1783265986955385518,2026-07-05T22:39:46.955+07:00,540127562171551227,-337598,-306879,-361662,-472912
1783265986973567336,2026-07-05T22:39:46.973+07:00,540127562171551227,-337526,-306749,-361584,-472895
1783265986991749154,2026-07-05T22:39:46.991+07:00,540127562171551227,-337363,-306593,-361476,-472875
1783265987009930972,2026-07-05T22:39:47.009+07:00,540127562171551227,-337263,-306390,-361387,-472835
1783265987028112790,2026-07-05T22:39:47.028+07:00,540127562171551227,-337162,-306284,-361277,-472901
1783265987046294609,2026-07-05T22:39:47.046+07:00,540127562171551227,-337025,-306108,-361131,-472927
1783265987064476427,2026-07-05T22:39:47.064+07:00,540127562171551227,-336875,-305931,-360973,-472854
1783265987082658245,2026-07-05T22:39:47.082+07:00,540127562171551227,-336768,-305799,-360847,-472868
1783265987100840063,2026-07-05T22:39:47.100+07:00,540127562171551227,-336545,-305646,-360687,-472891
1783265987119021881,2026-07-05T22:39:47.119+07:00,540127562171551227,-336462,-305442,-360538,-472892
1783265987137203700,2026-07-05T22:39:47.137+07:00,540127562171551227,-336288,-305288,-360446,-472885
1783265987155385518,2026-07-05T22:39:47.155+07:00,540127562171551227,-336075,-305097,-360252,-472840
1783265987173567336,2026-07-05T22:39:47.173+07:00,540127562171551227,-335969,-304880,-360095,-472863
1783265987191749154,2026-07-05T22:39:47.191+07:00,540127562171551227,-335841,-304771,-360026,-472868
1783265987209930972,2026-07-05T22:39:47.209+07:00,540127562171551227,-335982,-304937,-360087,-472876
1783265987228112790,2026-07-05T22:39:47.228+07:00,540127562171551227,-336208,-305141,-360338,-472797
1783265987246294609,2026-07-05T22:39:47.246+07:00,540127562171551227,-336600,-305614,-360664,-472871
1783265987264476427,2026-07-05T22:39:47.264+07:00,540127562171551227,-337014,-306108,-361046,-472826
1783265987282658245,2026-07-05T22:39:47.282+07:00,540127562171551227,-337406,-306597,-361377,-472834
1783265987300840063,2026-07-05T22:39:47.300+07:00,540127562171551227,-337736,-307010,-361705,-472854
1783265987319021881,2026-07-05T22:39:47.319+07:00,540127562171551227,-338045,-307396,-362001,-472870
1783265987337203700,2026-07-05T22:39:47.337+07:00,540127562171551227,-338282,-307653,-362180,-472878
1783265987355385518,2026-07-05T22:39:47.355+07:00,540127562171551227,-338459,-307841,-362321,-472809
1783265987373567336,2026-07-05T22:39:47.373+07:00,540127562171551227,-338561,-308057,-362479,-472795
1783265987391749154,2026-07-05T22:39:47.391+07:00,540127562171551227,-338710,-308235,-362581,-472856
1783265987409930972,2026-07-05T22:39:47.409+07:00,540127562171551227,-338708,-308263,-362641,-472868
1783265987428112790,2026-07-05T22:39:47.428+07:00,540127562171551227,-338754,-308294,-362730,-472891
1783265987446294609,2026-07-05T22:39:47.446+07:00,540127562171551227,-338741,-308336,-362697,-472814
1783265987464476427,2026-07-05T22:39:47.464+07:00,540127562171551227,-338748,-308334,-362677,-472863
1783265987482658245,2026-07-05T22:39:47.482+07:00,540127562171551227,-338798,-308341,-362706,-472937
1783265987500840063,2026-07-05T22:39:47.500+07:00,540127562171551227,-338801,-308369,-362695,-472927
1783265987519021881,2026-07-05T22:39:47.519+07:00,540127562171551227,-338860,-308465,-362769,-472945
1783265987537203700,2026-07-05T22:39:47.537+07:00,540127562171551227,-338858,-308469,-362779,-472883
1783265987555385518,2026-07-05T22:39:47.555+07:00,540127562171551227,-338805,-308445,-362766,-472920
1783265987573567336,2026-07-05T22:39:47.573+07:00,540127562171551227,-338838,-308421,-362758,-472847
1783265987591749154,2026-07-05T22:39:47.591+07:00,540127562171551227,-338807,-308373,-362717,-472868
1783265987609930972,2026-07-05T22:39:47.609+07:00,540127562171551227,-338736,-308255,-362681,-472903
1783265987628112790,2026-07-05T22:39:47.628+07:00,540127562171551227,-338647,-308173,-362603,-472882
1783265987646294609,2026-07-05T22:39:47.646+07:00,540127562171551227,-338545,-308077,-362456,-472859
1783265987664476427,2026-07-05T22:39:47.664+07:00,540127562171551227,-338490,-307943,-362438,-472903
1783265987682658245,2026-07-05T22:39:47.682+07:00,540127562171551227,-338390,-307766,-362309,-472826
1783265987700840063,2026-07-05T22:39:47.700+07:00,540127562171551227,-338282,-307689,-362185,-472843
1783265987561159200,2026-07-05T22:39:47.561+07:00,540127562881090150,-338160,-307549,-362055,-472839
1783265987579341018,2026-07-05T22:39:47.579+07:00,540127562881090150,-338054,-307391,-361943,-472871
1783265987597522836,2026-07-05T22:39:47.597+07:00,540127562881090150,-338006,-307291,-361833,-472891
1783265987615704654,2026-07-05T22:39:47.615+07:00,540127562881090150,-337826,-307096,-361797,-472841
1783265987633886472,2026-07-05T22:39:47.633+07:00,540127562881090150,-337758,-307031,-361693,-472922
1783265987652068290,2026-07-05T22:39:47.652+07:00,540127562881090150,-337588,-306825,-361502,-472832
1783265987670250109,2026-07-05T22:39:47.670+07:00,540127562881090150,-337554,-306684,-361411,-472877
1783265987688431927,2026-07-05T22:39:47.688+07:00,540127562881090150,-337328,-306489,-361278,-472856
1783265987706613745,2026-07-05T22:39:47.706+07:00,540127562881090150,-337240,-306305,-361119,-472851
1783265987724795563,2026-07-05T22:39:47.724+07:00,540127562881090150,-337043,-306141,-360991,-472850
1783265987742977381,2026-07-05T22:39:47.742+07:00,540127562881090150,-336941,-305973,-360868,-472904
1783265987761159200,2026-07-05T22:39:47.761+07:00,540127562881090150,-336719,-305774,-360696,-472821
1783265987779341018,2026-07-05T22:39:47.779+07:00,540127562881090150,-336636,-305635,-360563,-472873
1783265987797522836,2026-07-05T22:39:47.797+07:00,540127562881090150,-336480,-305332,-360420,-472824
1783265987815704654,2026-07-05T22:39:47.815+07:00,540127562881090150,-336381,-305153,-360261,-472828
1783265987833886472,2026-07-05T22:39:47.833+07:00,540127562881090150,-336196,-305001,-360145,-472896
1783265987852068290,2026-07-05T22:39:47.852+07:00,540127562881090150,-336111,-304906,-360033,-472866
1783265987870250109,2026-07-05T22:39:47.870+07:00,540127562881090150,-336178,-304970,-360125,-472858
1783265987888431927,2026-07-05T22:39:47.888+07:00,540127562881090150,-336446,-305399,-360398,-472871
1783265987906613745,2026-07-05T22:39:47.906+07:00,540127562881090150,-336867,-305861,-360736,-472933
1783265987924795563,2026-07-05T22:39:47.924+07:00,540127562881090150,-337358,-306403,-361119,-472915
1783265987942977381,2026-07-05T22:39:47.942+07:00,540127562881090150,-337733,-306864,-361477,-472849
1783265987961159200,2026-07-05T22:39:47.961+07:00,540127562881090150,-338082,-307332,-361849,-472888
1783265987979341018,2026-07-05T22:39:47.979+07:00,540127562881090150,-338372,-307634,-362067,-472839
1783265987997522836,2026-07-05T22:39:47.997+07:00,540127562881090150,-338655,-307970,-362351,-472825
1783265988015704654,2026-07-05T22:39:48.015+07:00,540127562881090150,-338946,-308209,-362612,-472908
1783265988033886472,2026-07-05T22:39:48.033+07:00,540127562881090150,-339091,-308462,-362773,-472861
1783265988052068290,2026-07-05T22:39:48.052+07:00,540127562881090150,-339252,-308668,-362970,-472841
1783265988070250109,2026-07-05T22:39:48.070+07:00,540127562881090150,-339319,-308704,-363003,-472914
1783265988088431927,2026-07-05T22:39:48.088+07:00,540127562881090150,-339309,-308785,-363026,-472875
1783265988106613745,2026-07-05T22:39:48.106+07:00,540127562881090150,-339301,-308858,-363079,-472835
1783265988124795563,2026-07-05T22:39:48.124+07:00,540127562881090150,-339394,-308810,-363135,-472801
1783265988142977381,2026-07-05T22:39:48.142+07:00,540127562881090150,-339472,-308875,-363230,-472909
1783265988161159200,2026-07-05T22:39:48.161+07:00,540127562881090150,-339573,-308953,-363275,-472898
1783265988179341018,2026-07-05T22:39:48.179+07:00,540127562881090150,-339601,-308951,-363234,-472825
1783265988197522836,2026-07-05T22:39:48.197+07:00,540127562881090150,-339627,-309081,-363315,-472901
1783265988215704654,2026-07-05T22:39:48.215+07:00,540127562881090150,-339637,-309079,-363285,-472806
1783265988233886472,2026-07-05T22:39:48.233+07:00,540127562881090150,-339629,-309063,-363326,-472879
1783265988252068290,2026-07-05T22:39:48.252+07:00,540127562881090150,-339576,-309027,-363290,-472892
1783265988371747100,2026-07-05T22:39:48.371+07:00,540127563590629073,-339497,-308963,-363253,-472833
1783265988389928918,2026-07-05T22:39:48.389+07:00,540127563590629073,-339520,-308958,-363176,-472876
1783265988408110736,2026-07-05T22:39:48.408+07:00,540127563590629073,-339444,-308824,-363096,-472868
1783265988426292554,2026-07-05T22:39:48.426+07:00,540127563590629073,-339382,-308720,-363026,-472841
1783265988444474372,2026-07-05T22:39:48.444+07:00,540127563590629073,-339310,-308634,-362944,-472832
1783265988462656190,2026-07-05T22:39:48.462+07:00,540127563590629073,-339179,-308529,-362850,-472852
1783265988480838009,2026-07-05T22:39:48.480+07:00,540127563590629073,-339109,-308396,-362782,-472856
1783265988499019827,2026-07-05T22:39:48.499+07:00,540127563590629073,-338998,-308246,-362632,-472861
1783265988517201645,2026-07-05T22:39:48.517+07:00,540127563590629073,-338861,-308111,-362532,-472797
1783265988535383463,2026-07-05T22:39:48.535+07:00,540127563590629073,-338755,-307993,-362474,-472793
1783265988553565281,2026-07-05T22:39:48.553+07:00,540127563590629073,-338672,-307903,-362410,-472832
1783265988571747100,2026-07-05T22:39:48.571+07:00,540127563590629073,-338631,-307736,-362363,-472888
1783265988589928918,2026-07-05T22:39:48.589+07:00,540127563590629073,-338501,-307605,-362164,-472814
1783265988608110736,2026-07-05T22:39:48.608+07:00,540127563590629073,-338372,-307408,-362045,-472856
1783265988626292554,2026-07-05T22:39:48.626+07:00,540127563590629073,-338220,-307231,-361958,-472860
1783265988644474372,2026-07-05T22:39:48.644+07:00,540127563590629073,-338140,-307121,-361886,-472880
1783265988662656190,2026-07-05T22:39:48.662+07:00,540127563590629073,-338001,-306941,-361733,-472914
1783265988680838009,2026-07-05T22:39:48.680+07:00,540127563590629073,-337850,-306777,-361640,-472871
1783265988699019827,2026-07-05T22:39:48.699+07:00,540127563590629073,-337724,-306595,-361460,-472878
1783265988717201645,2026-07-05T22:39:48.717+07:00,540127563590629073,-337607,-306373,-361309,-472915
1783265988735383463,2026-07-05T22:39:48.735+07:00,540127563590629073,-337470,-306172,-361116,-472845
1783265988753565281,2026-07-05T22:39:48.753+07:00,540127563590629073,-337261,-305981,-360960,-472812
1783265988771747100,2026-07-05T22:39:48.771+07:00,540127563590629073,-337094,-305816,-360917,-472834
1783265988789928918,2026-07-05T22:39:48.789+07:00,540127563590629073,-337019,-305741,-360893,-472834
1783265988808110736,2026-07-05T22:39:48.808+07:00,540127563590629073,-337178,-305853,-360989,-472844
1783265988826292554,2026-07-05T22:39:48.826+07:00,540127563590629073,-337568,-306287,-361259,-472877
1783265988844474372,2026-07-05T22:39:48.844+07:00,540127563590629073,-337921,-306743,-361571,-472815
1783265988862656190,2026-07-05T22:39:48.862+07:00,540127563590629073,-338361,-307288,-361918,-472822
1783265988880838009,2026-07-05T22:39:48.880+07:00,540127563590629073,-338800,-307768,-362337,-472884
1783265988899019827,2026-07-05T22:39:48.899+07:00,540127563590629073,-339146,-308126,-362667,-472942
1783265988917201645,2026-07-05T22:39:48.917+07:00,540127563590629073,-339493,-308499,-362937,-472912
1783265988935383463,2026-07-05T22:39:48.935+07:00,540127563590629073,-339700,-308763,-363175,-472868
1783265988953565281,2026-07-05T22:39:48.953+07:00,540127563590629073,-339932,-309054,-363406,-472868
1783265988971747100,2026-07-05T22:39:48.971+07:00,540127563590629073,-340115,-309305,-363660,-472898
1783265988989928918,2026-07-05T22:39:48.989+07:00,540127563590629073,-340238,-309406,-363770,-472871
1783265989008110736,2026-07-05T22:39:49.008+07:00,540127563590629073,-340297,-309558,-363804,-472863
1783265989026292554,2026-07-05T22:39:49.026+07:00,540127563590629073,-340323,-309489,-363817,-472888
1783265989044474372,2026-07-05T22:39:49.044+07:00,540127563590629073,-340387,-309499,-363867,-472870
1783265989062656190,2026-07-05T22:39:49.062+07:00,540127563590629073,-340408,-309527,-363918,-472843
1783265989001171100,2026-07-05T22:39:49.001+07:00,540127564354747911,-340511,-309612,-363924,-472858
1783265989019352918,2026-07-05T22:39:49.019+07:00,540127564354747911,-340476,-309620,-364002,-472826
1783265989037534736,2026-07-05T22:39:49.037+07:00,540127564354747911,-340593,-309721,-364061,-472877
1783265989055716554,2026-07-05T22:39:49.055+07:00,540127564354747911,-340668,-309834,-364117,-472910
1783265989073898372,2026-07-05T22:39:49.073+07:00,540127564354747911,-340658,-309804,-364121,-472881
1783265989092080190,2026-07-05T22:39:49.092+07:00,540127564354747911,-340614,-309793,-364127,-472883
1783265989110262009,2026-07-05T22:39:49.110+07:00,540127564354747911,-340659,-309761,-364127,-472875
1783265989128443827,2026-07-05T22:39:49.128+07:00,540127564354747911,-340631,-309695,-364032,-472903
1783265989146625645,2026-07-05T22:39:49.146+07:00,540127564354747911,-340599,-309619,-363988,-472878
1783265989164807463,2026-07-05T22:39:49.164+07:00,540127564354747911,-340517,-309603,-363950,-472854
1783265989182989281,2026-07-05T22:39:49.182+07:00,540127564354747911,-340425,-309513,-363830,-472836
1783265989201171100,2026-07-05T22:39:49.201+07:00,540127564354747911,-340392,-309417,-363851,-472907
1783265989219352918,2026-07-05T22:39:49.219+07:00,540127564354747911,-340304,-309308,-363780,-472895
1783265989237534736,2026-07-05T22:39:49.237+07:00,540127564354747911,-340199,-309202,-363631,-472867
1783265989255716554,2026-07-05T22:39:49.255+07:00,540127564354747911,-340153,-309087,-363613,-472878
1783265989273898372,2026-07-05T22:39:49.273+07:00,540127564354747911,-340110,-309008,-363512,-472951
1783265989292080190,2026-07-05T22:39:49.292+07:00,540127564354747911,-339952,-308819,-363363,-472824
1783265989310262009,2026-07-05T22:39:49.310+07:00,540127564354747911,-339879,-308621,-363212,-472919
1783265989328443827,2026-07-05T22:39:49.328+07:00,540127564354747911,-339753,-308551,-363153,-472943
1783265989346625645,2026-07-05T22:39:49.346+07:00,540127564354747911,-339593,-308337,-363062,-472798
1783265989364807463,2026-07-05T22:39:49.364+07:00,540127564354747911,-339532,-308125,-362911,-472819
1783265989382989281,2026-07-05T22:39:49.382+07:00,540127564354747911,-339405,-308062,-362851,-472875
1783265989401171100,2026-07-05T22:39:49.401+07:00,540127564354747911,-339274,-307881,-362696,-472842
1783265989419352918,2026-07-05T22:39:49.419+07:00,540127564354747911,-339146,-307772,-362539,-472876
1783265989437534736,2026-07-05T22:39:49.437+07:00,540127564354747911,-339030,-307585,-362437,-472830
1783265989455716554,2026-07-05T22:39:49.455+07:00,540127564354747911,-338903,-307426,-362342,-472892
1783265989473898372,2026-07-05T22:39:49.473+07:00,540127564354747911,-338742,-307253,-362220,-472842
1783265989492080190,2026-07-05T22:39:49.492+07:00,540127564354747911,-338589,-307029,-362081,-472864
1783265989510262009,2026-07-05T22:39:49.510+07:00,540127564354747911,-338384,-306829,-361904,-472854
1783265989528443827,2026-07-05T22:39:49.528+07:00,540127564354747911,-338243,-306640,-361799,-472878
1783265989546625645,2026-07-05T22:39:49.546+07:00,540127564354747911,-338100,-306476,-361626,-472845
1783265989564807463,2026-07-05T22:39:49.564+07:00,540127564354747911,-338139,-306460,-361699,-472835
1783265989582989281,2026-07-05T22:39:49.582+07:00,540127564354747911,-338361,-306715,-361835,-472854
1783265989601171100,2026-07-05T22:39:49.601+07:00,540127564354747911,-338752,-307099,-362128,-472844
1783265989619352918,2026-07-05T22:39:49.619+07:00,540127564354747911,-339146,-307605,-362509,-472859
1783265989637534736,2026-07-05T22:39:49.637+07:00,540127564354747911,-339544,-308045,-362817,-472871
1783265989655716554,2026-07-05T22:39:49.655+07:00,540127564354747911,-339881,-308473,-363163,-472901
1783265989673898372,2026-07-05T22:39:49.673+07:00,540127564354747911,-340174,-308841,-363402,-472930
1783265989692080190,2026-07-05T22:39:49.692+07:00,540127564354747911,-340391,-309183,-363673,-472932
1783265989710262009,2026-07-05T22:39:49.710+07:00,540127564354747911,-340623,-309397,-363877,-472877
1783265989728443827,2026-07-05T22:39:49.728+07:00,540127564354747911,-340752,-309634,-364061,-472797
1783265989746625645,2026-07-05T22:39:49.746+07:00,540127564354747911,-340937,-309802,-364204,-472927
1783265989851477700,2026-07-05T22:39:49.851+07:00,540127565082480139,-340972,-309870,-364265,-472917
1783265989869659518,2026-07-05T22:39:49.869+07:00,540127565082480139,-340939,-309923,-364285,-472842
1783265989887841336,2026-07-05T22:39:49.887+07:00,540127565082480139,-340971,-309975,-364307,-472870
1783265989906023154,2026-07-05T22:39:49.906+07:00,540127565082480139,-340997,-309979,-364335,-472909
1783265989924204972,2026-07-05T22:39:49.924+07:00,540127565082480139,-341080,-309998,-364355,-472882
1783265989942386790,2026-07-05T22:39:49.942+07:00,540127565082480139,-341139,-310132,-364420,-472886
1783265989960568609,2026-07-05T22:39:49.960+07:00,540127565082480139,-341206,-310148,-364532,-472863
1783265989978750427,2026-07-05T22:39:49.978+07:00,540127565082480139,-341253,-310150,-364515,-472901
1783265989996932245,2026-07-05T22:39:49.996+07:00,540127565082480139,-341211,-310177,-364535,-472871
1783265990015114063,2026-07-05T22:39:50.015+07:00,540127565082480139,-341300,-310253,-364555,-472866
1783265990033295881,2026-07-05T22:39:50.033+07:00,540127565082480139,-341267,-310271,-364561,-472833
1783265990051477700,2026-07-05T22:39:50.051+07:00,540127565082480139,-341302,-310169,-364523,-472892
1783265990069659518,2026-07-05T22:39:50.069+07:00,540127565082480139,-341266,-310092,-364489,-472895
1783265990087841336,2026-07-05T22:39:50.087+07:00,540127565082480139,-341175,-310076,-364465,-472870
1783265990106023154,2026-07-05T22:39:50.106+07:00,540127565082480139,-341141,-310025,-364373,-472873
1783265990124204972,2026-07-05T22:39:50.124+07:00,540127565082480139,-341079,-309947,-364329,-472898
1783265990142386790,2026-07-05T22:39:50.142+07:00,540127565082480139,-341048,-309879,-364259,-472880
1783265990160568609,2026-07-05T22:39:50.160+07:00,540127565082480139,-340943,-309747,-364136,-472860
1783265990178750427,2026-07-05T22:39:50.178+07:00,540127565082480139,-340868,-309593,-364046,-472897
1783265990196932245,2026-07-05T22:39:50.196+07:00,540127565082480139,-340803,-309572,-364054,-472887
1783265990215114063,2026-07-05T22:39:50.215+07:00,540127565082480139,-340754,-309427,-363953,-472933
1783265990233295881,2026-07-05T22:39:50.233+07:00,540127565082480139,-340624,-309295,-363864,-472909
1783265990251477700,2026-07-05T22:39:50.251+07:00,540127565082480139,-340546,-309184,-363753,-472852
1783265990269659518,2026-07-05T22:39:50.269+07:00,540127565082480139,-340465,-309011,-363606,-472866
1783265990287841336,2026-07-05T22:39:50.287+07:00,540127565082480139,-340371,-308882,-363548,-472851
1783265990306023154,2026-07-05T22:39:50.306+07:00,540127565082480139,-340291,-308778,-363446,-472862
1783265990324204972,2026-07-05T22:39:50.324+07:00,540127565082480139,-340195,-308567,-363282,-472864
1783265990342386790,2026-07-05T22:39:50.342+07:00,540127565082480139,-340071,-308412,-363188,-472810
1783265990360568609,2026-07-05T22:39:50.360+07:00,540127565082480139,-340011,-308344,-363121,-472904
1783265990378750427,2026-07-05T22:39:50.378+07:00,540127565082480139,-339830,-308120,-362998,-472840
1783265990396932245,2026-07-05T22:39:50.396+07:00,540127565082480139,-339736,-308025,-362869,-472853
1783265990415114063,2026-07-05T22:39:50.415+07:00,540127565082480139,-339638,-307891,-362781,-472911
1783265990433295881,2026-07-05T22:39:50.433+07:00,540127565082480139,-339482,-307643,-362644,-472896
1783265990451477700,2026-07-05T22:39:50.451+07:00,540127565082480139,-339388,-307445,-362475,-472877
1783265990469659518,2026-07-05T22:39:50.469+07:00,540127565082480139,-339326,-307416,-362481,-472877
1783265990487841336,2026-07-05T22:39:50.487+07:00,540127565082480139,-339359,-307535,-362492,-472879
1783265990506023154,2026-07-05T22:39:50.506+07:00,540127565082480139,-339662,-307810,-362693,-472828
1783265990524204972,2026-07-05T22:39:50.524+07:00,540127565082480139,-339957,-308256,-363042,-472825
1783265990542386790,2026-07-05T22:39:50.542+07:00,540127565082480139,-340343,-308622,-363397,-472830
1783265990560568609,2026-07-05T22:39:50.560+07:00,540127565082480139,-340732,-309147,-363781,-472925
1783265990480965300,2026-07-05T22:39:50.480+07:00,540127565846598977,-341010,-309501,-364008,-472919
1783265990499147118,2026-07-05T22:39:50.499+07:00,540127565846598977,-341353,-309791,-364263,-472897
1783265990517328936,2026-07-05T22:39:50.517+07:00,540127565846598977,-341623,-310115,-364528,-472882
1783265990535510754,2026-07-05T22:39:50.535+07:00,540127565846598977,-341757,-310292,-364711,-472883
1783265990553692572,2026-07-05T22:39:50.553+07:00,540127565846598977,-341885,-310445,-364850,-472871
1783265990571874390,2026-07-05T22:39:50.571+07:00,540127565846598977,-342018,-310652,-364970,-472835
1783265990590056209,2026-07-05T22:39:50.590+07:00,540127565846598977,-342051,-310757,-365031,-472865
1783265990608238027,2026-07-05T22:39:50.608+07:00,540127565846598977,-342051,-310689,-365051,-472877
1783265990626419845,2026-07-05T22:39:50.626+07:00,540127565846598977,-342040,-310663,-365033,-472891
1783265990644601663,2026-07-05T22:39:50.644+07:00,540127565846598977,-342052,-310673,-365070,-472893
1783265990662783481,2026-07-05T22:39:50.662+07:00,540127565846598977,-342073,-310769,-365113,-472902
1783265990680965300,2026-07-05T22:39:50.680+07:00,540127565846598977,-342160,-310817,-365200,-472877
1783265990699147118,2026-07-05T22:39:50.699+07:00,540127565846598977,-342126,-310888,-365162,-472849
1783265990717328936,2026-07-05T22:39:50.717+07:00,540127565846598977,-342165,-310889,-365203,-472894
1783265990735510754,2026-07-05T22:39:50.735+07:00,540127565846598977,-342101,-310820,-365153,-472848
1783265990753692572,2026-07-05T22:39:50.753+07:00,540127565846598977,-342153,-310890,-365202,-472918
1783265990771874390,2026-07-05T22:39:50.771+07:00,540127565846598977,-342090,-310859,-365187,-472908
1783265990790056209,2026-07-05T22:39:50.790+07:00,540127565846598977,-342028,-310840,-365126,-472876
1783265990808238027,2026-07-05T22:39:50.808+07:00,540127565846598977,-341994,-310706,-365084,-472884
1783265990826419845,2026-07-05T22:39:50.826+07:00,540127565846598977,-341903,-310678,-365006,-472908
1783265990844601663,2026-07-05T22:39:50.844+07:00,540127565846598977,-341862,-310634,-364898,-472911
1783265990862783481,2026-07-05T22:39:50.862+07:00,540127565846598977,-341736,-310490,-364821,-472883
1783265990880965300,2026-07-05T22:39:50.880+07:00,540127565846598977,-341681,-310319,-364770,-472839
1783265990899147118,2026-07-05T22:39:50.899+07:00,540127565846598977,-341492,-310162,-364600,-472829
1783265990917328936,2026-07-05T22:39:50.917+07:00,540127565846598977,-341449,-309987,-364513,-472858
1783265990935510754,2026-07-05T22:39:50.935+07:00,540127565846598977,-341373,-309852,-364447,-472851
1783265990953692572,2026-07-05T22:39:50.953+07:00,540127565846598977,-341276,-309676,-364292,-472854
1783265990971874390,2026-07-05T22:39:50.971+07:00,540127565846598977,-341156,-309497,-364167,-472853
1783265990990056209,2026-07-05T22:39:50.990+07:00,540127565846598977,-340991,-309304,-364026,-472819
1783265991008238027,2026-07-05T22:39:51.008+07:00,540127565846598977,-340936,-309178,-363946,-472853
1783265991026419845,2026-07-05T22:39:51.026+07:00,540127565846598977,-340778,-308960,-363778,-472809
1783265991044601663,2026-07-05T22:39:51.044+07:00,540127565846598977,-340625,-308794,-363694,-472848
1783265991062783481,2026-07-05T22:39:51.062+07:00,540127565846598977,-340521,-308610,-363574,-472892
1783265991080965300,2026-07-05T22:39:51.080+07:00,540127565846598977,-340370,-308348,-363452,-472895
1783265991099147118,2026-07-05T22:39:51.099+07:00,540127565846598977,-340192,-308179,-363339,-472843
1783265991117328936,2026-07-05T22:39:51.117+07:00,540127565846598977,-339999,-307992,-363178,-472834
1783265991135510754,2026-07-05T22:39:51.135+07:00,540127565846598977,-339761,-307723,-363014,-472835
1783265991153692572,2026-07-05T22:39:51.153+07:00,540127565846598977,-339620,-307514,-362876,-472870
1783265991171874390,2026-07-05T22:39:51.171+07:00,540127565846598977,-339382,-307271,-362620,-472891
1783265991190056209,2026-07-05T22:39:51.190+07:00,540127565846598977,-339151,-306951,-362442,-472885
1783265991208238027,2026-07-05T22:39:51.208+07:00,540127565846598977,-338941,-306690,-362270,-472848
1783265991226419845,2026-07-05T22:39:51.226+07:00,540127565846598977,-338775,-306560,-362197,-472935
1783265991160991000,2026-07-05T22:39:51.160+07:00,540127566610748333,-338767,-306609,-362158,-472914
1783265991179172818,2026-07-05T22:39:51.179+07:00,540127566610748333,-338923,-306739,-362328,-472896
1783265991197354636,2026-07-05T22:39:51.197+07:00,540127566610748333,-339121,-306987,-362536,-472868
1783265991215536454,2026-07-05T22:39:51.215+07:00,540127566610748333,-339398,-307384,-362828,-472851
1783265991233718272,2026-07-05T22:39:51.233+07:00,540127566610748333,-339669,-307746,-363107,-472863
1783265991251900090,2026-07-05T22:39:51.251+07:00,540127566610748333,-339875,-308001,-363345,-472890
1783265991270081909,2026-07-05T22:39:51.270+07:00,540127566610748333,-339997,-308200,-363468,-472881
1783265991288263727,2026-07-05T22:39:51.288+07:00,540127566610748333,-340015,-308314,-363624,-472861
1783265991306445545,2026-07-05T22:39:51.306+07:00,540127566610748333,-340106,-308425,-363684,-472849
1783265991324627363,2026-07-05T22:39:51.324+07:00,540127566610748333,-340112,-308387,-363755,-472931
1783265991342809181,2026-07-05T22:39:51.342+07:00,540127566610748333,-340129,-308377,-363725,-472903
1783265991360991000,2026-07-05T22:39:51.360+07:00,540127566610748333,-340061,-308278,-363710,-472843
1783265991379172818,2026-07-05T22:39:51.379+07:00,540127566610748333,-339867,-308153,-363679,-472874
1783265991397354636,2026-07-05T22:39:51.397+07:00,540127566610748333,-339749,-307993,-363592,-472882
1783265991415536454,2026-07-05T22:39:51.415+07:00,540127566610748333,-339590,-307975,-363474,-472901
1783265991433718272,2026-07-05T22:39:51.433+07:00,540127566610748333,-339382,-307859,-363412,-472864
1783265991451900090,2026-07-05T22:39:51.451+07:00,540127566610748333,-339314,-307780,-363362,-472911
1783265991470081909,2026-07-05T22:39:51.470+07:00,540127566610748333,-339106,-307608,-363284,-472842
1783265991488263727,2026-07-05T22:39:51.488+07:00,540127566610748333,-338953,-307505,-363203,-472910
1783265991506445545,2026-07-05T22:39:51.506+07:00,540127566610748333,-338740,-307370,-363113,-472883
1783265991524627363,2026-07-05T22:39:51.524+07:00,540127566610748333,-338615,-307259,-363000,-472931
1783265991542809181,2026-07-05T22:39:51.542+07:00,540127566610748333,-338415,-307113,-362874,-472929
1783265991560991000,2026-07-05T22:39:51.560+07:00,540127566610748333,-338119,-306849,-362656,-472858
1783265991579172818,2026-07-05T22:39:51.579+07:00,540127566610748333,-337926,-306608,-362441,-472910
1783265991597354636,2026-07-05T22:39:51.597+07:00,540127566610748333,-337768,-306397,-362289,-472851
1783265991615536454,2026-07-05T22:39:51.615+07:00,540127566610748333,-337523,-306082,-362106,-472850
1783265991633718272,2026-07-05T22:39:51.633+07:00,540127566610748333,-337212,-305843,-361871,-472834
1783265991651900090,2026-07-05T22:39:51.651+07:00,540127566610748333,-336983,-305536,-361688,-472892
1783265991670081909,2026-07-05T22:39:51.670+07:00,540127566610748333,-336742,-305209,-361568,-472945
1783265991688263727,2026-07-05T22:39:51.688+07:00,540127566610748333,-336510,-305032,-361358,-472891
1783265991706445545,2026-07-05T22:39:51.706+07:00,540127566610748333,-336227,-304696,-361141,-472871
1783265991724627363,2026-07-05T22:39:51.724+07:00,540127566610748333,-335956,-304375,-360920,-472862
1783265991742809181,2026-07-05T22:39:51.742+07:00,540127566610748333,-335722,-304108,-360729,-472850
1783265991760991000,2026-07-05T22:39:51.760+07:00,540127566610748333,-335440,-303781,-360474,-472835
1783265991779172818,2026-07-05T22:39:51.779+07:00,540127566610748333,-335193,-303450,-360234,-472913
1783265991797354636,2026-07-05T22:39:51.797+07:00,540127566610748333,-334876,-303142,-360040,-472895
1783265991815536454,2026-07-05T22:39:51.815+07:00,540127566610748333,-334610,-302868,-359814,-472861
1783265991833718272,2026-07-05T22:39:51.833+07:00,540127566610748333,-334315,-302534,-359555,-472830
1783265991851900090,2026-07-05T22:39:51.851+07:00,540127566610748333,-334089,-302266,-359393,-472801
1783265991870081909,2026-07-05T22:39:51.870+07:00,540127566610748333,-333780,-301923,-359178,-472869
1783265991888263727,2026-07-05T22:39:51.888+07:00,540127566610748333,-333599,-301663,-358950,-472877
1783265991906445545,2026-07-05T22:39:51.906+07:00,540127566610748333,-333303,-301258,-358711,-472825
1783265992364599800,2026-07-05T22:39:52.364+07:00,540127567374836667,-333052,-300942,-358504,-472851
1783265992382781618,2026-07-05T22:39:52.382+07:00,540127567374836667,-332841,-300596,-358294,-472877
1783265992400963436,2026-07-05T22:39:52.400+07:00,540127567374836667,-332512,-300256,-358071,-472890
1783265992419145254,2026-07-05T22:39:52.419+07:00,540127567374836667,-332226,-299942,-357850,-472887
1783265992437327072,2026-07-05T22:39:52.437+07:00,540127567374836667,-332050,-299668,-357609,-472878
1783265992455508890,2026-07-05T22:39:52.455+07:00,540127567374836667,-331875,-299528,-357531,-472895
1783265992473690709,2026-07-05T22:39:52.473+07:00,540127567374836667,-331902,-299657,-357618,-472863
1783265992491872527,2026-07-05T22:39:52.491+07:00,540127567374836667,-332022,-299864,-357798,-472875
1783265992510054345,2026-07-05T22:39:52.510+07:00,540127567374836667,-332310,-300115,-358001,-472873
1783265992528236163,2026-07-05T22:39:52.528+07:00,540127567374836667,-332537,-300446,-358281,-472909
1783265992546417981,2026-07-05T22:39:52.546+07:00,540127567374836667,-332736,-300645,-358426,-472824
1783265992564599800,2026-07-05T22:39:52.564+07:00,540127567374836667,-332920,-300846,-358559,-472846
1783265992582781618,2026-07-05T22:39:52.582+07:00,540127567374836667,-332980,-300997,-358705,-472849
1783265992600963436,2026-07-05T22:39:52.600+07:00,540127567374836667,-333085,-301077,-358787,-472817
1783265992619145254,2026-07-05T22:39:52.619+07:00,540127567374836667,-333154,-301159,-358881,-472810
1783265992637327072,2026-07-05T22:39:52.637+07:00,540127567374836667,-333262,-301305,-358950,-472852
1783265992655508890,2026-07-05T22:39:52.655+07:00,540127567374836667,-333146,-301232,-358907,-472824
1783265992673690709,2026-07-05T22:39:52.673+07:00,540127567374836667,-333155,-301205,-358956,-472905
1783265992691872527,2026-07-05T22:39:52.691+07:00,540127567374836667,-333071,-301153,-358913,-472933
1783265992710054345,2026-07-05T22:39:52.710+07:00,540127567374836667,-332970,-301077,-358867,-472869
1783265992728236163,2026-07-05T22:39:52.728+07:00,540127567374836667,-332846,-301045,-358823,-472876
1783265992746417981,2026-07-05T22:39:52.746+07:00,540127567374836667,-332880,-301016,-358834,-472871
1783265992764599800,2026-07-05T22:39:52.764+07:00,540127567374836667,-332796,-300909,-358808,-472896
1783265992782781618,2026-07-05T22:39:52.782+07:00,540127567374836667,-332786,-300959,-358818,-472877
1783265992800963436,2026-07-05T22:39:52.800+07:00,540127567374836667,-332702,-300930,-358747,-472884
1783265992819145254,2026-07-05T22:39:52.819+07:00,540127567374836667,-332575,-300823,-358643,-472843
1783265992837327072,2026-07-05T22:39:52.837+07:00,540127567374836667,-332469,-300736,-358633,-472799
1783265992855508890,2026-07-05T22:39:52.855+07:00,540127567374836667,-332356,-300636,-358544,-472829
1783265992873690709,2026-07-05T22:39:52.873+07:00,540127567374836667,-332215,-300559,-358479,-472807
1783265992891872527,2026-07-05T22:39:52.891+07:00,540127567374836667,-332134,-300450,-358449,-472817
1783265992910054345,2026-07-05T22:39:52.910+07:00,540127567374836667,-331922,-300225,-358324,-472831
1783265992928236163,2026-07-05T22:39:52.928+07:00,540127567374836667,-331815,-300076,-358185,-472802
1783265992946417981,2026-07-05T22:39:52.946+07:00,540127567374836667,-331592,-299933,-358067,-472783
1783265992964599800,2026-07-05T22:39:52.964+07:00,540127567374836667,-331432,-299801,-357906,-472865
1783265992982781618,2026-07-05T22:39:52.982+07:00,540127567374836667,-331221,-299599,-357746,-472806
1783265993000963436,2026-07-05T22:39:53.000+07:00,540127567374836667,-331064,-299400,-357606,-472825
1783265993019145254,2026-07-05T22:39:53.019+07:00,540127567374836667,-330942,-299274,-357494,-472843
1783265993037327072,2026-07-05T22:39:53.037+07:00,540127567374836667,-330756,-299052,-357355,-472868
1783265993055508890,2026-07-05T22:39:53.055+07:00,540127567374836667,-330651,-298893,-357261,-472938
1783265993073690709,2026-07-05T22:39:53.073+07:00,540127567374836667,-330380,-298684,-357128,-472879
1783265993091872527,2026-07-05T22:39:53.091+07:00,540127567374836667,-330260,-298485,-356990,-472935
1783265993110054345,2026-07-05T22:39:53.110+07:00,540127567374836667,-330045,-298242,-356835,-472884
1783265993052343700,2026-07-05T22:39:53.052+07:00,540127568157154914,-329812,-298037,-356683,-472844
1783265993070525518,2026-07-05T22:39:53.070+07:00,540127568157154914,-329602,-297721,-356434,-472805
1783265993088707336,2026-07-05T22:39:53.088+07:00,540127568157154914,-329381,-297473,-356312,-472814
1783265993106889154,2026-07-05T22:39:53.106+07:00,540127568157154914,-329236,-297328,-356204,-472867
1783265993125070972,2026-07-05T22:39:53.125+07:00,540127568157154914,-329036,-297116,-355957,-472875
1783265993143252790,2026-07-05T22:39:53.143+07:00,540127568157154914,-328834,-296883,-355784,-472861
1783265993161434609,2026-07-05T22:39:53.161+07:00,540127568157154914,-328645,-296686,-355642,-472848
1783265993179616427,2026-07-05T22:39:53.179+07:00,540127568157154914,-328434,-296557,-355490,-472868
1783265993197798245,2026-07-05T22:39:53.197+07:00,540127568157154914,-328419,-296557,-355507,-472842
1783265993215980063,2026-07-05T22:39:53.215+07:00,540127568157154914,-328619,-296862,-355733,-472845
1783265993234161881,2026-07-05T22:39:53.234+07:00,540127568157154914,-328919,-297121,-355904,-472881
1783265993252343700,2026-07-05T22:39:53.252+07:00,540127568157154914,-329243,-297489,-356194,-472868
1783265993270525518,2026-07-05T22:39:53.270+07:00,540127568157154914,-329524,-297926,-356527,-472897
1783265993288707336,2026-07-05T22:39:53.288+07:00,540127568157154914,-329814,-298215,-356773,-472885
1783265993306889154,2026-07-05T22:39:53.306+07:00,540127568157154914,-329986,-298446,-356941,-472850
1783265993325070972,2026-07-05T22:39:53.325+07:00,540127568157154914,-330284,-298776,-357165,-472909
1783265993343252790,2026-07-05T22:39:53.343+07:00,540127568157154914,-330329,-298924,-357266,-472931
1783265993361434609,2026-07-05T22:39:53.361+07:00,540127568157154914,-330410,-299048,-357315,-472860
1783265993379616427,2026-07-05T22:39:53.379+07:00,540127568157154914,-330471,-299142,-357445,-472914
1783265993397798245,2026-07-05T22:39:53.397+07:00,540127568157154914,-330504,-299084,-357377,-472898
1783265993415980063,2026-07-05T22:39:53.415+07:00,540127568157154914,-330393,-299053,-357391,-472836
1783265993434161881,2026-07-05T22:39:53.434+07:00,540127568157154914,-330466,-299101,-357419,-472902
1783265993452343700,2026-07-05T22:39:53.452+07:00,540127568157154914,-330426,-299071,-357392,-472869
1783265993470525518,2026-07-05T22:39:53.470+07:00,540127568157154914,-330438,-299142,-357438,-472932
1783265993488707336,2026-07-05T22:39:53.488+07:00,540127568157154914,-330372,-299108,-357441,-472886
1783265993506889154,2026-07-05T22:39:53.506+07:00,540127568157154914,-330364,-299139,-357456,-472928
1783265993525070972,2026-07-05T22:39:53.525+07:00,540127568157154914,-330375,-299140,-357422,-472879
1783265993543252790,2026-07-05T22:39:53.543+07:00,540127568157154914,-330368,-299165,-357483,-472900
1783265993561434609,2026-07-05T22:39:53.561+07:00,540127568157154914,-330376,-299183,-357425,-472875
1783265993579616427,2026-07-05T22:39:53.579+07:00,540127568157154914,-330264,-299063,-357390,-472841
1783265993597798245,2026-07-05T22:39:53.597+07:00,540127568157154914,-330214,-298972,-357251,-472879
1783265993615980063,2026-07-05T22:39:53.615+07:00,540127568157154914,-330132,-298880,-357211,-472902
1783265993634161881,2026-07-05T22:39:53.634+07:00,540127568157154914,-329940,-298717,-357116,-472922
1783265993652343700,2026-07-05T22:39:53.652+07:00,540127568157154914,-329824,-298559,-357026,-472921
1783265993670525518,2026-07-05T22:39:53.670+07:00,540127568157154914,-329688,-298431,-356818,-472876
1783265993688707336,2026-07-05T22:39:53.688+07:00,540127568157154914,-329605,-298304,-356769,-472917
1783265993706889154,2026-07-05T22:39:53.706+07:00,540127568157154914,-329394,-298112,-356635,-472854
1783265993725070972,2026-07-05T22:39:53.725+07:00,540127568157154914,-329284,-297962,-356573,-472888
1783265993743252790,2026-07-05T22:39:53.743+07:00,540127568157154914,-329184,-297805,-356441,-472878
1783265993761434609,2026-07-05T22:39:53.761+07:00,540127568157154914,-329005,-297651,-356317,-472864
1783265993779616427,2026-07-05T22:39:53.779+07:00,540127568157154914,-328899,-297501,-356194,-472858
1783265993797798245,2026-07-05T22:39:53.797+07:00,540127568157154914,-328751,-297237,-356004,-472892
1783265993815980063,2026-07-05T22:39:53.815+07:00,540127568157154914,-328559,-297071,-355869,-472824
1783265993838035100,2026-07-05T22:39:53.838+07:00,540127568921267648,-328411,-296931,-355749,-472868
1783265993856216918,2026-07-05T22:39:53.856+07:00,540127568921267648,-328198,-296703,-355607,-472911
1783265993874398736,2026-07-05T22:39:53.874+07:00,540127568921267648,-328050,-296539,-355472,-472858
1783265993892580554,2026-07-05T22:39:53.892+07:00,540127568921267648,-327846,-296263,-355244,-472883
1783265993910762372,2026-07-05T22:39:53.910+07:00,540127568921267648,-327694,-296120,-355172,-472904
1783265993928944190,2026-07-05T22:39:53.928+07:00,540127568921267648,-327494,-295858,-354991,-472844
1783265993947126009,2026-07-05T22:39:53.947+07:00,540127568921267648,-327385,-295706,-354873,-472896
1783265993965307827,2026-07-05T22:39:53.965+07:00,540127568921267648,-327115,-295452,-354686,-472824
1783265993983489645,2026-07-05T22:39:53.983+07:00,540127568921267648,-326982,-295257,-354542,-472917
1783265994001671463,2026-07-05T22:39:54.001+07:00,540127568921267648,-326940,-295129,-354477,-472887
1783265994019853281,2026-07-05T22:39:54.019+07:00,540127568921267648,-327032,-295289,-354626,-472948
1783265994038035100,2026-07-05T22:39:54.038+07:00,540127568921267648,-327268,-295602,-354797,-472883
1783265994056216918,2026-07-05T22:39:54.056+07:00,540127568921267648,-327555,-295973,-355058,-472915
1783265994074398736,2026-07-05T22:39:54.074+07:00,540127568921267648,-327937,-296459,-355385,-472902
1783265994092580554,2026-07-05T22:39:54.092+07:00,540127568921267648,-328215,-296902,-355742,-472896
1783265994110762372,2026-07-05T22:39:54.110+07:00,540127568921267648,-328610,-297330,-356034,-472931
1783265994128944190,2026-07-05T22:39:54.128+07:00,540127568921267648,-328886,-297608,-356242,-472879
1783265994147126009,2026-07-05T22:39:54.147+07:00,540127568921267648,-329125,-297809,-356466,-472900
1783265994165307827,2026-07-05T22:39:54.165+07:00,540127568921267648,-329297,-298092,-356598,-472899
1783265994183489645,2026-07-05T22:39:54.183+07:00,540127568921267648,-329452,-298235,-356736,-472858
1783265994201671463,2026-07-05T22:39:54.201+07:00,540127568921267648,-329569,-298416,-356893,-472814
1783265994219853281,2026-07-05T22:39:54.219+07:00,540127568921267648,-329606,-298519,-356892,-472877
1783265994238035100,2026-07-05T22:39:54.238+07:00,540127568921267648,-329612,-298511,-356944,-472831
1783265994256216918,2026-07-05T22:39:54.256+07:00,540127568921267648,-329605,-298467,-356955,-472887
1783265994274398736,2026-07-05T22:39:54.274+07:00,540127568921267648,-329670,-298554,-357022,-472849
1783265994292580554,2026-07-05T22:39:54.292+07:00,540127568921267648,-329623,-298607,-357066,-472836
1783265994310762372,2026-07-05T22:39:54.310+07:00,540127568921267648,-329677,-298569,-356999,-472774
1783265994328944190,2026-07-05T22:39:54.328+07:00,540127568921267648,-329640,-298586,-357030,-472773
1783265994347126009,2026-07-05T22:39:54.347+07:00,540127568921267648,-329652,-298615,-357040,-472764
1783265994365307827,2026-07-05T22:39:54.365+07:00,540127568921267648,-329664,-298623,-357049,-472839
1783265994383489645,2026-07-05T22:39:54.383+07:00,540127568921267648,-329686,-298701,-357097,-472826
1783265994401671463,2026-07-05T22:39:54.401+07:00,540127568921267648,-329590,-298651,-357040,-472807
1783265994419853281,2026-07-05T22:39:54.419+07:00,540127568921267648,-329537,-298545,-356965,-472816
1783265994438035100,2026-07-05T22:39:54.438+07:00,540127568921267648,-329488,-298465,-356951,-472816
1783265994456216918,2026-07-05T22:39:54.456+07:00,540127568921267648,-329399,-298405,-356827,-472860
1783265994474398736,2026-07-05T22:39:54.474+07:00,540127568921267648,-329289,-298353,-356755,-472853
1783265994492580554,2026-07-05T22:39:54.492+07:00,540127568921267648,-329164,-298190,-356664,-472877
1783265994510762372,2026-07-05T22:39:54.510+07:00,540127568921267648,-329054,-298028,-356615,-472809
1783265994528944190,2026-07-05T22:39:54.528+07:00,540127568921267648,-328978,-297909,-356463,-472878
1783265994547126009,2026-07-05T22:39:54.547+07:00,540127568921267648,-328767,-297680,-356316,-472845
1783265994565307827,2026-07-05T22:39:54.565+07:00,540127568921267648,-328644,-297558,-356226,-472823
1783265994583489645,2026-07-05T22:39:54.583+07:00,540127568921267648,-328578,-297447,-356126,-472932
1783265994466081100,2026-07-05T22:39:54.466+07:00,540127569685386486,-328336,-297204,-355940,-472814
1783265994484262918,2026-07-05T22:39:54.484+07:00,540127569685386486,-328215,-296987,-355841,-472808
1783265994502444736,2026-07-05T22:39:54.502+07:00,540127569685386486,-328124,-296897,-355705,-472875
1783265994520626554,2026-07-05T22:39:54.520+07:00,540127569685386486,-327972,-296675,-355562,-472831
1783265994538808372,2026-07-05T22:39:54.538+07:00,540127569685386486,-327741,-296433,-355424,-472832
1783265994556990190,2026-07-05T22:39:54.556+07:00,540127569685386486,-327519,-296242,-355274,-472862
1783265994575172009,2026-07-05T22:39:54.575+07:00,540127569685386486,-327425,-296092,-355197,-472843
1783265994593353827,2026-07-05T22:39:54.593+07:00,540127569685386486,-327224,-295904,-354981,-472839
1783265994611535645,2026-07-05T22:39:54.611+07:00,540127569685386486,-327037,-295720,-354861,-472828
1783265994629717463,2026-07-05T22:39:54.629+07:00,540127569685386486,-326911,-295510,-354705,-472879
1783265994647899281,2026-07-05T22:39:54.647+07:00,540127569685386486,-326610,-295231,-354429,-472802
1783265994666081100,2026-07-05T22:39:54.666+07:00,540127569685386486,-326478,-295070,-354302,-472825
1783265994684262918,2026-07-05T22:39:54.684+07:00,540127569685386486,-326311,-294834,-354173,-472823
1783265994702444736,2026-07-05T22:39:54.702+07:00,540127569685386486,-326130,-294632,-353989,-472860
1783265994720626554,2026-07-05T22:39:54.720+07:00,540127569685386486,-326124,-294647,-354040,-472878
1783265994738808372,2026-07-05T22:39:54.738+07:00,540127569685386486,-326304,-294839,-354127,-472818
1783265994756990190,2026-07-05T22:39:54.756+07:00,540127569685386486,-326641,-295263,-354463,-472891
1783265994775172009,2026-07-05T22:39:54.775+07:00,540127569685386486,-327016,-295737,-354796,-472870
1783265994793353827,2026-07-05T22:39:54.793+07:00,540127569685386486,-327470,-296233,-355176,-472897
1783265994811535645,2026-07-05T22:39:54.811+07:00,540127569685386486,-327860,-296670,-355513,-472895
1783265994829717463,2026-07-05T22:39:54.829+07:00,540127569685386486,-328183,-297058,-355835,-472893
1783265994847899281,2026-07-05T22:39:54.847+07:00,540127569685386486,-328477,-297419,-356072,-472868
1783265994866081100,2026-07-05T22:39:54.866+07:00,540127569685386486,-328765,-297696,-356340,-472832
1783265994884262918,2026-07-05T22:39:54.884+07:00,540127569685386486,-328997,-297989,-356499,-472871
1783265994902444736,2026-07-05T22:39:54.902+07:00,540127569685386486,-329212,-298188,-356697,-472944
1783265994920626554,2026-07-05T22:39:54.920+07:00,540127569685386486,-329296,-298362,-356759,-472840
1783265994938808372,2026-07-05T22:39:54.938+07:00,540127569685386486,-329381,-298448,-356821,-472876
1783265994956990190,2026-07-05T22:39:54.956+07:00,540127569685386486,-329514,-298576,-356895,-472926
1783265994975172009,2026-07-05T22:39:54.975+07:00,540127569685386486,-329483,-298551,-356905,-472829
1783265994993353827,2026-07-05T22:39:54.993+07:00,540127569685386486,-329554,-298650,-357026,-472849
1783265995011535645,2026-07-05T22:39:55.011+07:00,540127569685386486,-329580,-298680,-357037,-472822
1783265995029717463,2026-07-05T22:39:55.029+07:00,540127569685386486,-329699,-298744,-357074,-472892
1783265995047899281,2026-07-05T22:39:55.047+07:00,540127569685386486,-329645,-298798,-357075,-472840
1783265995066081100,2026-07-05T22:39:55.066+07:00,540127569685386486,-329784,-298880,-357163,-472881
1783265995084262918,2026-07-05T22:39:55.084+07:00,540127569685386486,-329748,-298916,-357125,-472839
1783265995102444736,2026-07-05T22:39:55.102+07:00,540127569685386486,-329762,-298952,-357160,-472853
1783265995120626554,2026-07-05T22:39:55.120+07:00,540127569685386486,-329791,-298818,-357092,-472884
1783265995138808372,2026-07-05T22:39:55.138+07:00,540127569685386486,-329712,-298829,-357110,-472908
1783265995156990190,2026-07-05T22:39:55.156+07:00,540127569685386486,-329641,-298776,-357039,-472911
1783265995175172009,2026-07-05T22:39:55.175+07:00,540127569685386486,-329538,-298687,-356925,-472903
1783265995193353827,2026-07-05T22:39:55.193+07:00,540127569685386486,-329517,-298604,-356888,-472874
1783265995211535645,2026-07-05T22:39:55.211+07:00,540127569685386486,-329408,-298461,-356843,-472950
1783265995291077000,2026-07-05T22:39:55.291+07:00,540127570376750416,-329333,-298317,-356769,-472998
1783265995309258818,2026-07-05T22:39:55.309+07:00,540127570376750416,-329187,-298200,-356684,-472939
1783265995327440636,2026-07-05T22:39:55.327+07:00,540127570376750416,-329028,-298052,-356528,-472920
1783265995345622454,2026-07-05T22:39:55.345+07:00,540127570376750416,-328903,-297887,-356448,-472898
1783265995363804272,2026-07-05T22:39:55.363+07:00,540127570376750416,-328791,-297720,-356359,-472870
1783265995381986090,2026-07-05T22:39:55.381+07:00,540127570376750416,-328654,-297637,-356240,-472887
1783265995400167909,2026-07-05T22:39:55.400+07:00,540127570376750416,-328520,-297446,-356129,-472916
1783265995418349727,2026-07-05T22:39:55.418+07:00,540127570376750416,-328347,-297205,-355932,-472845
1783265995436531545,2026-07-05T22:39:55.436+07:00,540127570376750416,-328228,-297028,-355791,-472850
1783265995454713363,2026-07-05T22:39:55.454+07:00,540127570376750416,-328158,-296944,-355728,-472904
1783265995472895181,2026-07-05T22:39:55.472+07:00,540127570376750416,-327918,-296731,-355541,-472908
1783265995491077000,2026-07-05T22:39:55.491+07:00,540127570376750416,-327797,-296594,-355450,-472896
1783265995509258818,2026-07-05T22:39:55.509+07:00,540127570376750416,-327644,-296427,-355317,-472895
1783265995527440636,2026-07-05T22:39:55.527+07:00,540127570376750416,-327500,-296140,-355147,-472890
1783265995545622454,2026-07-05T22:39:55.545+07:00,540127570376750416,-327316,-295962,-354983,-472849
1783265995563804272,2026-07-05T22:39:55.563+07:00,540127570376750416,-327110,-295784,-354851,-472829
1783265995581986090,2026-07-05T22:39:55.581+07:00,540127570376750416,-326960,-295578,-354657,-472865
1783265995600167909,2026-07-05T22:39:55.600+07:00,540127570376750416,-326755,-295339,-354529,-472902
1783265995618349727,2026-07-05T22:39:55.618+07:00,540127570376750416,-326675,-295259,-354429,-472852
