host_timestamp_ns,host_timestamp_iso,pmd_timestamp,ppg0,ppg1,ppg2,ambient
1783265226624417500,2026-07-05T22:27:06.624+07:00,540126802025125455,347455,337549,341894,176238
1783265226642599318,2026-07-05T22:27:06.642+07:00,540126802025125455,347398,337639,341826,176265
1783265226660781136,2026-07-05T22:27:06.660+07:00,540126802025125455,347435,337493,341850,176397
1783265226678962954,2026-07-05T22:27:06.678+07:00,540126802025125455,347499,337598,342087,176234
1783265226697144772,2026-07-05T22:27:06.697+07:00,540126802025125455,347497,337610,342135,176287
1783265226715326590,2026-07-05T22:27:06.715+07:00,540126802025125455,347484,337540,342065,176124
1783265226733508409,2026-07-05T22:27:06.733+07:00,540126802025125455,347591,337620,342106,176194
1783265226751690227,2026-07-05T22:27:06.751+07:00,540126802025125455,347609,337640,341858,176184
1783265226769872045,2026-07-05T22:27:06.769+07:00,540126802025125455,347388,337536,341921,176323
1783265226788053863,2026-07-05T22:27:06.788+07:00,540126802025125455,347376,337571,341782,176259
1783265226806235681,2026-07-05T22:27:06.806+07:00,540126802025125455,347397,337657,341823,176338
1783265226824417500,2026-07-05T22:27:06.824+07:00,540126802025125455,347484,337654,341995,176249
1783265226842599318,2026-07-05T22:27:06.842+07:00,540126802025125455,347398,337721,341881,176269
1783265226860781136,2026-07-05T22:27:06.860+07:00,540126802025125455,347582,337787,341836,176294
1783265226878962954,2026-07-05T22:27:06.878+07:00,540126802025125455,347517,337713,342039,176326
1783265226897144772,2026-07-05T22:27:06.897+07:00,540126802025125455,347407,337695,341898,176342
1783265226915326590,2026-07-05T22:27:06.915+07:00,540126802025125455,347356,337538,341896,176133
1783265226933508409,2026-07-05T22:27:06.933+07:00,540126802025125455,347512,337500,341992,176162
1783265226951690227,2026-07-05T22:27:06.951+07:00,540126802025125455,347488,337660,341813,176093
1783265226969872045,2026-07-05T22:27:06.969+07:00,540126802025125455,347396,337525,341943,176225
1783265226988053863,2026-07-05T22:27:06.988+07:00,540126802025125455,347540,337715,341950,176202
1783265227006235681,2026-07-05T22:27:07.006+07:00,540126802025125455,347542,337730,342039,176158
1783265227024417500,2026-07-05T22:27:07.024+07:00,540126802025125455,347580,337737,342054,176223
1783265227042599318,2026-07-05T22:27:07.042+07:00,540126802025125455,347600,337636,342118,176147
1783265227060781136,2026-07-05T22:27:07.060+07:00,540126802025125455,347462,337549,342055,176293
1783265227078962954,2026-07-05T22:27:07.078+07:00,540126802025125455,347547,337721,341932,176264
1783265227097144772,2026-07-05T22:27:07.097+07:00,540126802025125455,347475,337528,341937,176149
1783265227115326590,2026-07-05T22:27:07.115+07:00,540126802025125455,347403,337556,341913,176176
1783265227133508409,2026-07-05T22:27:07.133+07:00,540126802025125455,347370,337667,341860,176270
1783265227151690227,2026-07-05T22:27:07.151+07:00,540126802025125455,347294,337687,342000,176223
1783265227169872045,2026-07-05T22:27:07.169+07:00,540126802025125455,347470,337676,341870,176321
1783265227188053863,2026-07-05T22:27:07.188+07:00,540126802025125455,347571,337623,341986,176141
1783265227206235681,2026-07-05T22:27:07.206+07:00,540126802025125455,347670,337643,342038,176057
1783265227224417500,2026-07-05T22:27:07.224+07:00,540126802025125455,347619,337771,342049,176127
1783265227242599318,2026-07-05T22:27:07.242+07:00,540126802025125455,347658,337759,342146,176112
1783265227260781136,2026-07-05T22:27:07.260+07:00,540126802025125455,348556,338810,343216,177091
1783265227278962954,2026-07-05T22:27:07.278+07:00,540126802025125455,349003,339251,343625,177693
1783265227297144772,2026-07-05T22:27:07.297+07:00,540126802025125455,349127,339463,343695,177954
1783265227315326590,2026-07-05T22:27:07.315+07:00,540126802025125455,349291,339332,343761,177962
1783265227689549300,2026-07-05T22:27:07.689+07:00,540126802789726478,349308,339326,343857,177891
1783265227707731118,2026-07-05T22:27:07.707+07:00,540126802789726478,349193,339441,343881,177869
1783265227725912936,2026-07-05T22:27:07.725+07:00,540126802789726478,349264,339419,343801,178061
1783265227744094754,2026-07-05T22:27:07.744+07:00,540126802789726478,349365,339562,343831,178035
1783265227762276572,2026-07-05T22:27:07.762+07:00,540126802789726478,349304,339511,343730,178107
1783265227780458390,2026-07-05T22:27:07.780+07:00,540126802789726478,349273,339351,343731,178057
1783265227798640209,2026-07-05T22:27:07.798+07:00,540126802789726478,349209,339446,343729,178157
1783265227816822027,2026-07-05T22:27:07.816+07:00,540126802789726478,349313,339395,343779,178156
1783265227835003845,2026-07-05T22:27:07.835+07:00,540126802789726478,349400,339554,343717,178107
1783265227853185663,2026-07-05T22:27:07.853+07:00,540126802789726478,349434,339621,343804,178116
1783265227871367481,2026-07-05T22:27:07.871+07:00,540126802789726478,349417,339634,343911,178081
1783265227889549300,2026-07-05T22:27:07.889+07:00,540126802789726478,349432,339447,343947,177971
1783265227907731118,2026-07-05T22:27:07.907+07:00,540126802789726478,349457,339650,343925,177881
1783265227925912936,2026-07-05T22:27:07.925+07:00,540126802789726478,349325,339599,343983,178008
1783265227944094754,2026-07-05T22:27:07.944+07:00,540126802789726478,349184,339422,343878,178075
1783265227962276572,2026-07-05T22:27:07.962+07:00,540126802789726478,349201,339285,343880,177945
1783265227980458390,2026-07-05T22:27:07.980+07:00,540126802789726478,349180,339311,343785,178024
1783265227998640209,2026-07-05T22:27:07.998+07:00,540126802789726478,349257,339362,343829,177944
1783265228016822027,2026-07-05T22:27:08.016+07:00,540126802789726478,349189,339189,343747,178015
1783265228035003845,2026-07-05T22:27:08.035+07:00,540126802789726478,349262,339362,343647,178059
1783265228053185663,2026-07-05T22:27:08.053+07:00,540126802789726478,349196,339462,343693,178124
1783265228071367481,2026-07-05T22:27:08.071+07:00,540126802789726478,349335,339424,343987,177949
1783265228089549300,2026-07-05T22:27:08.089+07:00,540126802789726478,349390,339473,344037,177920
1783265228107731118,2026-07-05T22:27:08.107+07:00,540126802789726478,349239,339536,344119,178008
1783265228125912936,2026-07-05T22:27:08.125+07:00,540126802789726478,349500,339708,343991,178070
1783265228144094754,2026-07-05T22:27:08.144+07:00,540126802789726478,349505,339699,343885,178017
1783265228162276572,2026-07-05T22:27:08.162+07:00,540126802789726478,349352,339640,343785,178084
1783265228180458390,2026-07-05T22:27:08.180+07:00,540126802789726478,349279,339486,343907,178026
1783265228198640209,2026-07-05T22:27:08.198+07:00,540126802789726478,349223,339543,343742,177991
1783265228216822027,2026-07-05T22:27:08.216+07:00,540126802789726478,349017,339309,343828,178033
1783265228235003845,2026-07-05T22:27:08.235+07:00,540126802789726478,349082,339295,343839,178153
1783265228253185663,2026-07-05T22:27:08.253+07:00,540126802789726478,349020,339346,343871,178104
1783265228271367481,2026-07-05T22:27:08.271+07:00,540126802789726478,349158,339276,343867,177959
1783265228289549300,2026-07-05T22:27:08.289+07:00,540126802789726478,349145,339238,343870,177884
1783265228307731118,2026-07-05T22:27:08.307+07:00,540126802789726478,349343,339497,343803,177980
1783265228325912936,2026-07-05T22:27:08.325+07:00,540126802789726478,349241,339401,343896,178023
1783265228344094754,2026-07-05T22:27:08.344+07:00,540126802789726478,349206,339507,343843,178088
1783265228362276572,2026-07-05T22:27:08.362+07:00,540126802789726478,349342,339453,344005,178054
1783265228380458390,2026-07-05T22:27:08.380+07:00,540126802789726478,349397,339682,343992,178134
1783265228398640209,2026-07-05T22:27:08.398+07:00,540126802789726478,349396,339545,343953,178017
1783265228416822027,2026-07-05T22:27:08.416+07:00,540126802789726478,349405,339635,343923,177874
1783265228435003845,2026-07-05T22:27:08.435+07:00,540126802789726478,349295,339510,344015,178001
1783265228464393000,2026-07-05T22:27:08.464+07:00,540126803554387010,349220,339334,343898,178069
1783265228482574818,2026-07-05T22:27:08.482+07:00,540126803554387010,349233,339353,343878,177968
1783265228500756636,2026-07-05T22:27:08.500+07:00,540126803554387010,349252,339416,343811,178023
1783265228518938454,2026-07-05T22:27:08.518+07:00,540126803554387010,349229,339274,343827,178116
1783265228537120272,2026-07-05T22:27:08.537+07:00,540126803554387010,349355,339429,343703,178103
1783265228555302090,2026-07-05T22:27:08.555+07:00,540126803554387010,349334,339478,343646,178044
1783265228573483909,2026-07-05T22:27:08.573+07:00,540126803554387010,349253,339495,343807,178087
1783265228591665727,2026-07-05T22:27:08.591+07:00,540126803554387010,349244,339596,343856,178082
1783265228609847545,2026-07-05T22:27:08.609+07:00,540126803554387010,349258,339711,343833,178107
1783265228628029363,2026-07-05T22:27:08.628+07:00,540126803554387010,349502,339553,343860,178140
1783265228646211181,2026-07-05T22:27:08.646+07:00,540126803554387010,349553,339644,343963,178117
1783265228664393000,2026-07-05T22:27:08.664+07:00,540126803554387010,349535,339703,343897,178032
1783265228682574818,2026-07-05T22:27:08.682+07:00,540126803554387010,349498,339566,343901,178066
1783265228700756636,2026-07-05T22:27:08.700+07:00,540126803554387010,349422,339472,343906,177955
1783265228718938454,2026-07-05T22:27:08.718+07:00,540126803554387010,349406,339552,343797,178019
1783265228737120272,2026-07-05T22:27:08.737+07:00,540126803554387010,349414,339603,343854,177890
1783265228755302090,2026-07-05T22:27:08.755+07:00,540126803554387010,349417,339581,343863,177925
1783265228773483909,2026-07-05T22:27:08.773+07:00,540126803554387010,349298,339532,343798,178078
1783265228791665727,2026-07-05T22:27:08.791+07:00,540126803554387010,349274,339528,343742,178084
1783265228809847545,2026-07-05T22:27:08.809+07:00,540126803554387010,349212,339526,343711,178113
1783265228828029363,2026-07-05T22:27:08.828+07:00,540126803554387010,349388,339419,343733,178107
1783265228846211181,2026-07-05T22:27:08.846+07:00,540126803554387010,349384,339495,343831,178133
1783265228864393000,2026-07-05T22:27:08.864+07:00,540126803554387010,349486,339470,343934,178115
1783265228882574818,2026-07-05T22:27:08.882+07:00,540126803554387010,349503,339632,343969,178091
1783265228900756636,2026-07-05T22:27:08.900+07:00,540126803554387010,349453,339615,343929,178134
1783265228918938454,2026-07-05T22:27:08.918+07:00,540126803554387010,349401,339498,343994,178156
1783265228937120272,2026-07-05T22:27:08.937+07:00,540126803554387010,349430,339551,343796,178024
1783265228955302090,2026-07-05T22:27:08.955+07:00,540126803554387010,349389,339558,343772,178087
1783265228973483909,2026-07-05T22:27:08.973+07:00,540126803554387010,349283,339446,343880,178068
1783265228991665727,2026-07-05T22:27:08.991+07:00,540126803554387010,349233,339514,343861,178052
1783265229009847545,2026-07-05T22:27:09.009+07:00,540126803554387010,349367,339497,343918,178060
1783265229028029363,2026-07-05T22:27:09.028+07:00,540126803554387010,349212,339497,343940,178091
1783265229046211181,2026-07-05T22:27:09.046+07:00,540126803554387010,349314,339560,343841,177976
1783265229064393000,2026-07-05T22:27:09.064+07:00,540126803554387010,349261,339453,343880,178077
1783265229082574818,2026-07-05T22:27:09.082+07:00,540126803554387010,349263,339609,343849,178104
1783265229100756636,2026-07-05T22:27:09.100+07:00,540126803554387010,349425,339469,343986,177979
1783265229118938454,2026-07-05T22:27:09.118+07:00,540126803554387010,349376,339523,343980,177864
1783265229137120272,2026-07-05T22:27:09.137+07:00,540126803554387010,349519,339626,343892,177956
1783265229155302090,2026-07-05T22:27:09.155+07:00,540126803554387010,349503,339693,343787,178110
1783265229173483909,2026-07-05T22:27:09.173+07:00,540126803554387010,349472,339510,343952,178025
1783265229191665727,2026-07-05T22:27:09.191+07:00,540126803554387010,349415,339416,343939,177928
1783265229209847545,2026-07-05T22:27:09.209+07:00,540126803554387010,349381,339305,343935,177930
1783265229257998600,2026-07-05T22:27:09.257+07:00,540126804319049068,349262,339304,343950,178077
1783265229276180418,2026-07-05T22:27:09.276+07:00,540126804319049068,349138,339214,343905,178062
1783265229294362236,2026-07-05T22:27:09.294+07:00,540126804319049068,349280,339429,343976,178011
1783265229312544054,2026-07-05T22:27:09.312+07:00,540126804319049068,349345,339399,343940,178048
1783265229330725872,2026-07-05T22:27:09.330+07:00,540126804319049068,349384,339393,343932,177916
1783265229348907690,2026-07-05T22:27:09.348+07:00,540126804319049068,349221,339363,343926,178036
1783265229367089509,2026-07-05T22:27:09.367+07:00,540126804319049068,349425,339532,343938,177928
1783265229385271327,2026-07-05T22:27:09.385+07:00,540126804319049068,349465,339655,343857,178039
1783265229403453145,2026-07-05T22:27:09.403+07:00,540126804319049068,349520,339568,343960,177873
1783265229421634963,2026-07-05T22:27:09.421+07:00,540126804319049068,349530,339546,343995,177931
1783265229439816781,2026-07-05T22:27:09.439+07:00,540126804319049068,349514,339553,343964,177985
1783265229457998600,2026-07-05T22:27:09.457+07:00,540126804319049068,349298,339579,344005,178104
1783265229476180418,2026-07-05T22:27:09.476+07:00,540126804319049068,349357,339510,344023,177969
1783265229494362236,2026-07-05T22:27:09.494+07:00,540126804319049068,349325,339532,343809,177950
1783265229512544054,2026-07-05T22:27:09.512+07:00,540126804319049068,349378,339505,343888,177916
1783265229530725872,2026-07-05T22:27:09.530+07:00,540126804319049068,349203,339548,343751,177963
1783265229548907690,2026-07-05T22:27:09.548+07:00,540126804319049068,349372,339604,343795,178006
1783265229567089509,2026-07-05T22:27:09.567+07:00,540126804319049068,349267,339413,343885,178089
1783265229585271327,2026-07-05T22:27:09.585+07:00,540126804319049068,349213,339391,343956,178021
1783265229603453145,2026-07-05T22:27:09.603+07:00,540126804319049068,349446,339499,343960,178001
1783265229621634963,2026-07-05T22:27:09.621+07:00,540126804319049068,349465,339573,343987,177998
1783265229639816781,2026-07-05T22:27:09.639+07:00,540126804319049068,349478,339675,344017,178058
1783265229657998600,2026-07-05T22:27:09.657+07:00,540126804319049068,349489,339497,343999,178099
1783265229676180418,2026-07-05T22:27:09.676+07:00,540126804319049068,349431,339548,344063,177920
1783265229694362236,2026-07-05T22:27:09.694+07:00,540126804319049068,349401,339471,344032,178020
1783265229712544054,2026-07-05T22:27:09.712+07:00,540126804319049068,349282,339566,343914,178076
1783265229730725872,2026-07-05T22:27:09.730+07:00,540126804319049068,349363,339453,343919,177978
1783265229748907690,2026-07-05T22:27:09.748+07:00,540126804319049068,349415,339413,343969,177914
1783265229767089509,2026-07-05T22:27:09.767+07:00,540126804319049068,349422,339471,343879,178071
1783265229785271327,2026-07-05T22:27:09.785+07:00,540126804319049068,349403,339501,343967,177958
1783265229803453145,2026-07-05T22:27:09.803+07:00,540126804319049068,349383,339394,343975,178036
1783265229821634963,2026-07-05T22:27:09.821+07:00,540126804319049068,349429,339519,343917,178094
1783265229839816781,2026-07-05T22:27:09.839+07:00,540126804319049068,349514,339489,344042,178084
1783265229857998600,2026-07-05T22:27:09.857+07:00,540126804319049068,349622,339509,343911,178066
1783265229876180418,2026-07-05T22:27:09.876+07:00,540126804319049068,349491,339577,344022,177933
1783265229894362236,2026-07-05T22:27:09.894+07:00,540126804319049068,349445,339744,343953,178057
1783265229912544054,2026-07-05T22:27:09.912+07:00,540126804319049068,349391,339778,343918,178077
1783265229930725872,2026-07-05T22:27:09.930+07:00,540126804319049068,349410,339568,343937,177947
1783265229948907690,2026-07-05T22:27:09.948+07:00,540126804319049068,349397,339500,343973,177992
1783265229967089509,2026-07-05T22:27:09.967+07:00,540126804319049068,349482,339519,343860,178051
1783265229985271327,2026-07-05T22:27:09.985+07:00,540126804319049068,349476,339512,343931,177911
1783265230003453145,2026-07-05T22:27:10.003+07:00,540126804319049068,349418,339428,343958,177836
1783265229994185800,2026-07-05T22:27:09.994+07:00,540126805083711126,349325,339569,343860,178013
1783265230012367618,2026-07-05T22:27:10.012+07:00,540126805083711126,349349,339641,343860,178048
1783265230030549436,2026-07-05T22:27:10.030+07:00,540126805083711126,349416,339444,343886,178164
1783265230048731254,2026-07-05T22:27:10.048+07:00,540126805083711126,349294,339447,343970,178000
1783265230066913072,2026-07-05T22:27:10.066+07:00,540126805083711126,349341,339564,343833,178085
1783265230085094890,2026-07-05T22:27:10.085+07:00,540126805083711126,349314,339588,343787,178125
1783265230103276709,2026-07-05T22:27:10.103+07:00,540126805083711126,349393,339581,343911,178020
1783265230121458527,2026-07-05T22:27:10.121+07:00,540126805083711126,349345,339515,344054,177982
1783265230139640345,2026-07-05T22:27:10.139+07:00,540126805083711126,349480,339703,344044,177945
1783265230157822163,2026-07-05T22:27:10.157+07:00,540126805083711126,349418,339667,343854,177997
1783265230176003981,2026-07-05T22:27:10.176+07:00,540126805083711126,349445,339596,343950,177908
1783265230194185800,2026-07-05T22:27:10.194+07:00,540126805083711126,349317,339606,343865,177976
1783265230212367618,2026-07-05T22:27:10.212+07:00,540126805083711126,349250,339674,343836,178109
1783265230230549436,2026-07-05T22:27:10.230+07:00,540126805083711126,349365,339651,343789,177900
1783265230248731254,2026-07-05T22:27:10.248+07:00,540126805083711126,349369,339549,343915,178112
1783265230266913072,2026-07-05T22:27:10.266+07:00,540126805083711126,349419,339540,343983,177922
1783265230285094890,2026-07-05T22:27:10.285+07:00,540126805083711126,349505,339502,344068,177889
1783265230303276709,2026-07-05T22:27:10.303+07:00,540126805083711126,349448,339591,343986,177976
1783265230321458527,2026-07-05T22:27:10.321+07:00,540126805083711126,349306,339564,343911,178092
1783265230339640345,2026-07-05T22:27:10.339+07:00,540126805083711126,349273,339514,343989,178107
1783265230357822163,2026-07-05T22:27:10.357+07:00,540126805083711126,349427,339663,343984,178064
1783265230376003981,2026-07-05T22:27:10.376+07:00,540126805083711126,349476,339557,344145,177996
1783265230394185800,2026-07-05T22:27:10.394+07:00,540126805083711126,349577,339506,344105,177932
1783265230412367618,2026-07-05T22:27:10.412+07:00,540126805083711126,349480,339482,344034,177883
1783265230430549436,2026-07-05T22:27:10.430+07:00,540126805083711126,349534,339481,343889,178018
1783265230448731254,2026-07-05T22:27:10.448+07:00,540126805083711126,349440,339492,343984,177929
1783265230466913072,2026-07-05T22:27:10.466+07:00,540126805083711126,349363,339586,343802,178062
1783265230485094890,2026-07-05T22:27:10.485+07:00,540126805083711126,349283,339590,343799,178105
1783265230503276709,2026-07-05T22:27:10.503+07:00,540126805083711126,349390,339567,344022,178059
1783265230521458527,2026-07-05T22:27:10.521+07:00,540126805083711126,349295,339675,343856,178076
1783265230539640345,2026-07-05T22:27:10.539+07:00,540126805083711126,349464,339528,343866,178117
1783265230557822163,2026-07-05T22:27:10.557+07:00,540126805083711126,349381,339480,343974,177939
1783265230576003981,2026-07-05T22:27:10.576+07:00,540126805083711126,349334,339309,343897,177921
1783265230594185800,2026-07-05T22:27:10.594+07:00,540126805083711126,349453,339483,343987,177898
1783265230612367618,2026-07-05T22:27:10.612+07:00,540126805083711126,349429,339596,343899,177953
1783265230630549436,2026-07-05T22:27:10.630+07:00,540126805083711126,349399,339600,344089,178115
1783265230648731254,2026-07-05T22:27:10.648+07:00,540126805083711126,349553,339700,343973,178055
1783265230666913072,2026-07-05T22:27:10.666+07:00,540126805083711126,349624,339726,344106,177937
1783265230685094890,2026-07-05T22:27:10.685+07:00,540126805083711126,349564,339689,344078,177848
1783265230703276709,2026-07-05T22:27:10.703+07:00,540126805083711126,349436,339540,343966,177855
1783265230721458527,2026-07-05T22:27:10.721+07:00,540126805083711126,349466,339599,343923,177932
1783265230739640345,2026-07-05T22:27:10.739+07:00,540126805083711126,349392,339655,343921,177747
1783265230774377900,2026-07-05T22:27:10.774+07:00,540126805848328941,349530,339745,343875,178023
1783265230792559718,2026-07-05T22:27:10.792+07:00,540126805848328941,349504,339619,343967,177993
1783265230810741536,2026-07-05T22:27:10.810+07:00,540126805848328941,349226,339533,343721,178020
1783265230828923354,2026-07-05T22:27:10.828+07:00,540126805848328941,349357,339555,343907,177945
1783265230847105172,2026-07-05T22:27:10.847+07:00,540126805848328941,349363,339712,344038,177853
1783265230865286990,2026-07-05T22:27:10.865+07:00,540126805848328941,349374,339619,343836,177987
1783265230883468809,2026-07-05T22:27:10.883+07:00,540126805848328941,349425,339587,343897,177849
1783265230901650627,2026-07-05T22:27:10.901+07:00,540126805848328941,349637,339636,344012,177881
1783265230919832445,2026-07-05T22:27:10.919+07:00,540126805848328941,349446,339699,343900,178061
1783265230938014263,2026-07-05T22:27:10.938+07:00,540126805848328941,349300,339587,343844,178049
1783265230956196081,2026-07-05T22:27:10.956+07:00,540126805848328941,349474,339795,343967,177918
1783265230974377900,2026-07-05T22:27:10.974+07:00,540126805848328941,349407,339584,343943,178030
1783265230992559718,2026-07-05T22:27:10.992+07:00,540126805848328941,349311,339569,343907,178084
1783265231010741536,2026-07-05T22:27:11.010+07:00,540126805848328941,349363,339489,343868,177908
1783265231028923354,2026-07-05T22:27:11.028+07:00,540126805848328941,349512,339454,343964,177928
1783265231047105172,2026-07-05T22:27:11.047+07:00,540126805848328941,349510,339507,344066,177986
1783265231065286990,2026-07-05T22:27:11.065+07:00,540126805848328941,349632,339768,344193,177924
1783265231083468809,2026-07-05T22:27:11.083+07:00,540126805848328941,349312,339450,343948,177951
1783265231101650627,2026-07-05T22:27:11.101+07:00,540126805848328941,349214,339361,343826,177952
1783265231119832445,2026-07-05T22:27:11.119+07:00,540126805848328941,349250,339526,343802,177917
1783265231138014263,2026-07-05T22:27:11.138+07:00,540126805848328941,349453,339765,344010,177991
1783265231156196081,2026-07-05T22:27:11.156+07:00,540126805848328941,349446,339674,343810,177897
1783265231174377900,2026-07-05T22:27:11.174+07:00,540126805848328941,349273,339481,343858,178013
1783265231192559718,2026-07-05T22:27:11.192+07:00,540126805848328941,349367,339697,343901,178006
1783265231210741536,2026-07-05T22:27:11.210+07:00,540126805848328941,349383,339465,343887,177917
1783265231228923354,2026-07-05T22:27:11.228+07:00,540126805848328941,349449,339596,343905,177904
1783265231247105172,2026-07-05T22:27:11.247+07:00,540126805848328941,349553,339738,343954,177731
1783265231265286990,2026-07-05T22:27:11.265+07:00,540126805848328941,349571,339686,343806,177840
1783265231283468809,2026-07-05T22:27:11.283+07:00,540126805848328941,349566,339604,343894,177742
1783265231301650627,2026-07-05T22:27:11.301+07:00,540126805848328941,349639,339698,343974,177779
1783265231319832445,2026-07-05T22:27:11.319+07:00,540126805848328941,349571,339580,343988,177788
1783265231338014263,2026-07-05T22:27:11.338+07:00,540126805848328941,349476,339555,343907,177743
1783265231356196081,2026-07-05T22:27:11.356+07:00,540126805848328941,349667,339739,343874,177878
1783265231374377900,2026-07-05T22:27:11.374+07:00,540126805848328941,349612,339722,344044,177743
1783265231392559718,2026-07-05T22:27:11.392+07:00,540126805848328941,349559,339691,344063,177826
1783265231410741536,2026-07-05T22:27:11.410+07:00,540126805848328941,349441,339694,343863,177888
1783265231428923354,2026-07-05T22:27:11.428+07:00,540126805848328941,349306,339622,343868,177889
1783265231447105172,2026-07-05T22:27:11.447+07:00,540126805848328941,349322,339625,343801,177796
1783265231465286990,2026-07-05T22:27:11.465+07:00,540126805848328941,349164,339411,343832,177941
1783265231483468809,2026-07-05T22:27:11.483+07:00,540126805848328941,349211,339531,343853,177990
1783265231501650627,2026-07-05T22:27:11.501+07:00,540126805848328941,349368,339494,343923,177893
1783265231519832445,2026-07-05T22:27:11.519+07:00,540126805848328941,349386,339647,343829,177871
1783265231364297400,2026-07-05T22:27:11.364+07:00,540126806485566140,349470,339642,343898,177881
1783265231382479218,2026-07-05T22:27:11.382+07:00,540126806485566140,349520,339789,343827,177835
1783265231400661036,2026-07-05T22:27:11.400+07:00,540126806485566140,349550,339758,343853,177744
1783265231418842854,2026-07-05T22:27:11.418+07:00,540126806485566140,349583,339704,343965,177725
1783265231437024672,2026-07-05T22:27:11.437+07:00,540126806485566140,349358,339773,343883,177872
1783265231455206490,2026-07-05T22:27:11.455+07:00,540126806485566140,349410,339681,343941,177767
1783265231473388309,2026-07-05T22:27:11.473+07:00,540126806485566140,349477,339677,343813,177781
1783265231491570127,2026-07-05T22:27:11.491+07:00,540126806485566140,349451,339644,343953,177705
1783265231509751945,2026-07-05T22:27:11.509+07:00,540126806485566140,349444,339622,343934,177666
1783265231527933763,2026-07-05T22:27:11.527+07:00,540126806485566140,349376,339551,343739,177734
1783265231546115581,2026-07-05T22:27:11.546+07:00,540126806485566140,349213,339488,343655,177792
1783265231564297400,2026-07-05T22:27:11.564+07:00,540126806485566140,349210,339595,343771,177772
1783265231582479218,2026-07-05T22:27:11.582+07:00,540126806485566140,349320,339631,343820,177625
1783265231600661036,2026-07-05T22:27:11.600+07:00,540126806485566140,349382,339541,343747,177681
1783265231618842854,2026-07-05T22:27:11.618+07:00,540126806485566140,349202,339455,343652,177719
1783265231637024672,2026-07-05T22:27:11.637+07:00,540126806485566140,349395,339518,343756,177718
1783265231655206490,2026-07-05T22:27:11.655+07:00,540126806485566140,349240,339539,343737,177770
1783265231673388309,2026-07-05T22:27:11.673+07:00,540126806485566140,349289,339642,343891,177669
1783265231691570127,2026-07-05T22:27:11.691+07:00,540126806485566140,349286,339555,343900,177770
1783265231709751945,2026-07-05T22:27:11.709+07:00,540126806485566140,349155,339435,343793,177793
1783265231727933763,2026-07-05T22:27:11.727+07:00,540126806485566140,349308,339500,343845,177677
1783265231746115581,2026-07-05T22:27:11.746+07:00,540126806485566140,349393,339443,343875,177673
1783265231764297400,2026-07-05T22:27:11.764+07:00,540126806485566140,349283,339443,343775,177676
1783265231782479218,2026-07-05T22:27:11.782+07:00,540126806485566140,349378,339438,343648,177754
1783265231800661036,2026-07-05T22:27:11.800+07:00,540126806485566140,349480,339547,343670,177705
1783265231818842854,2026-07-05T22:27:11.818+07:00,540126806485566140,349533,339615,343886,177662
1783265231837024672,2026-07-05T22:27:11.837+07:00,540126806485566140,349970,339305,344105,177212
1783265231855206490,2026-07-05T22:27:11.855+07:00,540126806485566140,351977,339640,345037,176956
1783265231873388309,2026-07-05T22:27:11.873+07:00,540126806485566140,352980,339853,345547,176757
1783265231891570127,2026-07-05T22:27:11.891+07:00,540126806485566140,353566,339962,345691,176660
1783265231909751945,2026-07-05T22:27:11.909+07:00,540126806485566140,353129,339686,345305,176498
1783265231927933763,2026-07-05T22:27:11.927+07:00,540126806485566140,350705,339125,344533,176671
1783265231946115581,2026-07-05T22:27:11.946+07:00,540126806485566140,351562,340927,345759,176538
1783265231964297400,2026-07-05T22:27:11.964+07:00,540126806485566140,351532,340916,345845,176370
1783265231982479218,2026-07-05T22:27:11.982+07:00,540126806485566140,350289,340074,344906,176422
1783265231783946700,2026-07-05T22:27:11.783+07:00,540126806886087422,350202,339972,344854,176236
1783265231802128518,2026-07-05T22:27:11.802+07:00,540126806886087422,350630,340370,345043,175985
1783265231820310336,2026-07-05T22:27:11.820+07:00,540126806886087422,356585,346125,349838,175481
1783265231838492154,2026-07-05T22:27:11.838+07:00,540126806886087422,407397,395584,396168,174269
1783265231856673972,2026-07-05T22:27:11.856+07:00,540126806886087422,413642,400417,401507,174449
1783265231874855790,2026-07-05T22:27:11.874+07:00,540126806886087422,409270,395956,397994,174899
1783265231893037609,2026-07-05T22:27:11.893+07:00,540126806886087422,406539,393445,395928,174896
1783265231911219427,2026-07-05T22:27:11.911+07:00,540126806886087422,399150,386917,389754,174805
1783265231929401245,2026-07-05T22:27:11.929+07:00,540126806886087422,365260,354227,359939,175779
1783265231947583063,2026-07-05T22:27:11.947+07:00,540126806886087422,313679,303944,314044,178481
1783265231965764881,2026-07-05T22:27:11.965+07:00,540126806886087422,298687,285879,295312,181744
1783265231983946700,2026-07-05T22:27:11.983+07:00,540126806886087422,267523,259695,264110,185012
1783265232002128518,2026-07-05T22:27:12.002+07:00,540126806886087422,249339,243128,247620,189615
1783265232020310336,2026-07-05T22:27:12.020+07:00,540126806886087422,256938,250616,259465,205803
1783265232038492154,2026-07-05T22:27:12.038+07:00,540126806886087422,257682,254339,263063,212370
1783265232056673972,2026-07-05T22:27:12.056+07:00,540126806886087422,256876,253424,262445,209811
1783265232074855790,2026-07-05T22:27:12.074+07:00,540126806886087422,243633,239712,251377,196109
1783265232093037609,2026-07-05T22:27:12.093+07:00,540126806886087422,237271,233224,245705,190502
1783265232111219427,2026-07-05T22:27:12.111+07:00,540126806886087422,232634,228899,239695,189815
1783265232129401245,2026-07-05T22:27:12.129+07:00,540126806886087422,230129,226456,234445,190949
1783265232147583063,2026-07-05T22:27:12.147+07:00,540126806886087422,232446,228935,234128,194402
1783265232165764881,2026-07-05T22:27:12.165+07:00,540126806886087422,230737,227592,231130,194152
1783265232162159900,2026-07-05T22:27:12.162+07:00,540126807359449064,231573,228854,231306,193791
1783265232180341718,2026-07-05T22:27:12.180+07:00,540126807359449064,234931,232235,232932,193892
1783265232198523536,2026-07-05T22:27:12.198+07:00,540126807359449064,237684,234674,235556,194152
1783265232216705354,2026-07-05T22:27:12.216+07:00,540126807359449064,253422,252271,251747,211124
1783265232234887172,2026-07-05T22:27:12.234+07:00,540126807359449064,253996,253071,251468,209465
1783265232253068990,2026-07-05T22:27:12.253+07:00,540126807359449064,244512,243023,241955,202161
1783265232271250809,2026-07-05T22:27:12.271+07:00,540126807359449064,236721,235669,233353,193532
1783265232289432627,2026-07-05T22:27:12.289+07:00,540126807359449064,232140,231217,228986,190483
1783265232307614445,2026-07-05T22:27:12.307+07:00,540126807359449064,230603,229136,227558,189038
1783265232325796263,2026-07-05T22:27:12.325+07:00,540126807359449064,230251,228692,227473,189395
1783265232343978081,2026-07-05T22:27:12.343+07:00,540126807359449064,230843,230051,229675,190781
1783265232362159900,2026-07-05T22:27:12.362+07:00,540126807359449064,234919,232716,232272,193824
1783265232380341718,2026-07-05T22:27:12.380+07:00,540126807359449064,237695,233268,236887,195725
1783265232398523536,2026-07-05T22:27:12.398+07:00,540126807359449064,238166,232707,239165,197015
1783265232416705354,2026-07-05T22:27:12.416+07:00,540126807359449064,238299,231344,241188,196403
1783265232434887172,2026-07-05T22:27:12.434+07:00,540126807359449064,237580,230603,242262,198437
1783265232453068990,2026-07-05T22:27:12.453+07:00,540126807359449064,246312,239030,248594,206169
1783265232471250809,2026-07-05T22:27:12.471+07:00,540126807359449064,261139,251509,262028,219639
1783265232489432627,2026-07-05T22:27:12.489+07:00,540126807359449064,278063,264376,273813,227036
1783265232507614445,2026-07-05T22:27:12.507+07:00,540126807359449064,298283,279078,288820,231765
1783265232525796263,2026-07-05T22:27:12.525+07:00,540126807359449064,319505,296265,300979,233871
1783265232543978081,2026-07-05T22:27:12.543+07:00,540126807359449064,337190,308421,312573,236259
1783265232562159900,2026-07-05T22:27:12.562+07:00,540126807359449064,335216,306990,313279,230783
1783265232580341718,2026-07-05T22:27:12.580+07:00,540126807359449064,327156,300272,309106,228284
1783265232598523536,2026-07-05T22:27:12.598+07:00,540126807359449064,322506,296123,307657,224141
1783265232616705354,2026-07-05T22:27:12.616+07:00,540126807359449064,313776,288411,300621,219236
1783265232413741400,2026-07-05T22:27:12.413+07:00,540126807741777040,301747,277036,290787,214057
1783265232431923218,2026-07-05T22:27:12.431+07:00,540126807741777040,293321,269528,281742,212521
1783265232450105036,2026-07-05T22:27:12.450+07:00,540126807741777040,292488,268732,284303,211646
1783265232468286854,2026-07-05T22:27:12.468+07:00,540126807741777040,299861,277151,291154,212489
1783265232486468672,2026-07-05T22:27:12.486+07:00,540126807741777040,308138,282610,298324,212453
1783265232504650490,2026-07-05T22:27:12.504+07:00,540126807741777040,317338,289354,307025,210628
1783265232522832309,2026-07-05T22:27:12.522+07:00,540126807741777040,335648,308166,323395,208998
1783265232541014127,2026-07-05T22:27:12.541+07:00,540126807741777040,346211,318330,336528,209757
1783265232559195945,2026-07-05T22:27:12.559+07:00,540126807741777040,356902,329327,348943,207839
1783265232577377763,2026-07-05T22:27:12.577+07:00,540126807741777040,362421,335521,357596,207295
1783265232595559581,2026-07-05T22:27:12.595+07:00,540126807741777040,359446,334977,356458,211306
1783265232613741400,2026-07-05T22:27:12.613+07:00,540126807741777040,363403,338560,361932,215101
1783265232631923218,2026-07-05T22:27:12.631+07:00,540126807741777040,376152,350522,377749,222364
1783265232650105036,2026-07-05T22:27:12.650+07:00,540126807741777040,394477,371990,398978,225423
1783265232668286854,2026-07-05T22:27:12.668+07:00,540126807741777040,404621,381912,410697,229021
1783265232686468672,2026-07-05T22:27:12.686+07:00,540126807741777040,412884,395096,417126,225646
1783265232704650490,2026-07-05T22:27:12.704+07:00,540126807741777040,424422,415698,431425,217478
1783265232722832309,2026-07-05T22:27:12.722+07:00,540126807741777040,484152,480885,493876,200946
1783265232741014127,2026-07-05T22:27:12.741+07:00,540126807741777040,895571,875538,921767,189032
1783265232759195945,2026-07-05T22:27:12.759+07:00,540126807741777040,960852,1345143,1206951,180806
1783265232777377763,2026-07-05T22:27:12.777+07:00,540126807741777040,1451654,1718108,1558985,178320
1783265232774893900,2026-07-05T22:27:12.774+07:00,540126808069476274,1635485,1838871,1673056,177340
1783265232793075718,2026-07-05T22:27:12.793+07:00,540126808069476274,1716551,1909451,1798251,177783
1783265232811257536,2026-07-05T22:27:12.811+07:00,540126808069476274,1992329,2059854,2030652,178323
1783265232829439354,2026-07-05T22:27:12.829+07:00,540126808069476274,2096921,2092690,2096921,178027
1783265232847621172,2026-07-05T22:27:12.847+07:00,540126808069476274,2096921,1995452,2017073,178238
1783265232865802990,2026-07-05T22:27:12.865+07:00,540126808069476274,2053894,1984173,1970010,178948
1783265232883984809,2026-07-05T22:27:12.883+07:00,540126808069476274,1193195,1464161,1284604,177657
1783265232902166627,2026-07-05T22:27:12.902+07:00,540126808069476274,750556,860772,852742,176568
1783265232920348445,2026-07-05T22:27:12.920+07:00,540126808069476274,550925,598740,637729,177145
1783265232938530263,2026-07-05T22:27:12.938+07:00,540126808069476274,469113,479355,534007,177679
1783265232956712081,2026-07-05T22:27:12.956+07:00,540126808069476274,440281,427348,500478,178034
1783265232974893900,2026-07-05T22:27:12.974+07:00,540126808069476274,438426,401177,502052,178746
1783265232993075718,2026-07-05T22:27:12.993+07:00,540126808069476274,442718,390924,525612,179400
1783265233011257536,2026-07-05T22:27:13.011+07:00,540126808069476274,433225,361413,489190,177697
1783265233029439354,2026-07-05T22:27:13.029+07:00,540126808069476274,411373,342446,431780,176071
1783265233047621172,2026-07-05T22:27:13.047+07:00,540126808069476274,390044,329486,387245,174978
1783265233065802990,2026-07-05T22:27:13.065+07:00,540126808069476274,372999,319558,351753,174295
1783265233083984809,2026-07-05T22:27:13.083+07:00,540126808069476274,375382,307932,322333,173502
1783265233318946400,2026-07-05T22:27:13.318+07:00,540126808451810356,418972,319486,310124,173230
1783265233337128218,2026-07-05T22:27:13.337+07:00,540126808451810356,468674,365663,312709,173216
1783265233355310036,2026-07-05T22:27:13.355+07:00,540126808451810356,519717,418370,319324,173264
1783265233373491854,2026-07-05T22:27:13.373+07:00,540126808451810356,560260,471905,326099,173270
1783265233391673672,2026-07-05T22:27:13.391+07:00,540126808451810356,492690,517364,321110,173161
1783265233409855490,2026-07-05T22:27:13.409+07:00,540126808451810356,441995,505257,353732,173113
1783265233428037309,2026-07-05T22:27:13.428+07:00,540126808451810356,460023,464416,435398,173173
1783265233446219127,2026-07-05T22:27:13.446+07:00,540126808451810356,578209,452063,535738,173337
1783265233464400945,2026-07-05T22:27:13.464+07:00,540126808451810356,734177,497881,627947,173514
1783265233482582763,2026-07-05T22:27:13.482+07:00,540126808451810356,846551,584238,727334,173705
1783265233500764581,2026-07-05T22:27:13.500+07:00,540126808451810356,904557,654295,775013,173639
1783265233518946400,2026-07-05T22:27:13.518+07:00,540126808451810356,881109,673227,757721,173539
1783265233537128218,2026-07-05T22:27:13.537+07:00,540126808451810356,796567,640085,694942,173496
1783265233555310036,2026-07-05T22:27:13.555+07:00,540126808451810356,769558,616486,680365,173684
1783265233573491854,2026-07-05T22:27:13.573+07:00,540126808451810356,814533,641658,719732,174389
1783265233591673672,2026-07-05T22:27:13.591+07:00,540126808451810356,772033,704827,744851,174624
1783265233609855490,2026-07-05T22:27:13.609+07:00,540126808451810356,1099202,1143299,1127199,179333
1783265233628037309,2026-07-05T22:27:13.628+07:00,540126808451810356,1356558,1303307,1368617,191373
1783265233646219127,2026-07-05T22:27:13.646+07:00,540126808451810356,1422842,1407269,1448130,191674
1783265233664400945,2026-07-05T22:27:13.664+07:00,540126808451810356,1249737,1423538,1335221,189021
1783265233682582763,2026-07-05T22:27:13.682+07:00,540126808451810356,1170663,1423641,1269611,188571
1783265233537836200,2026-07-05T22:27:13.537+07:00,540126808834138332,1178395,1435952,1277233,188878
1783265233556018018,2026-07-05T22:27:13.556+07:00,540126808834138332,1273964,1453731,1344676,190516
1783265233574199836,2026-07-05T22:27:13.574+07:00,540126808834138332,1356071,1450754,1419870,193514
1783265233592381654,2026-07-05T22:27:13.592+07:00,540126808834138332,1339602,1445053,1437308,194440
1783265233610563472,2026-07-05T22:27:13.610+07:00,540126808834138332,1177833,1431717,1388470,187516
1783265233628745290,2026-07-05T22:27:13.628+07:00,540126808834138332,870405,1161997,1181812,182017
1783265233646927109,2026-07-05T22:27:13.646+07:00,540126808834138332,715616,822435,913128,178301
1783265233665108927,2026-07-05T22:27:13.665+07:00,540126808834138332,576729,576699,609667,175306
1783265233683290745,2026-07-05T22:27:13.683+07:00,540126808834138332,506892,465723,467149,173902
1783265233701472563,2026-07-05T22:27:13.701+07:00,540126808834138332,506412,440517,410563,173361
1783265233719654381,2026-07-05T22:27:13.719+07:00,540126808834138332,547097,468821,412923,173235
1783265233737836200,2026-07-05T22:27:13.737+07:00,540126808834138332,571460,485945,414322,173219
1783265233756018018,2026-07-05T22:27:13.756+07:00,540126808834138332,566757,479294,400323,173172
1783265233774199836,2026-07-05T22:27:13.774+07:00,540126808834138332,570953,482358,399249,173108
1783265233792381654,2026-07-05T22:27:13.792+07:00,540126808834138332,595178,510046,430232,173134
1783265233810563472,2026-07-05T22:27:13.810+07:00,540126808834138332,638626,562841,499147,173145
1783265233828745290,2026-07-05T22:27:13.828+07:00,540126808834138332,707749,636305,602931,173272
1783265233846927109,2026-07-05T22:27:13.846+07:00,540126808834138332,802910,726887,748791,173356
1783265233865108927,2026-07-05T22:27:13.865+07:00,540126808834138332,892993,811265,948823,173514
1783265233883290745,2026-07-05T22:27:13.883+07:00,540126808834138332,899496,839424,1084972,173812
1783265233901472563,2026-07-05T22:27:13.901+07:00,540126808834138332,919717,917233,1340191,174434
1783265233904038100,2026-07-05T22:27:13.904+07:00,540126809216454102,919277,934898,1458401,174986
1783265233922219918,2026-07-05T22:27:13.922+07:00,540126809216454102,961568,997621,1622664,175565
1783265233940401736,2026-07-05T22:27:13.940+07:00,540126809216454102,910026,949591,1571923,175681
1783265233958583554,2026-07-05T22:27:13.958+07:00,540126809216454102,851660,870224,1452872,175523
1783265233976765372,2026-07-05T22:27:13.976+07:00,540126809216454102,855087,896011,1529547,176280
1783265233994947190,2026-07-05T22:27:13.994+07:00,540126809216454102,1019905,1140063,1667031,178162
1783265234013129009,2026-07-05T22:27:14.013+07:00,540126809216454102,1363447,1398722,1677661,182325
1783265234031310827,2026-07-05T22:27:14.031+07:00,540126809216454102,1416109,1349995,1520798,186794
1783265234049492645,2026-07-05T22:27:14.049+07:00,540126809216454102,1301627,1201493,1324447,191019
1783265234067674463,2026-07-05T22:27:14.067+07:00,540126809216454102,1331142,1197216,1323327,192569
1783265234085856281,2026-07-05T22:27:14.085+07:00,540126809216454102,1403948,1251692,1374917,191031
1783265234104038100,2026-07-05T22:27:14.104+07:00,540126809216454102,1452304,1288810,1416733,191449
1783265234122219918,2026-07-05T22:27:14.122+07:00,540126809216454102,1529653,1377477,1510317,189655
1783265234140401736,2026-07-05T22:27:14.140+07:00,540126809216454102,1572822,1467940,1605685,187833
1783265234158583554,2026-07-05T22:27:14.158+07:00,540126809216454102,1541355,1504625,1649987,187087
1783265234176765372,2026-07-05T22:27:14.176+07:00,540126809216454102,1459936,1506409,1662524,185356
1783265234194947190,2026-07-05T22:27:14.194+07:00,540126809216454102,1315391,1462720,1651446,181862
1783265234213129009,2026-07-05T22:27:14.213+07:00,540126809216454102,1133087,1334124,1611478,179686
1783265234231310827,2026-07-05T22:27:14.231+07:00,540126809216454102,922072,1020093,1440675,177780
1783265234249492645,2026-07-05T22:27:14.249+07:00,540126809216454102,783299,764448,1102597,175936
1783265234267674463,2026-07-05T22:27:14.267+07:00,540126809216454102,666901,605385,777374,174538
1783265234273798200,2026-07-05T22:27:14.273+07:00,540126809598792762,593321,517818,598145,173740
1783265234291980018,2026-07-05T22:27:14.291+07:00,540126809598792762,568152,492740,533755,173467
1783265234310161836,2026-07-05T22:27:14.310+07:00,540126809598792762,549435,485850,519743,173229
1783265234328343654,2026-07-05T22:27:14.328+07:00,540126809598792762,486242,396631,484497,173091
1783265234346525472,2026-07-05T22:27:14.346+07:00,540126809598792762,450138,341033,439837,172952
1783265234364707290,2026-07-05T22:27:14.364+07:00,540126809598792762,438073,318958,412885,172912
1783265234382889109,2026-07-05T22:27:14.382+07:00,540126809598792762,436375,310300,401091,172919
1783265234401070927,2026-07-05T22:27:14.401+07:00,540126809598792762,439382,308646,399400,172948
1783265234419252745,2026-07-05T22:27:14.419+07:00,540126809598792762,447304,316163,404197,172949
1783265234437434563,2026-07-05T22:27:14.437+07:00,540126809598792762,487375,362079,420039,172983
1783265234455616381,2026-07-05T22:27:14.455+07:00,540126809598792762,591549,460309,500423,173113
1783265234473798200,2026-07-05T22:27:14.473+07:00,540126809598792762,714146,586869,704088,173325
1783265234491980018,2026-07-05T22:27:14.491+07:00,540126809598792762,791999,704644,990422,173725
1783265234510161836,2026-07-05T22:27:14.510+07:00,540126809598792762,838176,779597,1196699,174037
1783265234528343654,2026-07-05T22:27:14.528+07:00,540126809598792762,849972,809418,1306067,174270
1783265234546525472,2026-07-05T22:27:14.546+07:00,540126809598792762,871794,848971,1419050,174457
1783265234564707290,2026-07-05T22:27:14.564+07:00,540126809598792762,918113,912076,1570618,174751
1783265234582889109,2026-07-05T22:27:14.582+07:00,540126809598792762,1121496,1212349,1838098,175502
1783265234601070927,2026-07-05T22:27:14.601+07:00,540126809598792762,1406806,1515747,1942668,176677
1783265234619252745,2026-07-05T22:27:14.619+07:00,540126809598792762,1553085,1614374,1857901,177935
1783265234637434563,2026-07-05T22:27:14.637+07:00,540126809598792762,1571016,1582058,1723356,178956
1783265234666212900,2026-07-05T22:27:14.666+07:00,540126809981140576,1569900,1560783,1661960,179136
1783265234684394718,2026-07-05T22:27:14.684+07:00,540126809981140576,1563778,1557410,1646644,179588
1783265234702576536,2026-07-05T22:27:14.702+07:00,540126809981140576,1555406,1548008,1630758,179963
1783265234720758354,2026-07-05T22:27:14.720+07:00,540126809981140576,1537839,1522677,1597844,180003
1783265234738940172,2026-07-05T22:27:14.738+07:00,540126809981140576,1518700,1495495,1563535,180195
1783265234757121990,2026-07-05T22:27:14.757+07:00,540126809981140576,1119253,1088492,1150470,-204121
1783265234775303809,2026-07-05T22:27:14.775+07:00,540126809981140576,955962,922890,982247,-359093
1783265234793485627,2026-07-05T22:27:14.793+07:00,540126809981140576,906459,871087,932363,-421943
1783265234811667445,2026-07-05T22:27:14.811+07:00,540126809981140576,918973,881221,953795,-447269
1783265234829849263,2026-07-05T22:27:14.829+07:00,540126809981140576,940514,915108,1009855,-457994
1783265234848031081,2026-07-05T22:27:14.848+07:00,540126809981140576,959548,943734,1059225,-462297
1783265234866212900,2026-07-05T22:27:14.866+07:00,540126809981140576,978907,960682,1085514,-464328
1783265234884394718,2026-07-05T22:27:14.884+07:00,540126809981140576,995217,961588,1084985,-464441
1783265234902576536,2026-07-05T22:27:14.902+07:00,540126809981140576,1003159,944221,1060991,-464299
1783265234920758354,2026-07-05T22:27:14.920+07:00,540126809981140576,1007850,930592,1044544,-463841
1783265234938940172,2026-07-05T22:27:14.938+07:00,540126809981140576,1049667,969891,1102129,-464228
1783265234957121990,2026-07-05T22:27:14.957+07:00,540126809981140576,1084756,1056865,1246146,-465659
1783265234975303809,2026-07-05T22:27:14.975+07:00,540126809981140576,769902,872685,1158728,-468385
1783265234993485627,2026-07-05T22:27:14.993+07:00,540126809981140576,404035,391623,655407,-470442
1783265235011667445,2026-07-05T22:27:15.011+07:00,540126809981140576,285856,233987,520776,-471222
1783265235029849263,2026-07-05T22:27:15.029+07:00,540126809981140576,275571,220305,561359,-471402
1783265235034896400,2026-07-05T22:27:15.034+07:00,540126810363488390,403840,392966,814976,-471156
1783265235053078218,2026-07-05T22:27:15.053+07:00,540126810363488390,669201,735900,1146734,-470731
1783265235071260036,2026-07-05T22:27:15.071+07:00,540126810363488390,994976,1115899,1414918,-470231
1783265235089441854,2026-07-05T22:27:15.089+07:00,540126810363488390,1264729,1408066,1534408,-469951
1783265235107623672,2026-07-05T22:27:15.107+07:00,540126810363488390,1403813,1532663,1574295,-470103
1783265235125805490,2026-07-05T22:27:15.125+07:00,540126810363488390,1335710,1372115,1498287,-470648
1783265235143987309,2026-07-05T22:27:15.143+07:00,540126810363488390,960404,1040431,1315625,-471465
1783265235162169127,2026-07-05T22:27:15.162+07:00,540126810363488390,688217,887039,1126836,-471719
1783265235180350945,2026-07-05T22:27:15.180+07:00,540126810363488390,596354,825785,1020011,-471564
1783265235198532763,2026-07-05T22:27:15.198+07:00,540126810363488390,602269,793244,1015731,-471153
1783265235216714581,2026-07-05T22:27:15.216+07:00,540126810363488390,443353,520711,701691,-330492
1783265235234896400,2026-07-05T22:27:15.234+07:00,540126810363488390,312058,324260,418192,-273635
1783265235253078218,2026-07-05T22:27:15.253+07:00,540126810363488390,196451,211934,202732,-250835
1783265235271260036,2026-07-05T22:27:15.271+07:00,540126810363488390,177811,191497,170276,-241449
1783265235289441854,2026-07-05T22:27:15.289+07:00,540126810363488390,330825,287753,280094,-237263
1783265235307623672,2026-07-05T22:27:15.307+07:00,540126810363488390,469153,472248,404987,-235306
1783265235325805490,2026-07-05T22:27:15.325+07:00,540126810363488390,539195,594725,493472,-234454
1783265235343987309,2026-07-05T22:27:15.343+07:00,540126810363488390,562755,638703,533734,-234243
1783265235362169127,2026-07-05T22:27:15.362+07:00,540126810363488390,455522,539930,435999,-234705
1783265235380350945,2026-07-05T22:27:15.380+07:00,540126810363488390,368979,463663,371485,-234950
1783265235398532763,2026-07-05T22:27:15.398+07:00,540126810363488390,460386,522122,444576,-234489
1783265235423629600,2026-07-05T22:27:15.423+07:00,540126810745808736,514308,566475,488099,-234025
1783265235441811418,2026-07-05T22:27:15.441+07:00,540126810745808736,459815,536383,421013,-234460
1783265235459993236,2026-07-05T22:27:15.459+07:00,540126810745808736,174791,260849,233651,-234988
1783265235478175054,2026-07-05T22:27:15.478+07:00,540126810745808736,24271,121350,134650,-235200
1783265235496356872,2026-07-05T22:27:15.496+07:00,540126810745808736,-103625,-54474,-32520,-235542
1783265235514538690,2026-07-05T22:27:15.514+07:00,540126810745808736,-155626,-132863,-105144,-235619
1783265235532720509,2026-07-05T22:27:15.532+07:00,540126810745808736,-176656,-166607,-134726,-235622
1783265235550902327,2026-07-05T22:27:15.550+07:00,540126810745808736,-184962,-181371,-146508,-235617
1783265235569084145,2026-07-05T22:27:15.569+07:00,540126810745808736,-188214,-187412,-150577,-235678
1783265235587265963,2026-07-05T22:27:15.587+07:00,540126810745808736,-189083,-189561,-151560,-235639
1783265235605447781,2026-07-05T22:27:15.605+07:00,540126810745808736,-188903,-190272,-151503,-235656
1783265235623629600,2026-07-05T22:27:15.623+07:00,540126810745808736,-188051,-190342,-150519,-235671
1783265235641811418,2026-07-05T22:27:15.641+07:00,540126810745808736,-186564,-190154,-148597,-235609
1783265235659993236,2026-07-05T22:27:15.659+07:00,540126810745808736,-185314,-189951,-147090,-235650
1783265235678175054,2026-07-05T22:27:15.678+07:00,540126810745808736,-184437,-189784,-145585,-235653
1783265235696356872,2026-07-05T22:27:15.696+07:00,540126810745808736,-184022,-189780,-143470,-235605
1783265235714538690,2026-07-05T22:27:15.714+07:00,540126810745808736,-184572,-188940,-136080,-235698
1783265235732720509,2026-07-05T22:27:15.732+07:00,540126810745808736,-187235,-181932,-118190,-235682
1783265235750902327,2026-07-05T22:27:15.750+07:00,540126810745808736,-189643,-174134,-106626,-235660
1783265235769084145,2026-07-05T22:27:15.769+07:00,540126810745808736,-188338,-170984,-136390,-235687
1783265235787265963,2026-07-05T22:27:15.787+07:00,540126810745808736,-186766,-167707,-158027,-235694
1783265236061365800,2026-07-05T22:27:16.061+07:00,540126811164535548,-187148,-161518,-160949,-235678
1783265236079547618,2026-07-05T22:27:16.079+07:00,540126811164535548,-187649,-154263,-158431,-235659
1783265236097729436,2026-07-05T22:27:16.097+07:00,540126811164535548,-188395,-151927,-157944,-235760
1783265236115911254,2026-07-05T22:27:16.115+07:00,540126811164535548,-188905,-152781,-159411,-235713
1783265236134093072,2026-07-05T22:27:16.134+07:00,540126811164535548,-189235,-156491,-161364,-235683
1783265236152274890,2026-07-05T22:27:16.152+07:00,540126811164535548,-189922,-163539,-164014,-235751
1783265236170456709,2026-07-05T22:27:16.170+07:00,540126811164535548,-190457,-171305,-165839,-235719
1783265236188638527,2026-07-05T22:27:16.188+07:00,540126811164535548,-191112,-175303,-166763,-235716
1783265236206820345,2026-07-05T22:27:16.206+07:00,540126811164535548,-188163,-176301,-168200,-235718
1783265236225002163,2026-07-05T22:27:16.225+07:00,540126811164535548,-179995,-175548,-167086,-235717
1783265236243183981,2026-07-05T22:27:16.243+07:00,540126811164535548,-175615,-172417,-159925,-235768
1783265236261365800,2026-07-05T22:27:16.261+07:00,540126811164535548,-169703,-173282,-157246,-235761
1783265236279547618,2026-07-05T22:27:16.279+07:00,540126811164535548,-167837,-173537,-152211,-235758
1783265236297729436,2026-07-05T22:27:16.297+07:00,540126811164535548,-167543,-175244,-148922,-235722
1783265236315911254,2026-07-05T22:27:16.315+07:00,540126811164535548,-168138,-167162,-148713,-235682
1783265236334093072,2026-07-05T22:27:16.334+07:00,540126811164535548,-161495,-168290,-149501,-235670
1783265236352274890,2026-07-05T22:27:16.352+07:00,540126811164535548,1771,-90998,-73825,-235554
1783265236370456709,2026-07-05T22:27:16.370+07:00,540126811164535548,-90779,-155019,-151172,-235711
1783265236388638527,2026-07-05T22:27:16.388+07:00,540126811164535548,-80532,-87857,-65940,-235659
1783265236406820345,2026-07-05T22:27:16.406+07:00,540126811164535548,-35512,-109168,-79688,-235611
1783265236425002163,2026-07-05T22:27:16.425+07:00,540126811164535548,-15943,-91254,-109265,-235590
1783265236443183981,2026-07-05T22:27:16.443+07:00,540126811164535548,-66802,-66220,-94540,-235529
1783265236461365800,2026-07-05T22:27:16.461+07:00,540126811164535548,-180674,-144155,-222368,-376515
1783265236420378200,2026-07-05T22:27:16.420+07:00,540126811546854370,-249360,-294903,-325745,-434087
1783265236438560018,2026-07-05T22:27:16.438+07:00,540126811546854370,-265457,-345672,-348552,-457349
1783265236456741836,2026-07-05T22:27:16.456+07:00,540126811546854370,-269886,-345331,-368016,-466759
1783265236474923654,2026-07-05T22:27:16.474+07:00,540126811546854370,-261290,-306281,-374294,-470560
1783265236493105472,2026-07-05T22:27:16.493+07:00,540126811546854370,-239484,-262431,-366568,-472083
1783265236511287290,2026-07-05T22:27:16.511+07:00,540126811546854370,-207870,-226286,-352336,-472658
1783265236529469109,2026-07-05T22:27:16.529+07:00,540126811546854370,-164827,-156174,-323095,-472780
1783265236547650927,2026-07-05T22:27:16.547+07:00,540126811546854370,-178565,-155364,-333455,-472913
1783265236565832745,2026-07-05T22:27:16.565+07:00,540126811546854370,-208308,-172032,-351190,-473031
1783265236584014563,2026-07-05T22:27:16.584+07:00,540126811546854370,-235916,-189527,-364742,-473058
1783265236602196381,2026-07-05T22:27:16.602+07:00,540126811546854370,-279948,-222779,-376630,-473103
1783265236620378200,2026-07-05T22:27:16.620+07:00,540126811546854370,-316122,-250154,-379960,-473155
1783265236638560018,2026-07-05T22:27:16.638+07:00,540126811546854370,-330816,-266147,-379202,-473104
1783265236656741836,2026-07-05T22:27:16.656+07:00,540126811546854370,-335056,-279790,-378814,-473141
1783265236674923654,2026-07-05T22:27:16.674+07:00,540126811546854370,-334876,-290671,-380007,-473069
1783265236693105472,2026-07-05T22:27:16.693+07:00,540126811546854370,-332694,-294764,-379298,-473124
1783265236711287290,2026-07-05T22:27:16.711+07:00,540126811546854370,-330179,-292674,-373292,-473130
1783265236729469109,2026-07-05T22:27:16.729+07:00,540126811546854370,-319880,-300864,-365128,-473107
1783265236747650927,2026-07-05T22:27:16.747+07:00,540126811546854370,-319859,-322864,-368480,-473122
1783265236765832745,2026-07-05T22:27:16.765+07:00,540126811546854370,-325391,-358596,-371710,-473178
1783265236784014563,2026-07-05T22:27:16.784+07:00,540126811546854370,-342851,-384182,-373412,-473139
1783265236782055500,2026-07-05T22:27:16.782+07:00,540126811947403118,-350896,-396499,-371392,-473215
1783265236800237318,2026-07-05T22:27:16.800+07:00,540126811947403118,-344421,-399204,-365533,-473207
1783265236818419136,2026-07-05T22:27:16.818+07:00,540126811947403118,-318792,-390662,-346576,-473073
1783265236836600954,2026-07-05T22:27:16.836+07:00,540126811947403118,-274748,-375133,-313617,-473026
1783265236854782772,2026-07-05T22:27:16.854+07:00,540126811947403118,-231280,-356842,-283187,-472909
1783265236872964590,2026-07-05T22:27:16.872+07:00,540126811947403118,-202228,-350637,-258695,-472809
1783265236891146409,2026-07-05T22:27:16.891+07:00,540126811947403118,-216398,-364357,-264580,-472880
1783265236909328227,2026-07-05T22:27:16.909+07:00,540126811947403118,-262660,-381739,-292318,-473035
1783265236927510045,2026-07-05T22:27:16.927+07:00,540126811947403118,-297966,-389596,-316842,-473146
1783265236945691863,2026-07-05T22:27:16.945+07:00,540126811947403118,-312415,-391662,-328285,-473185
1783265236963873681,2026-07-05T22:27:16.963+07:00,540126811947403118,-318125,-391764,-333171,-473143
1783265236982055500,2026-07-05T22:27:16.982+07:00,540126811947403118,-320959,-391604,-335430,-473135
1783265237000237318,2026-07-05T22:27:17.000+07:00,540126811947403118,-322934,-391784,-336871,-473175
1783265237018419136,2026-07-05T22:27:17.018+07:00,540126811947403118,-324410,-392155,-338280,-473112
1783265237036600954,2026-07-05T22:27:17.036+07:00,540126811947403118,-325746,-392278,-339389,-473160
1783265237054782772,2026-07-05T22:27:17.054+07:00,540126811947403118,-326511,-391710,-340097,-473140
1783265237072964590,2026-07-05T22:27:17.072+07:00,540126811947403118,-326671,-390347,-340753,-473150
1783265237091146409,2026-07-05T22:27:17.091+07:00,540126811947403118,-326435,-388559,-341683,-473168
1783265237109328227,2026-07-05T22:27:17.109+07:00,540126811947403118,-325719,-385999,-343073,-473155
1783265237127510045,2026-07-05T22:27:17.127+07:00,540126811947403118,-324473,-382156,-345012,-473169
1783265237145691863,2026-07-05T22:27:17.145+07:00,540126811947403118,-323488,-376750,-348698,-473157
1783265237163873681,2026-07-05T22:27:17.163+07:00,540126811947403118,-324549,-369946,-354302,-473144
1783265237153527000,2026-07-05T22:27:17.153+07:00,540126812420746448,-327450,-361679,-361442,-473172
1783265237171708818,2026-07-05T22:27:17.171+07:00,540126812420746448,-330270,-353606,-366433,-473164
1783265237189890636,2026-07-05T22:27:17.189+07:00,540126812420746448,-331688,-348296,-368808,-473161
1783265237208072454,2026-07-05T22:27:17.208+07:00,540126812420746448,-330874,-344234,-370756,-473124
1783265237226254272,2026-07-05T22:27:17.226+07:00,540126812420746448,-328518,-342098,-371110,-473181
1783265237244436090,2026-07-05T22:27:17.244+07:00,540126812420746448,-327871,-345663,-371002,-473190
1783265237262617909,2026-07-05T22:27:17.262+07:00,540126812420746448,-327888,-347994,-371946,-473134
1783265237280799727,2026-07-05T22:27:17.280+07:00,540126812420746448,-327694,-347972,-372692,-473119
1783265237298981545,2026-07-05T22:27:17.298+07:00,540126812420746448,-327388,-347498,-372967,-473138
1783265237317163363,2026-07-05T22:27:17.317+07:00,540126812420746448,-327020,-347142,-373223,-473183
1783265237335345181,2026-07-05T22:27:17.335+07:00,540126812420746448,-326399,-346820,-373255,-473185
1783265237353527000,2026-07-05T22:27:17.353+07:00,540126812420746448,-326036,-346762,-373221,-473166
1783265237371708818,2026-07-05T22:27:17.371+07:00,540126812420746448,-326136,-347359,-373748,-473199
1783265237389890636,2026-07-05T22:27:17.389+07:00,540126812420746448,-326847,-348081,-374955,-473226
1783265237408072454,2026-07-05T22:27:17.408+07:00,540126812420746448,-329332,-349678,-377338,-473251
1783265237426254272,2026-07-05T22:27:17.426+07:00,540126812420746448,-337219,-351750,-382964,-473176
1783265237444436090,2026-07-05T22:27:17.444+07:00,540126812420746448,-351373,-350880,-382838,-473151
1783265237462617909,2026-07-05T22:27:17.462+07:00,540126812420746448,-359035,-345672,-384316,-473167
1783265237480799727,2026-07-05T22:27:17.480+07:00,540126812420746448,-368052,-340959,-387876,-473203
1783265237498981545,2026-07-05T22:27:17.498+07:00,540126812420746448,-380102,-346440,-385928,-473221
1783265237517163363,2026-07-05T22:27:17.517+07:00,540126812420746448,-387521,-349993,-377718,-473252
1783265237535345181,2026-07-05T22:27:17.535+07:00,540126812420746448,-388209,-357523,-368114,-473204
1783265237553527000,2026-07-05T22:27:17.553+07:00,540126812420746448,-386685,-362190,-364547,-473181
1783265237571708818,2026-07-05T22:27:17.571+07:00,540126812420746448,-384954,-363497,-363929,-473098
1783265237589890636,2026-07-05T22:27:17.589+07:00,540126812420746448,-383419,-363234,-362950,-473153
1783265237608072454,2026-07-05T22:27:17.608+07:00,540126812420746448,-381569,-361511,-361759,-473191
1783265237547078000,2026-07-05T22:27:17.547+07:00,540126812875907156,-379662,-359233,-360649,-473181
1783265237565259818,2026-07-05T22:27:17.565+07:00,540126812875907156,-378101,-357018,-359636,-473216
1783265237583441636,2026-07-05T22:27:17.583+07:00,540126812875907156,-377171,-355337,-358790,-473229
1783265237601623454,2026-07-05T22:27:17.601+07:00,540126812875907156,-376610,-354232,-358179,-473168
1783265237619805272,2026-07-05T22:27:17.619+07:00,540126812875907156,-376510,-353479,-357834,-473192
1783265237637987090,2026-07-05T22:27:17.637+07:00,540126812875907156,-376557,-353136,-357524,-473184
1783265237656168909,2026-07-05T22:27:17.656+07:00,540126812875907156,-376629,-352971,-357311,-473214
1783265237674350727,2026-07-05T22:27:17.674+07:00,540126812875907156,-376657,-353348,-357486,-473222
1783265237692532545,2026-07-05T22:27:17.692+07:00,540126812875907156,-376116,-353924,-357899,-473208
1783265237710714363,2026-07-05T22:27:17.710+07:00,540126812875907156,-374413,-354068,-358643,-473156
1783265237728896181,2026-07-05T22:27:17.728+07:00,540126812875907156,-370410,-352687,-359371,-473165
1783265237747078000,2026-07-05T22:27:17.747+07:00,540126812875907156,-365228,-349981,-359988,-473210
1783265237765259818,2026-07-05T22:27:17.765+07:00,540126812875907156,-357618,-346603,-360966,-473189
1783265237783441636,2026-07-05T22:27:17.783+07:00,540126812875907156,-346375,-340903,-365649,-473185
1783265237801623454,2026-07-05T22:27:17.801+07:00,540126812875907156,-327673,-342021,-370126,-473209
1783265237819805272,2026-07-05T22:27:17.819+07:00,540126812875907156,-318298,-343550,-370772,-473206
1783265237837987090,2026-07-05T22:27:17.837+07:00,540126812875907156,-312339,-343693,-369414,-473190
1783265237856168909,2026-07-05T22:27:17.856+07:00,540126812875907156,-307642,-345519,-368292,-473170
1783265237874350727,2026-07-05T22:27:17.874+07:00,540126812875907156,-302483,-348259,-367370,-473132
1783265237892532545,2026-07-05T22:27:17.892+07:00,540126812875907156,-294935,-348439,-368408,-473152
1783265237910714363,2026-07-05T22:27:17.910+07:00,540126812875907156,-287473,-341778,-367045,-473183
1783265237928896181,2026-07-05T22:27:17.928+07:00,540126812875907156,-272851,-335411,-361672,-473190
1783265237947078000,2026-07-05T22:27:17.947+07:00,540126812875907156,-257351,-314851,-354351,-473041
1783265237965259818,2026-07-05T22:27:17.965+07:00,540126812875907156,-223958,-291569,-346739,-472998
1783265237983441636,2026-07-05T22:27:17.983+07:00,540126812875907156,-177239,-263271,-327865,-472955
1783265237912311800,2026-07-05T22:27:17.912+07:00,540126813258230554,-107454,-202984,-282493,-472790
1783265237930493618,2026-07-05T22:27:17.930+07:00,540126813258230554,-41628,-137585,-190805,-472689
1783265237948675436,2026-07-05T22:27:17.948+07:00,540126813258230554,5410,-62039,-34239,-472552
1783265237966857254,2026-07-05T22:27:17.966+07:00,540126813258230554,-156031,-198931,-241183,-473052
1783265237985039072,2026-07-05T22:27:17.985+07:00,540126813258230554,-234697,-258865,-328178,-473155
1783265238003220890,2026-07-05T22:27:18.003+07:00,540126813258230554,-263896,-280520,-362917,-473183
1783265238021402709,2026-07-05T22:27:18.021+07:00,540126813258230554,-274499,-288191,-376609,-473165
1783265238039584527,2026-07-05T22:27:18.039+07:00,540126813258230554,-279682,-291415,-382101,-473187
1783265238057766345,2026-07-05T22:27:18.057+07:00,540126813258230554,-282586,-292836,-384330,-473152
1783265238075948163,2026-07-05T22:27:18.075+07:00,540126813258230554,-284070,-293382,-385107,-473181
1783265238094129981,2026-07-05T22:27:18.094+07:00,540126813258230554,-285506,-293624,-385425,-473149
1783265238112311800,2026-07-05T22:27:18.112+07:00,540126813258230554,-285172,-293043,-385646,-473172
1783265238130493618,2026-07-05T22:27:18.130+07:00,540126813258230554,-302907,-302186,-387299,-473194
1783265238148675436,2026-07-05T22:27:18.148+07:00,540126813258230554,-311991,-307703,-386936,-473194
1783265238166857254,2026-07-05T22:27:18.166+07:00,540126813258230554,-317098,-310798,-386418,-473206
1783265238185039072,2026-07-05T22:27:18.185+07:00,540126813258230554,-317441,-309883,-384478,-473221
1783265238203220890,2026-07-05T22:27:18.203+07:00,540126813258230554,-316239,-307802,-382444,-473172
1783265238221402709,2026-07-05T22:27:18.221+07:00,540126813258230554,-314921,-305562,-380685,-473207
1783265238239584527,2026-07-05T22:27:18.239+07:00,540126813258230554,-313465,-303656,-379139,-473138
1783265238257766345,2026-07-05T22:27:18.257+07:00,540126813258230554,-312511,-302551,-377954,-473191
1783265238275948163,2026-07-05T22:27:18.275+07:00,540126813258230554,-312199,-302368,-377438,-473195
1783265238674270100,2026-07-05T22:27:18.674+07:00,540126813749753474,-312047,-302282,-376933,-473232
1783265238692451918,2026-07-05T22:27:18.692+07:00,540126813749753474,-312362,-302600,-376533,-473258
1783265238710633736,2026-07-05T22:27:18.710+07:00,540126813749753474,-313469,-303841,-376428,-473189
1783265238728815554,2026-07-05T22:27:18.728+07:00,540126813749753474,-314957,-305825,-376614,-473192
1783265238746997372,2026-07-05T22:27:18.746+07:00,540126813749753474,-318214,-309306,-376229,-473188
1783265238765179190,2026-07-05T22:27:18.765+07:00,540126813749753474,-322696,-314465,-373774,-473221
1783265238783361009,2026-07-05T22:27:18.783+07:00,540126813749753474,-325481,-318566,-370692,-473174
1783265238801542827,2026-07-05T22:27:18.801+07:00,540126813749753474,-327045,-319763,-368405,-473287
1783265238819724645,2026-07-05T22:27:18.819+07:00,540126813749753474,-327701,-319253,-366789,-473180
1783265238837906463,2026-07-05T22:27:18.837+07:00,540126813749753474,-327427,-317828,-365432,-473246
1783265238856088281,2026-07-05T22:27:18.856+07:00,540126813749753474,-326740,-316390,-364428,-473177
1783265238874270100,2026-07-05T22:27:18.874+07:00,540126813749753474,-326260,-315425,-363878,-473198
1783265238892451918,2026-07-05T22:27:18.892+07:00,540126813749753474,-325965,-314929,-363593,-473199
1783265238910633736,2026-07-05T22:27:18.910+07:00,540126813749753474,-326073,-314899,-363580,-473200
1783265238928815554,2026-07-05T22:27:18.928+07:00,540126813749753474,-326548,-315138,-363736,-473168
1783265238946997372,2026-07-05T22:27:18.946+07:00,540126813749753474,-327370,-315723,-363972,-473251
1783265238965179190,2026-07-05T22:27:18.965+07:00,540126813749753474,-328379,-316202,-363908,-473245
1783265238983361009,2026-07-05T22:27:18.983+07:00,540126813749753474,-329432,-316093,-363281,-473217
1783265239001542827,2026-07-05T22:27:19.001+07:00,540126813749753474,-330011,-315614,-362160,-473223
1783265239019724645,2026-07-05T22:27:19.019+07:00,540126813749753474,-330073,-314742,-360755,-473221
1783265239037906463,2026-07-05T22:27:19.037+07:00,540126813749753474,-330196,-314046,-359467,-473237
1783265239056088281,2026-07-05T22:27:19.056+07:00,540126813749753474,-329932,-313256,-358179,-473193
1783265239074270100,2026-07-05T22:27:19.074+07:00,540126813749753474,-329346,-312288,-357072,-473187
1783265239092451918,2026-07-05T22:27:19.092+07:00,540126813749753474,-328664,-311199,-356055,-473197
1783265239110633736,2026-07-05T22:27:19.110+07:00,540126813749753474,-327831,-310108,-355168,-473218
1783265239128815554,2026-07-05T22:27:19.128+07:00,540126813749753474,-327174,-309143,-354378,-473194
1783265239146997372,2026-07-05T22:27:19.146+07:00,540126813749753474,-326357,-308067,-353727,-473209
1783265239438130800,2026-07-05T22:27:19.438+07:00,540126814441588906,-325276,-306869,-353101,-473218
1783265239456312618,2026-07-05T22:27:19.456+07:00,540126814441588906,-324231,-305701,-352500,-473214
1783265239474494436,2026-07-05T22:27:19.474+07:00,540126814441588906,-323134,-304782,-351925,-473214
1783265239492676254,2026-07-05T22:27:19.492+07:00,540126814441588906,-321962,-303809,-351393,-473212
1783265239510858072,2026-07-05T22:27:19.510+07:00,540126814441588906,-320848,-303158,-351195,-473246
1783265239529039890,2026-07-05T22:27:19.529+07:00,540126814441588906,-320593,-302734,-351437,-473184
1783265239547221709,2026-07-05T22:27:19.547+07:00,540126814441588906,-320525,-302274,-351714,-473195
1783265239565403527,2026-07-05T22:27:19.565+07:00,540126814441588906,-320500,-301910,-352042,-473241
1783265239583585345,2026-07-05T22:27:19.583+07:00,540126814441588906,-320610,-301731,-352424,-473177
1783265239601767163,2026-07-05T22:27:19.601+07:00,540126814441588906,-320925,-301645,-352782,-473147
1783265239619948981,2026-07-05T22:27:19.619+07:00,540126814441588906,-321246,-301679,-352979,-473192
1783265239638130800,2026-07-05T22:27:19.638+07:00,540126814441588906,-321502,-301682,-353258,-473241
1783265239656312618,2026-07-05T22:27:19.656+07:00,540126814441588906,-321824,-301846,-353424,-473120
1783265239674494436,2026-07-05T22:27:19.674+07:00,540126814441588906,-322216,-301954,-353638,-473164
1783265239692676254,2026-07-05T22:27:19.692+07:00,540126814441588906,-322532,-302091,-353940,-473146
1783265239710858072,2026-07-05T22:27:19.710+07:00,540126814441588906,-322825,-302183,-354159,-473195
1783265239729039890,2026-07-05T22:27:19.729+07:00,540126814441588906,-323045,-302218,-354346,-473158
1783265239747221709,2026-07-05T22:27:19.747+07:00,540126814441588906,-323308,-302215,-354533,-473187
1783265239765403527,2026-07-05T22:27:19.765+07:00,540126814441588906,-323508,-302220,-354708,-473151
1783265239783585345,2026-07-05T22:27:19.783+07:00,540126814441588906,-323704,-302235,-354826,-473185
1783265239801767163,2026-07-05T22:27:19.801+07:00,540126814441588906,-324028,-302303,-355077,-473169
1783265239819948981,2026-07-05T22:27:19.819+07:00,540126814441588906,-324278,-302409,-355301,-473153
1783265239838130800,2026-07-05T22:27:19.838+07:00,540126814441588906,-324658,-302527,-355495,-473150
1783265239856312618,2026-07-05T22:27:19.856+07:00,540126814441588906,-324853,-302596,-355685,-473070
1783265239874494436,2026-07-05T22:27:19.874+07:00,540126814441588906,-325133,-302698,-355842,-473089
1783265239892676254,2026-07-05T22:27:19.892+07:00,540126814441588906,-325477,-302927,-356168,-473172
1783265239910858072,2026-07-05T22:27:19.910+07:00,540126814441588906,-325817,-303098,-356342,-473197
1783265239929039890,2026-07-05T22:27:19.929+07:00,540126814441588906,-326101,-303257,-356550,-473140
1783265239947221709,2026-07-05T22:27:19.947+07:00,540126814441588906,-326313,-303499,-356769,-473200
1783265239965403527,2026-07-05T22:27:19.965+07:00,540126814441588906,-326660,-303733,-357092,-473218
1783265239983585345,2026-07-05T22:27:19.983+07:00,540126814441588906,-326879,-303875,-357198,-473124
1783265240001767163,2026-07-05T22:27:20.001+07:00,540126814441588906,-327157,-304088,-357471,-473225
1783265240019948981,2026-07-05T22:27:20.019+07:00,540126814441588906,-327336,-304241,-357625,-473233
1783265240038130800,2026-07-05T22:27:20.038+07:00,540126814441588906,-327489,-304421,-357812,-473181
1783265240056312618,2026-07-05T22:27:20.056+07:00,540126814441588906,-327684,-304526,-357935,-473198
1783265240074494436,2026-07-05T22:27:20.074+07:00,540126814441588906,-327837,-304648,-358104,-473199
1783265240092676254,2026-07-05T22:27:20.092+07:00,540126814441588906,-328005,-304695,-358258,-473133
1783265240110858072,2026-07-05T22:27:20.110+07:00,540126814441588906,-328167,-304860,-358384,-473086
1783265239813758000,2026-07-05T22:27:19.813+07:00,540126815115192868,-328351,-305036,-358579,-473107
1783265239831939818,2026-07-05T22:27:19.831+07:00,540126815115192868,-328582,-305232,-358814,-473195
1783265239850121636,2026-07-05T22:27:19.850+07:00,540126815115192868,-328660,-305426,-358899,-473139
1783265239868303454,2026-07-05T22:27:19.868+07:00,540126815115192868,-328855,-305581,-359155,-473165
1783265239886485272,2026-07-05T22:27:19.886+07:00,540126815115192868,-328976,-305706,-359303,-473141
1783265239904667090,2026-07-05T22:27:19.904+07:00,540126815115192868,-329118,-305859,-359480,-473208
1783265239922848909,2026-07-05T22:27:19.922+07:00,540126815115192868,-329194,-305969,-359509,-473192
1783265239941030727,2026-07-05T22:27:19.941+07:00,540126815115192868,-329305,-306021,-359676,-473203
1783265239959212545,2026-07-05T22:27:19.959+07:00,540126815115192868,-329318,-305930,-359674,-473120
1783265239977394363,2026-07-05T22:27:19.977+07:00,540126815115192868,-329404,-306027,-359778,-473218
1783265239995576181,2026-07-05T22:27:19.995+07:00,540126815115192868,-329354,-305921,-359703,-473119
1783265240013758000,2026-07-05T22:27:20.013+07:00,540126815115192868,-329364,-305897,-359748,-473161
1783265240031939818,2026-07-05T22:27:20.031+07:00,540126815115192868,-329365,-305818,-359774,-473158
1783265240050121636,2026-07-05T22:27:20.050+07:00,540126815115192868,-329265,-305713,-359699,-473158
1783265240068303454,2026-07-05T22:27:20.068+07:00,540126815115192868,-329178,-305576,-359635,-473116
1783265240086485272,2026-07-05T22:27:20.086+07:00,540126815115192868,-329114,-305507,-359615,-473176
1783265240104667090,2026-07-05T22:27:20.104+07:00,540126815115192868,-329101,-305458,-359562,-473219
1783265240122848909,2026-07-05T22:27:20.122+07:00,540126815115192868,-328971,-305348,-359551,-473177
1783265240141030727,2026-07-05T22:27:20.141+07:00,540126815115192868,-328956,-305340,-359549,-473208
1783265240159212545,2026-07-05T22:27:20.159+07:00,540126815115192868,-329070,-305428,-359597,-473185
1783265240177394363,2026-07-05T22:27:20.177+07:00,540126815115192868,-329255,-305652,-359778,-473171
1783265240195576181,2026-07-05T22:27:20.195+07:00,540126815115192868,-329527,-305965,-360009,-473147
1783265240213758000,2026-07-05T22:27:20.213+07:00,540126815115192868,-329962,-306401,-360403,-473176
1783265240231939818,2026-07-05T22:27:20.231+07:00,540126815115192868,-330304,-306783,-360564,-473098
1783265240250121636,2026-07-05T22:27:20.250+07:00,540126815115192868,-330850,-307376,-360971,-473172
1783265240268303454,2026-07-05T22:27:20.268+07:00,540126815115192868,-331209,-307753,-361250,-473077
1783265240286485272,2026-07-05T22:27:20.286+07:00,540126815115192868,-331625,-308174,-361602,-473097
1783265240304667090,2026-07-05T22:27:20.304+07:00,540126815115192868,-332036,-308623,-361925,-473176
1783265240322848909,2026-07-05T22:27:20.322+07:00,540126815115192868,-332412,-308871,-362168,-473172
1783265240341030727,2026-07-05T22:27:20.341+07:00,540126815115192868,-332596,-309199,-362346,-473148
1783265240359212545,2026-07-05T22:27:20.359+07:00,540126815115192868,-332732,-309327,-362507,-473138
1783265240377394363,2026-07-05T22:27:20.377+07:00,540126815115192868,-333001,-309609,-362703,-473169
1783265240395576181,2026-07-05T22:27:20.395+07:00,540126815115192868,-333077,-309742,-362811,-473182
1783265240413758000,2026-07-05T22:27:20.413+07:00,540126815115192868,-333244,-309958,-363069,-473194
1783265240431939818,2026-07-05T22:27:20.431+07:00,540126815115192868,-333388,-310084,-363219,-473202
1783265240450121636,2026-07-05T22:27:20.450+07:00,540126815115192868,-333567,-310122,-363354,-473193
1783265240468303454,2026-07-05T22:27:20.468+07:00,540126815115192868,-333612,-310208,-363465,-473173
1783265240426856200,2026-07-05T22:27:20.426+07:00,540126815861618896,-333623,-310222,-363526,-473149
1783265240445038018,2026-07-05T22:27:20.445+07:00,540126815861618896,-333687,-310285,-363589,-473103
1783265240463219836,2026-07-05T22:27:20.463+07:00,540126815861618896,-333723,-310312,-363647,-473133
1783265240481401654,2026-07-05T22:27:20.481+07:00,540126815861618896,-333758,-310341,-363712,-473143
1783265240499583472,2026-07-05T22:27:20.499+07:00,540126815861618896,-333788,-310291,-363766,-473158
1783265240517765290,2026-07-05T22:27:20.517+07:00,540126815861618896,-333722,-310294,-363734,-473207
1783265240535947109,2026-07-05T22:27:20.535+07:00,540126815861618896,-333667,-310273,-363736,-473153
1783265240554128927,2026-07-05T22:27:20.554+07:00,540126815861618896,-333647,-310296,-363820,-473157
1783265240572310745,2026-07-05T22:27:20.572+07:00,540126815861618896,-333627,-310184,-363799,-473136
1783265240590492563,2026-07-05T22:27:20.590+07:00,540126815861618896,-333537,-310096,-363765,-473136
1783265240608674381,2026-07-05T22:27:20.608+07:00,540126815861618896,-333434,-309922,-363682,-473135
1783265240626856200,2026-07-05T22:27:20.626+07:00,540126815861618896,-333324,-309755,-363629,-473158
1783265240645038018,2026-07-05T22:27:20.645+07:00,540126815861618896,-333295,-309602,-363519,-473180
1783265240663219836,2026-07-05T22:27:20.663+07:00,540126815861618896,-333169,-309486,-363395,-473184
1783265240681401654,2026-07-05T22:27:20.681+07:00,540126815861618896,-333127,-309385,-363323,-473155
1783265240699583472,2026-07-05T22:27:20.699+07:00,540126815861618896,-333053,-309315,-363325,-473178
1783265240717765290,2026-07-05T22:27:20.717+07:00,540126815861618896,-332957,-309231,-363255,-473176
1783265240735947109,2026-07-05T22:27:20.735+07:00,540126815861618896,-332856,-309044,-363141,-473147
1783265240754128927,2026-07-05T22:27:20.754+07:00,540126815861618896,-332733,-308887,-363045,-473185
1783265240772310745,2026-07-05T22:27:20.772+07:00,540126815861618896,-332676,-308821,-363039,-473225
1783265240790492563,2026-07-05T22:27:20.790+07:00,540126815861618896,-332624,-308716,-362952,-473195
1783265240808674381,2026-07-05T22:27:20.808+07:00,540126815861618896,-332769,-308748,-363007,-473203
1783265240826856200,2026-07-05T22:27:20.826+07:00,540126815861618896,-332875,-308899,-363086,-473195
1783265240845038018,2026-07-05T22:27:20.845+07:00,540126815861618896,-333066,-309119,-363254,-473184
1783265240863219836,2026-07-05T22:27:20.863+07:00,540126815861618896,-333295,-309358,-363457,-473201
1783265240881401654,2026-07-05T22:27:20.881+07:00,540126815861618896,-333591,-309603,-363597,-473184
1783265240899583472,2026-07-05T22:27:20.899+07:00,540126815861618896,-333873,-309937,-363820,-473183
1783265240917765290,2026-07-05T22:27:20.917+07:00,540126815861618896,-334148,-310173,-364048,-473174
1783265240935947109,2026-07-05T22:27:20.935+07:00,540126815861618896,-334345,-310407,-364178,-473171
1783265240954128927,2026-07-05T22:27:20.954+07:00,540126815861618896,-334497,-310678,-364378,-473200
1783265240972310745,2026-07-05T22:27:20.972+07:00,540126815861618896,-334572,-310817,-364527,-473134
1783265240990492563,2026-07-05T22:27:20.990+07:00,540126815861618896,-334705,-310947,-364656,-473170
1783265241008674381,2026-07-05T22:27:21.008+07:00,540126815861618896,-334772,-311061,-364789,-473204
1783265241026856200,2026-07-05T22:27:21.026+07:00,540126815861618896,-334860,-311182,-364852,-473186
1783265241045038018,2026-07-05T22:27:21.045+07:00,540126815861618896,-334977,-311372,-365013,-473260
1783265241063219836,2026-07-05T22:27:21.063+07:00,540126815861618896,-335011,-311411,-365060,-473180
1783265241081401654,2026-07-05T22:27:21.081+07:00,540126815861618896,-335011,-311540,-365110,-473166
1783265241099583472,2026-07-05T22:27:21.099+07:00,540126815861618896,-335077,-311612,-365137,-473183
1783265241117765290,2026-07-05T22:27:21.117+07:00,540126815861618896,-335121,-311678,-365110,-473194
1783265241135947109,2026-07-05T22:27:21.135+07:00,540126815861618896,-334996,-311693,-364970,-473187
1783265241154128927,2026-07-05T22:27:21.154+07:00,540126815861618896,-334922,-311577,-364964,-473201
1783265241564396100,2026-07-05T22:27:21.564+07:00,540126816626280972,-334809,-311476,-364886,-473147
1783265241582577918,2026-07-05T22:27:21.582+07:00,540126816626280972,-334660,-311482,-364828,-473174
1783265241600759736,2026-07-05T22:27:21.600+07:00,540126816626280972,-334541,-311410,-364723,-473155
1783265241618941554,2026-07-05T22:27:21.618+07:00,540126816626280972,-334354,-311373,-364668,-473157
1783265241637123372,2026-07-05T22:27:21.637+07:00,540126816626280972,-334305,-311275,-364613,-473198
1783265241655305190,2026-07-05T22:27:21.655+07:00,540126816626280972,-334200,-311232,-364582,-473203
1783265241673487009,2026-07-05T22:27:21.673+07:00,540126816626280972,-334005,-311069,-364421,-473224
1783265241691668827,2026-07-05T22:27:21.691+07:00,540126816626280972,-333867,-311019,-364307,-473173
1783265241709850645,2026-07-05T22:27:21.709+07:00,540126816626280972,-333799,-310962,-364267,-473211
1783265241728032463,2026-07-05T22:27:21.728+07:00,540126816626280972,-333602,-310824,-364131,-473106
1783265241746214281,2026-07-05T22:27:21.746+07:00,540126816626280972,-333498,-310842,-364155,-473129
1783265241764396100,2026-07-05T22:27:21.764+07:00,540126816626280972,-333394,-310777,-364126,-473167
1783265241782577918,2026-07-05T22:27:21.782+07:00,540126816626280972,-333311,-310734,-364048,-473157
1783265241800759736,2026-07-05T22:27:21.800+07:00,540126816626280972,-333208,-310732,-363970,-473227
1783265241818941554,2026-07-05T22:27:21.818+07:00,540126816626280972,-333117,-310722,-363856,-473172
1783265241837123372,2026-07-05T22:27:21.837+07:00,540126816626280972,-333039,-310686,-363868,-473175
1783265241855305190,2026-07-05T22:27:21.855+07:00,540126816626280972,-332896,-310669,-363793,-473143
1783265241873487009,2026-07-05T22:27:21.873+07:00,540126816626280972,-332832,-310654,-363742,-473197
1783265241891668827,2026-07-05T22:27:21.891+07:00,540126816626280972,-332750,-310681,-363703,-473208
1783265241909850645,2026-07-05T22:27:21.909+07:00,540126816626280972,-332778,-310701,-363690,-473136
1783265241928032463,2026-07-05T22:27:21.928+07:00,540126816626280972,-332892,-310932,-363815,-473233
1783265241946214281,2026-07-05T22:27:21.946+07:00,540126816626280972,-333070,-311166,-364005,-473182
1783265241964396100,2026-07-05T22:27:21.964+07:00,540126816626280972,-333415,-311521,-364174,-473222
1783265241982577918,2026-07-05T22:27:21.982+07:00,540126816626280972,-333789,-311998,-364540,-473235
1783265242000759736,2026-07-05T22:27:22.000+07:00,540126816626280972,-334177,-312425,-364809,-473219
1783265242018941554,2026-07-05T22:27:22.018+07:00,540126816626280972,-334572,-312890,-365166,-473258
1783265242037123372,2026-07-05T22:27:22.037+07:00,540126816626280972,-334971,-313378,-365468,-473248
1783265242055305190,2026-07-05T22:27:22.055+07:00,540126816626280972,-335305,-313728,-365710,-473173
1783265242073487009,2026-07-05T22:27:22.073+07:00,540126816626280972,-335631,-314113,-365938,-473198
1783265242091668827,2026-07-05T22:27:22.091+07:00,540126816626280972,-335883,-314418,-366018,-473242
1783265242109850645,2026-07-05T22:27:22.109+07:00,540126816626280972,-335995,-314582,-366130,-473220
1783265242128032463,2026-07-05T22:27:22.128+07:00,540126816626280972,-336042,-314663,-366217,-473182
1783265242146214281,2026-07-05T22:27:22.146+07:00,540126816626280972,-336087,-314706,-366168,-473174
1783265242164396100,2026-07-05T22:27:22.164+07:00,540126816626280972,-336068,-314768,-366247,-473210
1783265242182577918,2026-07-05T22:27:22.182+07:00,540126816626280972,-335995,-314725,-366144,-473130
1783265242200759736,2026-07-05T22:27:22.200+07:00,540126816626280972,-336039,-314785,-366157,-473152
1783265242218941554,2026-07-05T22:27:22.218+07:00,540126816626280972,-336163,-314928,-366251,-473146
1783265242237123372,2026-07-05T22:27:22.237+07:00,540126816626280972,-336192,-314998,-366331,-473192
1783265242255305190,2026-07-05T22:27:22.255+07:00,540126816626280972,-336246,-315084,-366392,-473157
1783265242273487009,2026-07-05T22:27:22.273+07:00,540126816626280972,-336289,-315123,-366467,-473180
1783265242291668827,2026-07-05T22:27:22.291+07:00,540126816626280972,-336273,-315176,-366455,-473163
1783265242309850645,2026-07-05T22:27:22.309+07:00,540126816626280972,-336377,-315222,-366562,-473168
1783265242347204700,2026-07-05T22:27:22.347+07:00,540126817390912512,-336379,-315314,-366631,-473166
1783265242365386518,2026-07-05T22:27:22.365+07:00,540126817390912512,-336431,-315319,-366627,-473270
1783265242383568336,2026-07-05T22:27:22.383+07:00,540126817390912512,-336357,-315372,-366613,-473254
1783265242401750154,2026-07-05T22:27:22.401+07:00,540126817390912512,-336343,-315352,-366594,-473235
1783265242419931972,2026-07-05T22:27:22.419+07:00,540126817390912512,-336354,-315309,-366615,-473203
1783265242438113790,2026-07-05T22:27:22.438+07:00,540126817390912512,-336298,-315209,-366642,-473203
1783265242456295609,2026-07-05T22:27:22.456+07:00,540126817390912512,-336212,-315105,-366577,-473204
1783265242474477427,2026-07-05T22:27:22.474+07:00,540126817390912512,-336051,-314891,-366474,-473204
1783265242492659245,2026-07-05T22:27:22.492+07:00,540126817390912512,-335874,-314767,-366412,-473210
1783265242510841063,2026-07-05T22:27:22.510+07:00,540126817390912512,-335692,-314518,-366261,-473237
1783265242529022881,2026-07-05T22:27:22.529+07:00,540126817390912512,-335558,-314304,-366183,-473294
1783265242547204700,2026-07-05T22:27:22.547+07:00,540126817390912512,-335243,-314100,-366030,-473134
1783265242565386518,2026-07-05T22:27:22.565+07:00,540126817390912512,-334988,-313885,-365810,-473156
1783265242583568336,2026-07-05T22:27:22.583+07:00,540126817390912512,-334634,-313492,-365606,-473113
1783265242601750154,2026-07-05T22:27:22.601+07:00,540126817390912512,-334360,-313236,-365452,-473165
1783265242619931972,2026-07-05T22:27:22.619+07:00,540126817390912512,-334071,-313007,-365357,-473211
1783265242638113790,2026-07-05T22:27:22.638+07:00,540126817390912512,-333754,-312807,-365096,-473160
1783265242656295609,2026-07-05T22:27:22.656+07:00,540126817390912512,-333557,-312598,-364979,-473172
1783265242674477427,2026-07-05T22:27:22.674+07:00,540126817390912512,-333581,-312556,-364949,-473156
1783265242692659245,2026-07-05T22:27:22.692+07:00,540126817390912512,-333670,-312727,-365098,-473163
1783265242710841063,2026-07-05T22:27:22.710+07:00,540126817390912512,-333964,-312971,-365343,-473161
1783265242729022881,2026-07-05T22:27:22.729+07:00,540126817390912512,-334295,-313326,-365538,-473232
1783265242747204700,2026-07-05T22:27:22.747+07:00,540126817390912512,-334641,-313693,-365824,-473173
1783265242765386518,2026-07-05T22:27:22.765+07:00,540126817390912512,-335134,-314168,-366125,-473163
1783265242783568336,2026-07-05T22:27:22.783+07:00,540126817390912512,-335596,-314591,-366497,-473221
1783265242801750154,2026-07-05T22:27:22.801+07:00,540126817390912512,-335972,-315023,-366782,-473227
1783265242819931972,2026-07-05T22:27:22.819+07:00,540126817390912512,-336229,-315394,-367109,-473160
1783265242838113790,2026-07-05T22:27:22.838+07:00,540126817390912512,-336637,-315731,-367376,-473241
1783265242856295609,2026-07-05T22:27:22.856+07:00,540126817390912512,-336909,-316032,-367597,-473203
1783265242874477427,2026-07-05T22:27:22.874+07:00,540126817390912512,-337145,-316282,-367890,-473175
1783265242892659245,2026-07-05T22:27:22.892+07:00,540126817390912512,-337235,-316415,-368055,-473149
1783265242910841063,2026-07-05T22:27:22.910+07:00,540126817390912512,-337389,-316589,-368211,-473207
1783265242929022881,2026-07-05T22:27:22.929+07:00,540126817390912512,-337497,-316676,-368343,-473204
1783265242947204700,2026-07-05T22:27:22.947+07:00,540126817390912512,-337580,-316715,-368410,-473227
1783265242965386518,2026-07-05T22:27:22.965+07:00,540126817390912512,-337653,-316736,-368436,-473167
1783265242983568336,2026-07-05T22:27:22.983+07:00,540126817390912512,-337692,-316802,-368530,-473172
1783265243001750154,2026-07-05T22:27:23.001+07:00,540126817390912512,-337794,-316847,-368610,-473153
1783265243019931972,2026-07-05T22:27:23.019+07:00,540126817390912512,-337867,-316846,-368635,-473190
1783265243038113790,2026-07-05T22:27:23.038+07:00,540126817390912512,-338008,-317000,-368762,-473232
1783265243056295609,2026-07-05T22:27:23.056+07:00,540126817390912512,-338084,-317032,-368848,-473165
1783265243074477427,2026-07-05T22:27:23.074+07:00,540126817390912512,-338181,-317104,-368898,-473248
1783265243092659245,2026-07-05T22:27:23.092+07:00,540126817390912512,-338221,-317132,-369006,-473216
1783265242984289700,2026-07-05T22:27:22.984+07:00,540126818155544052,-338276,-317160,-369109,-473148
1783265243002471518,2026-07-05T22:27:23.002+07:00,540126818155544052,-338324,-317220,-369101,-473216
1783265243020653336,2026-07-05T22:27:23.020+07:00,540126818155544052,-338326,-317308,-369182,-473245
1783265243038835154,2026-07-05T22:27:23.038+07:00,540126818155544052,-338350,-317233,-369168,-473203
1783265243057016972,2026-07-05T22:27:23.057+07:00,540126818155544052,-338340,-317154,-369095,-473219
1783265243075198790,2026-07-05T22:27:23.075+07:00,540126818155544052,-338318,-316993,-369081,-473251
1783265243093380609,2026-07-05T22:27:23.093+07:00,540126818155544052,-338264,-316893,-368970,-473182
1783265243111562427,2026-07-05T22:27:23.111+07:00,540126818155544052,-338224,-316723,-368839,-473224
1783265243129744245,2026-07-05T22:27:23.129+07:00,540126818155544052,-338185,-316553,-368651,-473215
1783265243147926063,2026-07-05T22:27:23.147+07:00,540126818155544052,-338084,-316383,-368368,-473190
1783265243166107881,2026-07-05T22:27:23.166+07:00,540126818155544052,-337944,-316198,-368104,-473207
1783265243184289700,2026-07-05T22:27:23.184+07:00,540126818155544052,-337676,-315953,-367815,-473139
1783265243202471518,2026-07-05T22:27:23.202+07:00,540126818155544052,-337539,-315750,-367659,-473241
1783265243220653336,2026-07-05T22:27:23.220+07:00,540126818155544052,-337104,-315472,-367342,-473208
1783265243238835154,2026-07-05T22:27:23.238+07:00,540126818155544052,-336767,-315143,-367059,-473173
1783265243257016972,2026-07-05T22:27:23.257+07:00,540126818155544052,-336678,-314985,-366930,-473185
1783265243275198790,2026-07-05T22:27:23.275+07:00,540126818155544052,-336720,-314989,-366894,-473223
1783265243293380609,2026-07-05T22:27:23.293+07:00,540126818155544052,-336807,-315052,-366876,-473181
1783265243311562427,2026-07-05T22:27:23.311+07:00,540126818155544052,-337127,-315255,-367003,-473235
1783265243329744245,2026-07-05T22:27:23.329+07:00,540126818155544052,-337446,-315563,-367254,-473211
1783265243347926063,2026-07-05T22:27:23.347+07:00,540126818155544052,-337855,-315866,-367533,-473225
1783265243366107881,2026-07-05T22:27:23.366+07:00,540126818155544052,-338111,-316251,-367813,-473177
1783265243384289700,2026-07-05T22:27:23.384+07:00,540126818155544052,-338449,-316430,-368004,-473170
1783265243402471518,2026-07-05T22:27:23.402+07:00,540126818155544052,-338551,-316529,-368034,-473167
1783265243420653336,2026-07-05T22:27:23.420+07:00,540126818155544052,-338466,-316491,-368082,-473212
1783265243438835154,2026-07-05T22:27:23.438+07:00,540126818155544052,-338536,-316476,-368045,-473192
1783265243457016972,2026-07-05T22:27:23.457+07:00,540126818155544052,-338706,-316667,-368145,-473174
1783265243475198790,2026-07-05T22:27:23.475+07:00,540126818155544052,-339027,-316966,-368312,-473238
1783265243493380609,2026-07-05T22:27:23.493+07:00,540126818155544052,-339253,-317136,-368406,-473195
1783265243511562427,2026-07-05T22:27:23.511+07:00,540126818155544052,-339436,-317298,-368489,-473222
1783265243529744245,2026-07-05T22:27:23.529+07:00,540126818155544052,-339586,-317281,-368438,-473150
1783265243547926063,2026-07-05T22:27:23.547+07:00,540126818155544052,-339586,-317231,-368434,-473199
1783265243566107881,2026-07-05T22:27:23.566+07:00,540126818155544052,-339553,-317192,-368462,-473198
1783265243584289700,2026-07-05T22:27:23.584+07:00,540126818155544052,-339560,-317217,-368419,-473217
1783265243602471518,2026-07-05T22:27:23.602+07:00,540126818155544052,-339523,-317185,-368321,-473211
1783265243620653336,2026-07-05T22:27:23.620+07:00,540126818155544052,-339470,-317161,-368286,-473216
1783265243638835154,2026-07-05T22:27:23.638+07:00,540126818155544052,-339438,-317119,-368258,-473120
1783265243657016972,2026-07-05T22:27:23.657+07:00,540126818155544052,-339334,-317097,-368259,-473181
1783265243675198790,2026-07-05T22:27:23.675+07:00,540126818155544052,-339249,-316931,-368166,-473137
1783265243693380609,2026-07-05T22:27:23.693+07:00,540126818155544052,-339010,-316775,-368044,-473252
1783265243711562427,2026-07-05T22:27:23.711+07:00,540126818155544052,-338603,-316412,-367888,-473216
1783265243729744245,2026-07-05T22:27:23.729+07:00,540126818155544052,-338145,-315946,-367588,-473166
1783265243754263800,2026-07-05T22:27:23.754+07:00,540126818920145074,-337736,-315630,-367364,-473210
1783265243772445618,2026-07-05T22:27:23.772+07:00,540126818920145074,-337396,-315322,-367126,-473254
1783265243790627436,2026-07-05T22:27:23.790+07:00,540126818920145074,-337173,-315159,-366935,-473172
1783265243808809254,2026-07-05T22:27:23.808+07:00,540126818920145074,-337053,-315015,-366805,-473241
1783265243826991072,2026-07-05T22:27:23.826+07:00,540126818920145074,-336980,-314921,-366670,-473251
1783265243845172890,2026-07-05T22:27:23.845+07:00,540126818920145074,-336957,-314810,-366514,-473238
1783265243863354709,2026-07-05T22:27:23.863+07:00,540126818920145074,-336958,-314711,-366459,-473235
1783265243881536527,2026-07-05T22:27:23.881+07:00,540126818920145074,-336900,-314607,-366323,-473205
1783265243899718345,2026-07-05T22:27:23.899+07:00,540126818920145074,-336936,-314629,-366335,-473209
1783265243917900163,2026-07-05T22:27:23.917+07:00,540126818920145074,-337035,-314642,-366300,-473202
1783265243936081981,2026-07-05T22:27:23.936+07:00,540126818920145074,-337195,-314798,-366325,-473205
1783265243954263800,2026-07-05T22:27:23.954+07:00,540126818920145074,-337413,-314938,-366319,-473211
1783265243972445618,2026-07-05T22:27:23.972+07:00,540126818920145074,-337618,-315049,-366317,-473187
1783265243990627436,2026-07-05T22:27:23.990+07:00,540126818920145074,-337628,-315017,-366232,-473218
1783265244008809254,2026-07-05T22:27:24.008+07:00,540126818920145074,-337610,-314860,-366054,-473220
1783265244026991072,2026-07-05T22:27:24.026+07:00,540126818920145074,-337594,-314690,-365826,-473231
1783265244045172890,2026-07-05T22:27:24.045+07:00,540126818920145074,-337462,-314569,-365660,-473249
1783265244063354709,2026-07-05T22:27:24.063+07:00,540126818920145074,-337288,-314336,-365466,-473236
1783265244081536527,2026-07-05T22:27:24.081+07:00,540126818920145074,-337213,-314195,-365325,-473205
1783265244099718345,2026-07-05T22:27:24.099+07:00,540126818920145074,-337247,-314152,-365251,-473166
1783265244117900163,2026-07-05T22:27:24.117+07:00,540126818920145074,-337362,-314280,-365333,-473223
1783265244136081981,2026-07-05T22:27:24.136+07:00,540126818920145074,-337613,-314477,-365454,-473216
1783265244154263800,2026-07-05T22:27:24.154+07:00,540126818920145074,-337885,-314730,-365608,-473203
1783265244172445618,2026-07-05T22:27:24.172+07:00,540126818920145074,-338182,-314980,-365824,-473157
1783265244190627436,2026-07-05T22:27:24.190+07:00,540126818920145074,-338485,-315303,-366057,-473172
1783265244208809254,2026-07-05T22:27:24.208+07:00,540126818920145074,-338724,-315561,-366292,-473229
1783265244226991072,2026-07-05T22:27:24.226+07:00,540126818920145074,-338984,-315779,-366346,-473195
1783265244245172890,2026-07-05T22:27:24.245+07:00,540126818920145074,-339226,-315983,-366546,-473250
1783265244263354709,2026-07-05T22:27:24.263+07:00,540126818920145074,-339325,-316121,-366619,-473195
1783265244281536527,2026-07-05T22:27:24.281+07:00,540126818920145074,-339374,-316099,-366592,-473246
1783265244299718345,2026-07-05T22:27:24.299+07:00,540126818920145074,-339446,-316122,-366530,-473211
1783265244317900163,2026-07-05T22:27:24.317+07:00,540126818920145074,-339449,-316083,-366497,-473278
1783265244336081981,2026-07-05T22:27:24.336+07:00,540126818920145074,-339284,-315954,-366423,-473206
1783265244354263800,2026-07-05T22:27:24.354+07:00,540126818920145074,-339262,-315843,-366307,-473198
1783265244372445618,2026-07-05T22:27:24.372+07:00,540126818920145074,-339211,-315767,-366241,-473170
1783265244390627436,2026-07-05T22:27:24.390+07:00,540126818920145074,-339178,-315756,-366196,-473167
1783265244408809254,2026-07-05T22:27:24.408+07:00,540126818920145074,-339165,-315669,-366207,-473195
1783265244426991072,2026-07-05T22:27:24.426+07:00,540126818920145074,-339210,-315660,-366128,-473134
1783265244445172890,2026-07-05T22:27:24.445+07:00,540126818920145074,-339268,-315693,-366169,-473216
1783265244463354709,2026-07-05T22:27:24.463+07:00,540126818920145074,-339211,-315564,-366131,-473170
1783265244481536527,2026-07-05T22:27:24.481+07:00,540126818920145074,-339183,-315489,-366084,-473159
1783265244499718345,2026-07-05T22:27:24.499+07:00,540126818920145074,-339141,-315442,-366000,-473205
1783265244429273400,2026-07-05T22:27:24.429+07:00,540126819684746096,-338979,-315297,-365922,-473168
1783265244447455218,2026-07-05T22:27:24.447+07:00,540126819684746096,-338871,-315235,-365823,-473239
1783265244465637036,2026-07-05T22:27:24.465+07:00,540126819684746096,-338723,-315036,-365717,-473235
1783265244483818854,2026-07-05T22:27:24.483+07:00,540126819684746096,-338586,-314851,-365639,-473210
1783265244502000672,2026-07-05T22:27:24.502+07:00,540126819684746096,-338380,-314683,-365445,-473200
1783265244520182490,2026-07-05T22:27:24.520+07:00,540126819684746096,-338215,-314394,-365301,-473172
1783265244538364309,2026-07-05T22:27:24.538+07:00,540126819684746096,-337971,-314205,-365217,-473191
1783265244556546127,2026-07-05T22:27:24.556+07:00,540126819684746096,-337727,-313975,-365035,-473181
1783265244574727945,2026-07-05T22:27:24.574+07:00,540126819684746096,-337599,-313805,-364921,-473200
1783265244592909763,2026-07-05T22:27:24.592+07:00,540126819684746096,-337390,-313563,-364733,-473182
1783265244611091581,2026-07-05T22:27:24.611+07:00,540126819684746096,-337177,-313299,-364598,-473173
1783265244629273400,2026-07-05T22:27:24.629+07:00,540126819684746096,-337044,-313142,-364505,-473182
1783265244647455218,2026-07-05T22:27:24.647+07:00,540126819684746096,-336845,-312907,-364289,-473184
1783265244665637036,2026-07-05T22:27:24.665+07:00,540126819684746096,-336647,-312686,-364193,-473204
1783265244683818854,2026-07-05T22:27:24.683+07:00,540126819684746096,-336382,-312457,-364002,-473107
1783265244702000672,2026-07-05T22:27:24.702+07:00,540126819684746096,-336188,-312227,-363880,-473178
1783265244720182490,2026-07-05T22:27:24.720+07:00,540126819684746096,-336004,-312045,-363717,-473168
1783265244738364309,2026-07-05T22:27:24.738+07:00,540126819684746096,-335796,-311781,-363551,-473142
1783265244756546127,2026-07-05T22:27:24.756+07:00,540126819684746096,-335845,-311794,-363623,-473174
1783265244774727945,2026-07-05T22:27:24.774+07:00,540126819684746096,-335915,-311812,-363678,-473183
1783265244792909763,2026-07-05T22:27:24.792+07:00,540126819684746096,-336027,-311975,-363733,-473198
1783265244811091581,2026-07-05T22:27:24.811+07:00,540126819684746096,-336207,-312024,-363780,-473169
1783265244829273400,2026-07-05T22:27:24.829+07:00,540126819684746096,-336385,-312122,-363961,-473187
1783265244847455218,2026-07-05T22:27:24.847+07:00,540126819684746096,-336546,-312333,-364117,-473224
1783265244865637036,2026-07-05T22:27:24.865+07:00,540126819684746096,-336641,-312470,-364215,-473202
1783265244883818854,2026-07-05T22:27:24.883+07:00,540126819684746096,-336868,-312522,-364311,-473216
1783265244902000672,2026-07-05T22:27:24.902+07:00,540126819684746096,-336910,-312559,-364323,-473238
1783265244920182490,2026-07-05T22:27:24.920+07:00,540126819684746096,-336864,-312534,-364306,-473188
1783265244938364309,2026-07-05T22:27:24.938+07:00,540126819684746096,-336848,-312443,-364305,-473133
1783265244956546127,2026-07-05T22:27:24.956+07:00,540126819684746096,-336899,-312476,-364290,-473197
1783265244974727945,2026-07-05T22:27:24.974+07:00,540126819684746096,-336773,-312358,-364232,-473193
1783265244992909763,2026-07-05T22:27:24.992+07:00,540126819684746096,-336693,-312301,-364220,-473211
1783265245011091581,2026-07-05T22:27:25.011+07:00,540126819684746096,-336555,-312162,-364083,-473165
1783265245029273400,2026-07-05T22:27:25.029+07:00,540126819684746096,-336495,-312028,-364012,-473149
1783265245047455218,2026-07-05T22:27:25.047+07:00,540126819684746096,-336400,-311918,-363933,-473137
1783265245065637036,2026-07-05T22:27:25.065+07:00,540126819684746096,-336339,-311799,-363916,-473140
1783265245083818854,2026-07-05T22:27:25.083+07:00,540126819684746096,-336208,-311729,-363801,-473151
1783265245102000672,2026-07-05T22:27:25.102+07:00,540126819684746096,-336157,-311568,-363669,-473156
1783265245120182490,2026-07-05T22:27:25.120+07:00,540126819684746096,-336020,-311483,-363582,-473150
1783265245138364309,2026-07-05T22:27:25.138+07:00,540126819684746096,-335926,-311396,-363562,-473174
1783265245156546127,2026-07-05T22:27:25.156+07:00,540126819684746096,-335777,-311198,-363487,-473123
1783265245174727945,2026-07-05T22:27:25.174+07:00,540126819684746096,-335653,-311033,-363339,-473212
1783265245196336600,2026-07-05T22:27:25.196+07:00,540126820449377636,-335505,-310836,-363195,-473201
1783265245214518418,2026-07-05T22:27:25.214+07:00,540126820449377636,-335444,-310679,-363094,-473242
1783265245232700236,2026-07-05T22:27:25.232+07:00,540126820449377636,-335242,-310487,-362942,-473204
1783265245250882054,2026-07-05T22:27:25.250+07:00,540126820449377636,-335099,-310347,-362815,-473195
1783265245269063872,2026-07-05T22:27:25.269+07:00,540126820449377636,-334949,-310156,-362720,-473221
1783265245287245690,2026-07-05T22:27:25.287+07:00,540126820449377636,-334743,-309937,-362536,-473210
1783265245305427509,2026-07-05T22:27:25.305+07:00,540126820449377636,-334635,-309789,-362440,-473158
1783265245323609327,2026-07-05T22:27:25.323+07:00,540126820449377636,-334454,-309611,-362259,-473150
1783265245341791145,2026-07-05T22:27:25.341+07:00,540126820449377636,-334279,-309471,-362206,-473151
1783265245359972963,2026-07-05T22:27:25.359+07:00,540126820449377636,-334144,-309325,-362081,-473127
1783265245378154781,2026-07-05T22:27:25.378+07:00,540126820449377636,-333940,-309062,-361920,-473159
1783265245396336600,2026-07-05T22:27:25.396+07:00,540126820449377636,-333838,-308942,-361823,-473268
1783265245414518418,2026-07-05T22:27:25.414+07:00,540126820449377636,-333615,-308709,-361628,-473174
1783265245432700236,2026-07-05T22:27:25.432+07:00,540126820449377636,-333422,-308514,-361473,-473200
1783265245450882054,2026-07-05T22:27:25.450+07:00,540126820449377636,-333271,-308346,-361333,-473201
1783265245469063872,2026-07-05T22:27:25.469+07:00,540126820449377636,-333101,-308135,-361229,-473198
1783265245487245690,2026-07-05T22:27:25.487+07:00,540126820449377636,-332926,-307973,-361108,-473171
1783265245505427509,2026-07-05T22:27:25.505+07:00,540126820449377636,-332814,-307830,-360989,-473154
1783265245523609327,2026-07-05T22:27:25.523+07:00,540126820449377636,-332810,-307828,-360994,-473231
1783265245541791145,2026-07-05T22:27:25.541+07:00,540126820449377636,-332923,-307885,-361083,-473191
1783265245559972963,2026-07-05T22:27:25.559+07:00,540126820449377636,-333059,-307987,-361148,-473109
1783265245578154781,2026-07-05T22:27:25.578+07:00,540126820449377636,-333199,-308130,-361268,-473113
1783265245596336600,2026-07-05T22:27:25.596+07:00,540126820449377636,-333381,-308290,-361366,-473182
1783265245614518418,2026-07-05T22:27:25.614+07:00,540126820449377636,-333541,-308367,-361448,-473165
1783265245632700236,2026-07-05T22:27:25.632+07:00,540126820449377636,-333677,-308461,-361629,-473201
1783265245650882054,2026-07-05T22:27:25.650+07:00,540126820449377636,-333796,-308552,-361681,-473185
1783265245669063872,2026-07-05T22:27:25.669+07:00,540126820449377636,-333870,-308691,-361687,-473248
1783265245687245690,2026-07-05T22:27:25.687+07:00,540126820449377636,-333942,-308627,-361719,-473172
1783265245705427509,2026-07-05T22:27:25.705+07:00,540126820449377636,-333899,-308643,-361773,-473171
1783265245723609327,2026-07-05T22:27:25.723+07:00,540126820449377636,-333830,-308548,-361708,-473153
1783265245741791145,2026-07-05T22:27:25.741+07:00,540126820449377636,-333855,-308515,-361595,-473185
1783265245759972963,2026-07-05T22:27:25.759+07:00,540126820449377636,-333776,-308413,-361617,-473215
1783265245778154781,2026-07-05T22:27:25.778+07:00,540126820449377636,-333711,-308316,-361531,-473215
1783265245796336600,2026-07-05T22:27:25.796+07:00,540126820449377636,-333673,-308231,-361429,-473165
1783265245814518418,2026-07-05T22:27:25.814+07:00,540126820449377636,-333545,-308154,-361396,-473184
1783265245832700236,2026-07-05T22:27:25.832+07:00,540126820449377636,-333501,-308121,-361378,-473175
1783265245850882054,2026-07-05T22:27:25.850+07:00,540126820449377636,-333483,-308085,-361399,-473241
1783265245869063872,2026-07-05T22:27:25.869+07:00,540126820449377636,-333354,-307938,-361239,-473147
1783265245887245690,2026-07-05T22:27:25.887+07:00,540126820449377636,-333295,-307830,-361169,-473167
1783265245905427509,2026-07-05T22:27:25.905+07:00,540126820449377636,-333243,-307737,-361135,-473185
1783265245923609327,2026-07-05T22:27:25.923+07:00,540126820449377636,-333117,-307595,-361056,-473191
1783265245941791145,2026-07-05T22:27:25.941+07:00,540126820449377636,-332918,-307488,-360923,-473186
1783265245985531500,2026-07-05T22:27:25.985+07:00,540126821214009176,-332862,-307310,-360813,-473173
1783265246003713318,2026-07-05T22:27:26.003+07:00,540126821214009176,-332724,-307265,-360756,-473153
1783265246021895136,2026-07-05T22:27:26.021+07:00,540126821214009176,-332610,-307076,-360587,-473153
1783265246040076954,2026-07-05T22:27:26.040+07:00,540126821214009176,-332415,-306928,-360460,-473175
1783265246058258772,2026-07-05T22:27:26.058+07:00,540126821214009176,-332363,-306787,-360442,-473217
1783265246076440590,2026-07-05T22:27:26.076+07:00,540126821214009176,-332111,-306577,-360221,-473144
1783265246094622409,2026-07-05T22:27:26.094+07:00,540126821214009176,-332008,-306442,-360160,-473200
1783265246112804227,2026-07-05T22:27:26.112+07:00,540126821214009176,-331878,-306271,-360011,-473218
1783265246130986045,2026-07-05T22:27:26.130+07:00,540126821214009176,-331719,-306138,-359988,-473190
1783265246149167863,2026-07-05T22:27:26.149+07:00,540126821214009176,-331591,-305969,-359846,-473219
1783265246167349681,2026-07-05T22:27:26.167+07:00,540126821214009176,-331572,-305851,-359732,-473269
1783265246185531500,2026-07-05T22:27:26.185+07:00,540126821214009176,-331348,-305601,-359589,-473222
1783265246203713318,2026-07-05T22:27:26.203+07:00,540126821214009176,-331108,-305392,-359409,-473210
1783265246221895136,2026-07-05T22:27:26.221+07:00,540126821214009176,-331011,-305273,-359339,-473174
1783265246240076954,2026-07-05T22:27:26.240+07:00,540126821214009176,-330857,-305074,-359182,-473190
1783265246258258772,2026-07-05T22:27:26.258+07:00,540126821214009176,-330682,-304963,-359043,-473201
1783265246276440590,2026-07-05T22:27:26.276+07:00,540126821214009176,-330550,-304818,-358980,-473212
1783265246294622409,2026-07-05T22:27:26.294+07:00,540126821214009176,-330431,-304627,-358786,-473190
1783265246312804227,2026-07-05T22:27:26.312+07:00,540126821214009176,-330247,-304477,-358731,-473140
1783265246330986045,2026-07-05T22:27:26.330+07:00,540126821214009176,-330346,-304541,-358781,-473227
1783265246349167863,2026-07-05T22:27:26.349+07:00,540126821214009176,-330298,-304536,-358772,-473155
1783265246367349681,2026-07-05T22:27:26.367+07:00,540126821214009176,-330505,-304658,-358874,-473169
1783265246385531500,2026-07-05T22:27:26.385+07:00,540126821214009176,-330666,-304819,-359037,-473163
1783265246403713318,2026-07-05T22:27:26.403+07:00,540126821214009176,-330846,-304964,-359170,-473209
1783265246421895136,2026-07-05T22:27:26.421+07:00,540126821214009176,-331006,-305027,-359274,-473174
1783265246440076954,2026-07-05T22:27:26.440+07:00,540126821214009176,-331130,-305157,-359346,-473188
1783265246458258772,2026-07-05T22:27:26.458+07:00,540126821214009176,-331161,-305196,-359384,-473219
1783265246476440590,2026-07-05T22:27:26.476+07:00,540126821214009176,-331231,-305302,-359479,-473204
1783265246494622409,2026-07-05T22:27:26.494+07:00,540126821214009176,-331362,-305321,-359573,-473236
1783265246512804227,2026-07-05T22:27:26.512+07:00,540126821214009176,-331316,-305251,-359494,-473211
1783265246530986045,2026-07-05T22:27:26.530+07:00,540126821214009176,-331336,-305195,-359484,-473240
1783265246549167863,2026-07-05T22:27:26.549+07:00,540126821214009176,-331251,-305153,-359435,-473186
1783265246567349681,2026-07-05T22:27:26.567+07:00,540126821214009176,-331132,-305099,-359396,-473178
1783265246585531500,2026-07-05T22:27:26.585+07:00,540126821214009176,-331091,-304996,-359325,-473138
1783265246603713318,2026-07-05T22:27:26.603+07:00,540126821214009176,-331034,-304921,-359334,-473192
1783265246621895136,2026-07-05T22:27:26.621+07:00,540126821214009176,-331002,-304884,-359282,-473210
1783265246640076954,2026-07-05T22:27:26.640+07:00,540126821214009176,-330934,-304813,-359208,-473199
1783265246658258772,2026-07-05T22:27:26.658+07:00,540126821214009176,-330894,-304756,-359208,-473165
1783265246676440590,2026-07-05T22:27:26.676+07:00,540126821214009176,-330771,-304589,-359102,-473151
1783265246694622409,2026-07-05T22:27:26.694+07:00,540126821214009176,-330790,-304595,-359071,-473173
1783265246712804227,2026-07-05T22:27:26.712+07:00,540126821214009176,-330611,-304407,-358948,-473182
1783265246730986045,2026-07-05T22:27:26.730+07:00,540126821214009176,-330575,-304346,-358847,-473229
1783265246774229000,2026-07-05T22:27:26.774+07:00,540126821978640716,-330483,-304186,-358817,-473223
1783265246792410818,2026-07-05T22:27:26.792+07:00,540126821978640716,-330342,-304080,-358726,-473175
1783265246810592636,2026-07-05T22:27:26.810+07:00,540126821978640716,-330214,-304015,-358679,-473229
1783265246828774454,2026-07-05T22:27:26.828+07:00,540126821978640716,-330077,-303858,-358560,-473227
1783265246846956272,2026-07-05T22:27:26.846+07:00,540126821978640716,-329938,-303682,-358478,-473156
1783265246865138090,2026-07-05T22:27:26.865+07:00,540126821978640716,-329812,-303549,-358371,-473165
1783265246883319909,2026-07-05T22:27:26.883+07:00,540126821978640716,-329701,-303400,-358240,-473177
1783265246901501727,2026-07-05T22:27:26.901+07:00,540126821978640716,-329534,-303296,-358124,-473182
1783265246919683545,2026-07-05T22:27:26.919+07:00,540126821978640716,-329402,-303144,-358035,-473182
1783265246937865363,2026-07-05T22:27:26.937+07:00,540126821978640716,-329266,-302986,-357878,-473177
1783265246956047181,2026-07-05T22:27:26.956+07:00,540126821978640716,-329131,-302845,-357794,-473155
1783265246974229000,2026-07-05T22:27:26.974+07:00,540126821978640716,-329022,-302681,-357750,-473171
1783265246992410818,2026-07-05T22:27:26.992+07:00,540126821978640716,-328876,-302560,-357639,-473153
1783265247010592636,2026-07-05T22:27:27.010+07:00,540126821978640716,-328748,-302395,-357490,-473159
1783265247028774454,2026-07-05T22:27:27.028+07:00,540126821978640716,-328607,-302234,-357361,-473165
1783265247046956272,2026-07-05T22:27:27.046+07:00,540126821978640716,-328513,-302115,-357299,-473186
1783265247065138090,2026-07-05T22:27:27.065+07:00,540126821978640716,-328343,-301978,-357200,-473204
1783265247083319909,2026-07-05T22:27:27.083+07:00,540126821978640716,-328231,-301781,-357046,-473159
1783265247101501727,2026-07-05T22:27:27.101+07:00,540126821978640716,-328037,-301654,-356986,-473181
1783265247119683545,2026-07-05T22:27:27.119+07:00,540126821978640716,-327902,-301534,-356820,-473171
1783265247137865363,2026-07-05T22:27:27.137+07:00,540126821978640716,-327838,-301468,-356709,-473159
1783265247156047181,2026-07-05T22:27:27.156+07:00,540126821978640716,-327855,-301501,-356780,-473165
1783265247174229000,2026-07-05T22:27:27.174+07:00,540126821978640716,-327947,-301525,-356846,-473136
1783265247192410818,2026-07-05T22:27:27.192+07:00,540126821978640716,-328051,-301610,-356979,-473166
1783265247210592636,2026-07-05T22:27:27.210+07:00,540126821978640716,-328260,-301750,-357111,-473202
1783265247228774454,2026-07-05T22:27:27.228+07:00,540126821978640716,-328378,-301882,-357259,-473170
1783265247246956272,2026-07-05T22:27:27.246+07:00,540126821978640716,-328547,-302074,-357396,-473163
1783265247265138090,2026-07-05T22:27:27.265+07:00,540126821978640716,-328706,-302196,-357469,-473160
1783265247283319909,2026-07-05T22:27:27.283+07:00,540126821978640716,-328816,-302272,-357571,-473131
1783265247301501727,2026-07-05T22:27:27.301+07:00,540126821978640716,-328855,-302299,-357604,-473134
1783265247319683545,2026-07-05T22:27:27.319+07:00,540126821978640716,-328888,-302340,-357589,-473146
1783265247337865363,2026-07-05T22:27:27.337+07:00,540126821978640716,-328882,-302356,-357575,-473130
1783265247356047181,2026-07-05T22:27:27.356+07:00,540126821978640716,-328899,-302358,-357626,-473156
1783265247374229000,2026-07-05T22:27:27.374+07:00,540126821978640716,-328891,-302309,-357602,-473152
1783265247392410818,2026-07-05T22:27:27.392+07:00,540126821978640716,-328771,-302265,-357520,-473141
1783265247410592636,2026-07-05T22:27:27.410+07:00,540126821978640716,-328774,-302255,-357575,-473168
1783265247428774454,2026-07-05T22:27:27.428+07:00,540126821978640716,-328777,-302258,-357581,-473195
1783265247446956272,2026-07-05T22:27:27.446+07:00,540126821978640716,-328712,-302133,-357561,-473182
1783265247465138090,2026-07-05T22:27:27.465+07:00,540126821978640716,-328706,-302035,-357492,-473164
1783265247483319909,2026-07-05T22:27:27.483+07:00,540126821978640716,-328597,-302031,-357407,-473156
1783265247501501727,2026-07-05T22:27:27.501+07:00,540126821978640716,-328505,-301978,-357363,-473200
1783265247519683545,2026-07-05T22:27:27.519+07:00,540126821978640716,-328454,-301924,-357254,-473235
1783265247398868900,2026-07-05T22:27:27.398+07:00,540126822743241738,-328413,-301833,-357278,-473176
1783265247417050718,2026-07-05T22:27:27.417+07:00,540126822743241738,-328373,-301768,-357245,-473188
1783265247435232536,2026-07-05T22:27:27.435+07:00,540126822743241738,-328292,-301658,-357214,-473210
1783265247453414354,2026-07-05T22:27:27.453+07:00,540126822743241738,-328171,-301560,-357079,-473236
1783265247471596172,2026-07-05T22:27:27.471+07:00,540126822743241738,-328111,-301518,-357008,-473154
1783265247489777990,2026-07-05T22:27:27.489+07:00,540126822743241738,-327916,-301353,-356903,-473210
1783265247507959809,2026-07-05T22:27:27.507+07:00,540126822743241738,-327879,-301212,-356869,-473229
1783265247526141627,2026-07-05T22:27:27.526+07:00,540126822743241738,-327689,-301116,-356724,-473171
1783265247544323445,2026-07-05T22:27:27.544+07:00,540126822743241738,-327643,-300996,-356666,-473143
1783265247562505263,2026-07-05T22:27:27.562+07:00,540126822743241738,-327506,-300900,-356551,-473152
1783265247580687081,2026-07-05T22:27:27.580+07:00,540126822743241738,-327412,-300742,-356466,-473153
1783265247598868900,2026-07-05T22:27:27.598+07:00,540126822743241738,-327270,-300676,-356389,-473180
1783265247617050718,2026-07-05T22:27:27.617+07:00,540126822743241738,-327143,-300513,-356259,-473168
1783265247635232536,2026-07-05T22:27:27.635+07:00,540126822743241738,-327014,-300351,-356190,-473193
1783265247653414354,2026-07-05T22:27:27.653+07:00,540126822743241738,-326888,-300247,-356139,-473138
1783265247671596172,2026-07-05T22:27:27.671+07:00,540126822743241738,-326801,-300116,-355979,-473158
1783265247689777990,2026-07-05T22:27:27.689+07:00,540126822743241738,-326684,-300039,-355947,-473182
1783265247707959809,2026-07-05T22:27:27.707+07:00,540126822743241738,-326572,-299978,-355846,-473166
1783265247726141627,2026-07-05T22:27:27.726+07:00,540126822743241738,-326446,-299837,-355694,-473200
1783265247744323445,2026-07-05T22:27:27.744+07:00,540126822743241738,-326338,-299579,-355594,-473169
1783265247762505263,2026-07-05T22:27:27.762+07:00,540126822743241738,-326184,-299520,-355525,-473195
1783265247780687081,2026-07-05T22:27:27.780+07:00,540126822743241738,-326158,-299530,-355552,-473172
1783265247798868900,2026-07-05T22:27:27.798+07:00,540126822743241738,-326212,-299588,-355590,-473201
1783265247817050718,2026-07-05T22:27:27.817+07:00,540126822743241738,-326308,-299634,-355663,-473151
1783265247835232536,2026-07-05T22:27:27.835+07:00,540126822743241738,-326536,-299872,-355828,-473164
1783265247853414354,2026-07-05T22:27:27.853+07:00,540126822743241738,-326630,-299980,-355938,-473206
1783265247871596172,2026-07-05T22:27:27.871+07:00,540126822743241738,-326839,-300123,-356149,-473218
1783265247889777990,2026-07-05T22:27:27.889+07:00,540126822743241738,-326975,-300263,-356183,-473198
1783265247907959809,2026-07-05T22:27:27.907+07:00,540126822743241738,-327002,-300321,-356212,-473149
1783265247926141627,2026-07-05T22:27:27.926+07:00,540126822743241738,-327035,-300376,-356310,-473151
1783265247944323445,2026-07-05T22:27:27.944+07:00,540126822743241738,-327083,-300450,-356341,-473184
1783265247962505263,2026-07-05T22:27:27.962+07:00,540126822743241738,-327076,-300431,-356340,-473161
1783265247980687081,2026-07-05T22:27:27.980+07:00,540126822743241738,-327088,-300360,-356289,-473173
1783265247998868900,2026-07-05T22:27:27.998+07:00,540126822743241738,-327012,-300356,-356268,-473173
1783265248017050718,2026-07-05T22:27:28.017+07:00,540126822743241738,-326969,-300334,-356236,-473191
1783265248035232536,2026-07-05T22:27:28.035+07:00,540126822743241738,-326930,-300275,-356217,-473171
1783265248053414354,2026-07-05T22:27:28.053+07:00,540126822743241738,-326891,-300210,-356252,-473160
1783265248071596172,2026-07-05T22:27:28.071+07:00,540126822743241738,-326835,-300143,-356139,-473151
1783265248089777990,2026-07-05T22:27:28.089+07:00,540126822743241738,-326790,-300129,-356153,-473127
1783265248107959809,2026-07-05T22:27:28.107+07:00,540126822743241738,-326823,-300147,-356107,-473222
1783265248126141627,2026-07-05T22:27:28.126+07:00,540126822743241738,-326745,-300053,-356078,-473197
1783265248144323445,2026-07-05T22:27:28.144+07:00,540126822743241738,-326656,-300030,-356017,-473176
1783265248183619600,2026-07-05T22:27:28.183+07:00,540126823507813785,-326570,-299942,-355937,-473158
1783265248201801418,2026-07-05T22:27:28.201+07:00,540126823507813785,-326555,-299863,-355883,-473138
1783265248219983236,2026-07-05T22:27:28.219+07:00,540126823507813785,-326486,-299844,-355816,-473275
1783265248238165054,2026-07-05T22:27:28.238+07:00,540126823507813785,-326389,-299745,-355774,-473272
1783265248256346872,2026-07-05T22:27:28.256+07:00,540126823507813785,-326289,-299624,-355726,-473270
1783265248274528690,2026-07-05T22:27:28.274+07:00,540126823507813785,-326165,-299457,-355599,-473210
1783265248292710509,2026-07-05T22:27:28.292+07:00,540126823507813785,-325978,-299375,-355476,-473207
1783265248310892327,2026-07-05T22:27:28.310+07:00,540126823507813785,-325920,-299269,-355436,-473200
1783265248329074145,2026-07-05T22:27:28.329+07:00,540126823507813785,-325806,-299180,-355346,-473188
1783265248347255963,2026-07-05T22:27:28.347+07:00,540126823507813785,-325733,-299018,-355241,-473237
1783265248365437781,2026-07-05T22:27:28.365+07:00,540126823507813785,-325599,-298882,-355167,-473219
1783265248383619600,2026-07-05T22:27:28.383+07:00,540126823507813785,-325450,-298790,-355020,-473212
1783265248401801418,2026-07-05T22:27:28.401+07:00,540126823507813785,-325318,-298678,-354955,-473170
1783265248419983236,2026-07-05T22:27:28.419+07:00,540126823507813785,-325177,-298543,-354855,-473199
1783265248438165054,2026-07-05T22:27:28.438+07:00,540126823507813785,-325049,-298409,-354775,-473220
1783265248456346872,2026-07-05T22:27:28.456+07:00,540126823507813785,-324978,-298324,-354677,-473193
1783265248474528690,2026-07-05T22:27:28.474+07:00,540126823507813785,-324849,-298143,-354565,-473171
1783265248492710509,2026-07-05T22:27:28.492+07:00,540126823507813785,-324731,-298031,-354467,-473198
1783265248510892327,2026-07-05T22:27:28.510+07:00,540126823507813785,-324611,-297874,-354370,-473175
1783265248529074145,2026-07-05T22:27:28.529+07:00,540126823507813785,-324440,-297700,-354205,-473143
1783265248547255963,2026-07-05T22:27:28.547+07:00,540126823507813785,-324354,-297676,-354237,-473159
1783265248565437781,2026-07-05T22:27:28.565+07:00,540126823507813785,-324395,-297660,-354250,-473214
1783265248583619600,2026-07-05T22:27:28.583+07:00,540126823507813785,-324364,-297694,-354254,-473178
1783265248601801418,2026-07-05T22:27:28.601+07:00,540126823507813785,-324533,-297820,-354347,-473167
1783265248619983236,2026-07-05T22:27:28.619+07:00,540126823507813785,-324672,-298052,-354465,-473210
1783265248638165054,2026-07-05T22:27:28.638+07:00,540126823507813785,-324818,-298171,-354616,-473204
1783265248656346872,2026-07-05T22:27:28.656+07:00,540126823507813785,-324992,-298296,-354743,-473193
1783265248674528690,2026-07-05T22:27:28.674+07:00,540126823507813785,-325038,-298462,-354817,-473186
