host_timestamp_ns,host_timestamp_iso,pmd_timestamp,ppg0,ppg1,ppg2,ambient
1783266278261684800,2026-07-05T22:44:38.261+07:00,540127853689968632,-342186,-310163,-364880,-472882
1783266278279866618,2026-07-05T22:44:38.279+07:00,540127853689968632,-342026,-309986,-364732,-472883
1783266278298048436,2026-07-05T22:44:38.298+07:00,540127853689968632,-341850,-309783,-364598,-472882
1783266278316230254,2026-07-05T22:44:38.316+07:00,540127853689968632,-341620,-309607,-364415,-472841
1783266278334412072,2026-07-05T22:44:38.334+07:00,540127853689968632,-341477,-309404,-364334,-472884
1783266278352593890,2026-07-05T22:44:38.352+07:00,540127853689968632,-341382,-309176,-364122,-472896
1783266278370775709,2026-07-05T22:44:38.370+07:00,540127853689968632,-341243,-308971,-363997,-472888
1783266278388957527,2026-07-05T22:44:38.388+07:00,540127853689968632,-341093,-308739,-363776,-472904
1783266278407139345,2026-07-05T22:44:38.407+07:00,540127853689968632,-340886,-308539,-363679,-472826
1783266278425321163,2026-07-05T22:44:38.425+07:00,540127853689968632,-340707,-308329,-363554,-472839
1783266278443502981,2026-07-05T22:44:38.443+07:00,540127853689968632,-340497,-308103,-363358,-472847
1783266278461684800,2026-07-05T22:44:38.461+07:00,540127853689968632,-340297,-307823,-363159,-472901
1783266278479866618,2026-07-05T22:44:38.479+07:00,540127853689968632,-340089,-307614,-363030,-472828
1783266278498048436,2026-07-05T22:44:38.498+07:00,540127853689968632,-339926,-307349,-362905,-472846
1783266278516230254,2026-07-05T22:44:38.516+07:00,540127853689968632,-339748,-307118,-362658,-472895
1783266278534412072,2026-07-05T22:44:38.534+07:00,540127853689968632,-339577,-306906,-362542,-472874
1783266278552593890,2026-07-05T22:44:38.552+07:00,540127853689968632,-339534,-306821,-362488,-472880
1783266278570775709,2026-07-05T22:44:38.570+07:00,540127853689968632,-339737,-306989,-362542,-472919
1783266278588957527,2026-07-05T22:44:38.588+07:00,540127853689968632,-340047,-307341,-362735,-472886
1783266278607139345,2026-07-05T22:44:38.607+07:00,540127853689968632,-340475,-307838,-363123,-472920
1783266278625321163,2026-07-05T22:44:38.625+07:00,540127853689968632,-340999,-308471,-363583,-472922
1783266278643502981,2026-07-05T22:44:38.643+07:00,540127853689968632,-341499,-309001,-364054,-472865
1783266278661684800,2026-07-05T22:44:38.661+07:00,540127853689968632,-341997,-309653,-364567,-472924
1783266278679866618,2026-07-05T22:44:38.679+07:00,540127853689968632,-342433,-310127,-364923,-472880
1783266278698048436,2026-07-05T22:44:38.698+07:00,540127853689968632,-342739,-310542,-365218,-472875
1783266278716230254,2026-07-05T22:44:38.716+07:00,540127853689968632,-343073,-310889,-365509,-472912
1783266278734412072,2026-07-05T22:44:38.734+07:00,540127853689968632,-343287,-311152,-365714,-472883
1783266278752593890,2026-07-05T22:44:38.752+07:00,540127853689968632,-343480,-311438,-365903,-472952
1783266278770775709,2026-07-05T22:44:38.770+07:00,540127853689968632,-343535,-311516,-366033,-472913
1783266278788957527,2026-07-05T22:44:38.788+07:00,540127853689968632,-343502,-311548,-366006,-472850
1783266278807139345,2026-07-05T22:44:38.807+07:00,540127853689968632,-343501,-311584,-366032,-472883
1783266278825321163,2026-07-05T22:44:38.825+07:00,540127853689968632,-343458,-311655,-366019,-472955
1783266278843502981,2026-07-05T22:44:38.843+07:00,540127853689968632,-343426,-311562,-365960,-472915
1783266278861684800,2026-07-05T22:44:38.861+07:00,540127853689968632,-343369,-311519,-366010,-472879
1783266278879866618,2026-07-05T22:44:38.879+07:00,540127853689968632,-343378,-311576,-365979,-472862
1783266278898048436,2026-07-05T22:44:38.898+07:00,540127853689968632,-343263,-311524,-365944,-472878
1783266278916230254,2026-07-05T22:44:38.916+07:00,540127853689968632,-343250,-311567,-365933,-472858
1783266278934412072,2026-07-05T22:44:38.934+07:00,540127853689968632,-343206,-311507,-365863,-472865
1783266279069151200,2026-07-05T22:44:39.069+07:00,540127854381289834,-343171,-311429,-365845,-472845
1783266279087333018,2026-07-05T22:44:39.087+07:00,540127854381289834,-343106,-311352,-365772,-472876
1783266279105514836,2026-07-05T22:44:39.105+07:00,540127854381289834,-343025,-311252,-365688,-472893
1783266279123696654,2026-07-05T22:44:39.123+07:00,540127854381289834,-342861,-311101,-365568,-472880
1783266279141878472,2026-07-05T22:44:39.141+07:00,540127854381289834,-342695,-310951,-365481,-472941
1783266279160060290,2026-07-05T22:44:39.160+07:00,540127854381289834,-342581,-310790,-365342,-472883
1783266279178242109,2026-07-05T22:44:39.178+07:00,540127854381289834,-342503,-310687,-365245,-472917
1783266279196423927,2026-07-05T22:44:39.196+07:00,540127854381289834,-342306,-310536,-365100,-472884
1783266279214605745,2026-07-05T22:44:39.214+07:00,540127854381289834,-342124,-310277,-364921,-472887
1783266279232787563,2026-07-05T22:44:39.232+07:00,540127854381289834,-341984,-310065,-364812,-472857
1783266279250969381,2026-07-05T22:44:39.250+07:00,540127854381289834,-341829,-309896,-364659,-472853
1783266279269151200,2026-07-05T22:44:39.269+07:00,540127854381289834,-341669,-309670,-364499,-472879
1783266279287333018,2026-07-05T22:44:39.287+07:00,540127854381289834,-341489,-309474,-364310,-472884
1783266279305514836,2026-07-05T22:44:39.305+07:00,540127854381289834,-341315,-309223,-364190,-472890
1783266279323696654,2026-07-05T22:44:39.323+07:00,540127854381289834,-341177,-309041,-364068,-472921
1783266279341878472,2026-07-05T22:44:39.341+07:00,540127854381289834,-341004,-308802,-363914,-472844
1783266279360060290,2026-07-05T22:44:39.360+07:00,540127854381289834,-340847,-308638,-363762,-472825
1783266279378242109,2026-07-05T22:44:39.378+07:00,540127854381289834,-340710,-308362,-363563,-472832
1783266279396423927,2026-07-05T22:44:39.396+07:00,540127854381289834,-340463,-308131,-363387,-472857
1783266279414605745,2026-07-05T22:44:39.414+07:00,540127854381289834,-340325,-307929,-363242,-472870
1783266279432787563,2026-07-05T22:44:39.432+07:00,540127854381289834,-340166,-307739,-363111,-472886
1783266279450969381,2026-07-05T22:44:39.450+07:00,540127854381289834,-339948,-307464,-362851,-472822
1783266279469151200,2026-07-05T22:44:39.469+07:00,540127854381289834,-339731,-307189,-362675,-472844
1783266279487333018,2026-07-05T22:44:39.487+07:00,540127854381289834,-339570,-306907,-362518,-472859
1783266279505514836,2026-07-05T22:44:39.505+07:00,540127854381289834,-339432,-306739,-362359,-472851
1783266279523696654,2026-07-05T22:44:39.523+07:00,540127854381289834,-339468,-306833,-362415,-472886
1783266279541878472,2026-07-05T22:44:39.541+07:00,540127854381289834,-339712,-307027,-362632,-472877
1783266279560060290,2026-07-05T22:44:39.560+07:00,540127854381289834,-340128,-307521,-362890,-472913
1783266279578242109,2026-07-05T22:44:39.578+07:00,540127854381289834,-340612,-308037,-363286,-472829
1783266279596423927,2026-07-05T22:44:39.596+07:00,540127854381289834,-341143,-308677,-363756,-472884
1783266279614605745,2026-07-05T22:44:39.614+07:00,540127854381289834,-341600,-309284,-364165,-472900
1783266279632787563,2026-07-05T22:44:39.632+07:00,540127854381289834,-342040,-309739,-364569,-472878
1783266279650969381,2026-07-05T22:44:39.650+07:00,540127854381289834,-342394,-310192,-364924,-472824
1783266279669151200,2026-07-05T22:44:39.669+07:00,540127854381289834,-342755,-310564,-365233,-472909
1783266279687333018,2026-07-05T22:44:39.687+07:00,540127854381289834,-342926,-310938,-365444,-472883
1783266279705514836,2026-07-05T22:44:39.705+07:00,540127854381289834,-343229,-311206,-365662,-472959
1783266279723696654,2026-07-05T22:44:39.723+07:00,540127854381289834,-343246,-311354,-365784,-472893
1783266279741878472,2026-07-05T22:44:39.741+07:00,540127854381289834,-343245,-311369,-365832,-472890
1783266279702544900,2026-07-05T22:44:39.702+07:00,540127855109015960,-343274,-311382,-365874,-472874
1783266279720726718,2026-07-05T22:44:39.720+07:00,540127855109015960,-343225,-311401,-365829,-472871
1783266279738908536,2026-07-05T22:44:39.738+07:00,540127855109015960,-343177,-311424,-365859,-472882
1783266279757090354,2026-07-05T22:44:39.757+07:00,540127855109015960,-343123,-311432,-365810,-472938
1783266279775272172,2026-07-05T22:44:39.775+07:00,540127855109015960,-343121,-311445,-365786,-472918
1783266279793453990,2026-07-05T22:44:39.793+07:00,540127855109015960,-343132,-311407,-365745,-472894
1783266279811635809,2026-07-05T22:44:39.811+07:00,540127855109015960,-343090,-311424,-365781,-472844
1783266279829817627,2026-07-05T22:44:39.829+07:00,540127855109015960,-343006,-311354,-365772,-472865
1783266279847999445,2026-07-05T22:44:39.847+07:00,540127855109015960,-342923,-311274,-365642,-472835
1783266279866181263,2026-07-05T22:44:39.866+07:00,540127855109015960,-342881,-311186,-365614,-472852
1783266279884363081,2026-07-05T22:44:39.884+07:00,540127855109015960,-342792,-311166,-365573,-472876
1783266279902544900,2026-07-05T22:44:39.902+07:00,540127855109015960,-342609,-310992,-365405,-472883
1783266279920726718,2026-07-05T22:44:39.920+07:00,540127855109015960,-342579,-310855,-365369,-472888
1783266279938908536,2026-07-05T22:44:39.938+07:00,540127855109015960,-342455,-310740,-365287,-472868
1783266279957090354,2026-07-05T22:44:39.957+07:00,540127855109015960,-342306,-310588,-365137,-472871
1783266279975272172,2026-07-05T22:44:39.975+07:00,540127855109015960,-342120,-310455,-365041,-472828
1783266279993453990,2026-07-05T22:44:39.993+07:00,540127855109015960,-341963,-310234,-364901,-472836
1783266280011635809,2026-07-05T22:44:40.011+07:00,540127855109015960,-341822,-310070,-364759,-472868
1783266280029817627,2026-07-05T22:44:40.029+07:00,540127855109015960,-341601,-309787,-364626,-472806
1783266280047999445,2026-07-05T22:44:40.047+07:00,540127855109015960,-341492,-309624,-364442,-472825
1783266280066181263,2026-07-05T22:44:40.066+07:00,540127855109015960,-341348,-309463,-364339,-472886
1783266280084363081,2026-07-05T22:44:40.084+07:00,540127855109015960,-341153,-309227,-364113,-472831
1783266280102544900,2026-07-05T22:44:40.102+07:00,540127855109015960,-340988,-309048,-364020,-472831
1783266280120726718,2026-07-05T22:44:40.120+07:00,540127855109015960,-340830,-308804,-363858,-472840
1783266280138908536,2026-07-05T22:44:40.138+07:00,540127855109015960,-340709,-308615,-363711,-472881
1783266280157090354,2026-07-05T22:44:40.157+07:00,540127855109015960,-340587,-308413,-363560,-472931
1783266280175272172,2026-07-05T22:44:40.175+07:00,540127855109015960,-340423,-308199,-363446,-472938
1783266280193453990,2026-07-05T22:44:40.193+07:00,540127855109015960,-340254,-308036,-363290,-472894
1783266280211635809,2026-07-05T22:44:40.211+07:00,540127855109015960,-340007,-307700,-363141,-472873
1783266280229817627,2026-07-05T22:44:40.229+07:00,540127855109015960,-339854,-307501,-362945,-472829
1783266280247999445,2026-07-05T22:44:40.247+07:00,540127855109015960,-339642,-307293,-362809,-472907
1783266280266181263,2026-07-05T22:44:40.266+07:00,540127855109015960,-339450,-307085,-362644,-472802
1783266280284363081,2026-07-05T22:44:40.284+07:00,540127855109015960,-339328,-306904,-362471,-472877
1783266280302544900,2026-07-05T22:44:40.302+07:00,540127855109015960,-339419,-306926,-362487,-472805
1783266280320726718,2026-07-05T22:44:40.320+07:00,540127855109015960,-339695,-307209,-362711,-472866
1783266280338908536,2026-07-05T22:44:40.338+07:00,540127855109015960,-340060,-307667,-362968,-472845
1783266280357090354,2026-07-05T22:44:40.357+07:00,540127855109015960,-340531,-308266,-363395,-472841
1783266280375272172,2026-07-05T22:44:40.375+07:00,540127855109015960,-341063,-308813,-363828,-472870
1783266280393453990,2026-07-05T22:44:40.393+07:00,540127855109015960,-341495,-309320,-364215,-472881
1783266280411635809,2026-07-05T22:44:40.411+07:00,540127855109015960,-341845,-309778,-364526,-472902
1783266280648953700,2026-07-05T22:44:40.648+07:00,540127855854885033,-342184,-310185,-364776,-472903
1783266280667135518,2026-07-05T22:44:40.667+07:00,540127855854885033,-342400,-310526,-365070,-472900
1783266280685317336,2026-07-05T22:44:40.685+07:00,540127855854885033,-342581,-310796,-365304,-472865
1783266280703499154,2026-07-05T22:44:40.703+07:00,540127855854885033,-342725,-310990,-365431,-472870
1783266280721680972,2026-07-05T22:44:40.721+07:00,540127855854885033,-342758,-311114,-365545,-472862
1783266280739862790,2026-07-05T22:44:40.739+07:00,540127855854885033,-342706,-311124,-365511,-472847
1783266280758044609,2026-07-05T22:44:40.758+07:00,540127855854885033,-342709,-311018,-365511,-472898
1783266280776226427,2026-07-05T22:44:40.776+07:00,540127855854885033,-342693,-311035,-365462,-472905
1783266280794408245,2026-07-05T22:44:40.794+07:00,540127855854885033,-342712,-310982,-365428,-472909
1783266280812590063,2026-07-05T22:44:40.812+07:00,540127855854885033,-342655,-311004,-365441,-472885
1783266280830771881,2026-07-05T22:44:40.830+07:00,540127855854885033,-342648,-311065,-365486,-472902
1783266280848953700,2026-07-05T22:44:40.848+07:00,540127855854885033,-342603,-310973,-365456,-472887
1783266280867135518,2026-07-05T22:44:40.867+07:00,540127855854885033,-342551,-310937,-365382,-472892
1783266280885317336,2026-07-05T22:44:40.885+07:00,540127855854885033,-342453,-310877,-365325,-472888
1783266280903499154,2026-07-05T22:44:40.903+07:00,540127855854885033,-342360,-310800,-365298,-472871
1783266280921680972,2026-07-05T22:44:40.921+07:00,540127855854885033,-342295,-310702,-365222,-472853
1783266280939862790,2026-07-05T22:44:40.939+07:00,540127855854885033,-342159,-310585,-365076,-472842
1783266280958044609,2026-07-05T22:44:40.958+07:00,540127855854885033,-342060,-310422,-365015,-472848
1783266280976226427,2026-07-05T22:44:40.976+07:00,540127855854885033,-341930,-310324,-364919,-472859
1783266280994408245,2026-07-05T22:44:40.994+07:00,540127855854885033,-341805,-310138,-364811,-472850
1783266281012590063,2026-07-05T22:44:41.012+07:00,540127855854885033,-341681,-310062,-364687,-472893
1783266281030771881,2026-07-05T22:44:41.030+07:00,540127855854885033,-341534,-309824,-364537,-472912
1783266281048953700,2026-07-05T22:44:41.048+07:00,540127855854885033,-341369,-309633,-364383,-472864
1783266281067135518,2026-07-05T22:44:41.067+07:00,540127855854885033,-341227,-309427,-364272,-472879
1783266281085317336,2026-07-05T22:44:41.085+07:00,540127855854885033,-341122,-309235,-364125,-472925
1783266281103499154,2026-07-05T22:44:41.103+07:00,540127855854885033,-340879,-309017,-363972,-472847
1783266281121680972,2026-07-05T22:44:41.121+07:00,540127855854885033,-340759,-308806,-363790,-472893
1783266281139862790,2026-07-05T22:44:41.139+07:00,540127855854885033,-340600,-308582,-363647,-472945
1783266281158044609,2026-07-05T22:44:41.158+07:00,540127855854885033,-340373,-308363,-363473,-472848
1783266281176226427,2026-07-05T22:44:41.176+07:00,540127855854885033,-340249,-308202,-363325,-472915
1783266281194408245,2026-07-05T22:44:41.194+07:00,540127855854885033,-340048,-307971,-363167,-472899
1783266281212590063,2026-07-05T22:44:41.212+07:00,540127855854885033,-339883,-307731,-362981,-472880
1783266281230771881,2026-07-05T22:44:41.230+07:00,540127855854885033,-339725,-307522,-362868,-472899
1783266281248953700,2026-07-05T22:44:41.248+07:00,540127855854885033,-339571,-307317,-362753,-472910
1783266281267135518,2026-07-05T22:44:41.267+07:00,540127855854885033,-339346,-306972,-362497,-472891
1783266281285317336,2026-07-05T22:44:41.285+07:00,540127855854885033,-339152,-306805,-362363,-472902
1783266281303499154,2026-07-05T22:44:41.303+07:00,540127855854885033,-339019,-306608,-362194,-472931
1783266281321680972,2026-07-05T22:44:41.321+07:00,540127855854885033,-338814,-306356,-362037,-472937
1783266281339862790,2026-07-05T22:44:41.339+07:00,540127855854885033,-338631,-306122,-361865,-472845
1783266281358044609,2026-07-05T22:44:41.358+07:00,540127855854885033,-338601,-306036,-361792,-472886
1783266281376226427,2026-07-05T22:44:41.376+07:00,540127855854885033,-338710,-306226,-361879,-472843
1783266281252593800,2026-07-05T22:44:41.252+07:00,540127856527980888,-339024,-306533,-362114,-472874
1783266281270775618,2026-07-05T22:44:41.270+07:00,540127856527980888,-339491,-307023,-362489,-472970
1783266281288957436,2026-07-05T22:44:41.288+07:00,540127856527980888,-340027,-307513,-362877,-472925
1783266281307139254,2026-07-05T22:44:41.307+07:00,540127856527980888,-340395,-308037,-363264,-472875
1783266281325321072,2026-07-05T22:44:41.325+07:00,540127856527980888,-340848,-308579,-363608,-472950
1783266281343502890,2026-07-05T22:44:41.343+07:00,540127856527980888,-341203,-308974,-363930,-472844
1783266281361684709,2026-07-05T22:44:41.361+07:00,540127856527980888,-341492,-309342,-364141,-472860
1783266281379866527,2026-07-05T22:44:41.379+07:00,540127856527980888,-341734,-309729,-364413,-472932
1783266281398048345,2026-07-05T22:44:41.398+07:00,540127856527980888,-341869,-309915,-364652,-472866
1783266281416230163,2026-07-05T22:44:41.416+07:00,540127856527980888,-342008,-310079,-364794,-472903
1783266281434411981,2026-07-05T22:44:41.434+07:00,540127856527980888,-342130,-310270,-364871,-472890
1783266281452593800,2026-07-05T22:44:41.452+07:00,540127856527980888,-342064,-310230,-364794,-472865
1783266281470775618,2026-07-05T22:44:41.470+07:00,540127856527980888,-342118,-310212,-364879,-472938
1783266281488957436,2026-07-05T22:44:41.488+07:00,540127856527980888,-341998,-310239,-364820,-472880
1783266281507139254,2026-07-05T22:44:41.507+07:00,540127856527980888,-342009,-310179,-364812,-472893
1783266281525321072,2026-07-05T22:44:41.525+07:00,540127856527980888,-342008,-310174,-364885,-472920
1783266281543502890,2026-07-05T22:44:41.543+07:00,540127856527980888,-341941,-310192,-364847,-472924
1783266281561684709,2026-07-05T22:44:41.561+07:00,540127856527980888,-341865,-310149,-364842,-472890
1783266281579866527,2026-07-05T22:44:41.579+07:00,540127856527980888,-341902,-310210,-364843,-472919
1783266281598048345,2026-07-05T22:44:41.598+07:00,540127856527980888,-341843,-310079,-364710,-472920
1783266281616230163,2026-07-05T22:44:41.616+07:00,540127856527980888,-341823,-310050,-364732,-472901
1783266281634411981,2026-07-05T22:44:41.634+07:00,540127856527980888,-341672,-309881,-364628,-472942
1783266281652593800,2026-07-05T22:44:41.652+07:00,540127856527980888,-341587,-309823,-364549,-472908
1783266281670775618,2026-07-05T22:44:41.670+07:00,540127856527980888,-341449,-309688,-364445,-472916
1783266281688957436,2026-07-05T22:44:41.688+07:00,540127856527980888,-341380,-309513,-364338,-472949
1783266281707139254,2026-07-05T22:44:41.707+07:00,540127856527980888,-341248,-309336,-364209,-472897
1783266281725321072,2026-07-05T22:44:41.725+07:00,540127856527980888,-341040,-309133,-364102,-472854
1783266281743502890,2026-07-05T22:44:41.743+07:00,540127856527980888,-340879,-308947,-363907,-472824
1783266281761684709,2026-07-05T22:44:41.761+07:00,540127856527980888,-340789,-308841,-363850,-472850
1783266281779866527,2026-07-05T22:44:41.779+07:00,540127856527980888,-340634,-308614,-363674,-472850
1783266281798048345,2026-07-05T22:44:41.798+07:00,540127856527980888,-340414,-308445,-363545,-472861
1783266281816230163,2026-07-05T22:44:41.816+07:00,540127856527980888,-340224,-308175,-363329,-472858
1783266281834411981,2026-07-05T22:44:41.834+07:00,540127856527980888,-340101,-307933,-363235,-472848
1783266281852593800,2026-07-05T22:44:41.852+07:00,540127856527980888,-339973,-307782,-363059,-472893
1783266281870775618,2026-07-05T22:44:41.870+07:00,540127856527980888,-339834,-307534,-362879,-472916
1783266281888957436,2026-07-05T22:44:41.888+07:00,540127856527980888,-339611,-307293,-362670,-472849
1783266281907139254,2026-07-05T22:44:41.907+07:00,540127856527980888,-339489,-307107,-362562,-472967
1783266281902716600,2026-07-05T22:44:41.902+07:00,540127857201107261,-339302,-306878,-362396,-472913
1783266281920898418,2026-07-05T22:44:41.920+07:00,540127857201107261,-339108,-306659,-362232,-472901
1783266281939080236,2026-07-05T22:44:41.939+07:00,540127857201107261,-338918,-306369,-362025,-472884
1783266281957262054,2026-07-05T22:44:41.957+07:00,540127857201107261,-338782,-306231,-361926,-472885
1783266281975443872,2026-07-05T22:44:41.975+07:00,540127857201107261,-338578,-305922,-361766,-472901
1783266281993625690,2026-07-05T22:44:41.993+07:00,540127857201107261,-338347,-305683,-361574,-472916
1783266282011807509,2026-07-05T22:44:42.011+07:00,540127857201107261,-338122,-305412,-361355,-472894
1783266282029989327,2026-07-05T22:44:42.029+07:00,540127857201107261,-337969,-305182,-361174,-472921
1783266282048171145,2026-07-05T22:44:42.048+07:00,540127857201107261,-337842,-305003,-361114,-472867
1783266282066352963,2026-07-05T22:44:42.066+07:00,540127857201107261,-337929,-305087,-361139,-472825
1783266282084534781,2026-07-05T22:44:42.084+07:00,540127857201107261,-338200,-305289,-361281,-472835
1783266282102716600,2026-07-05T22:44:42.102+07:00,540127857201107261,-338599,-305748,-361610,-472877
1783266282120898418,2026-07-05T22:44:42.120+07:00,540127857201107261,-339052,-306306,-361970,-472883
1783266282139080236,2026-07-05T22:44:42.139+07:00,540127857201107261,-339527,-306811,-362350,-472908
1783266282157262054,2026-07-05T22:44:42.157+07:00,540127857201107261,-339829,-307228,-362622,-472882
1783266282175443872,2026-07-05T22:44:42.175+07:00,540127857201107261,-340190,-307651,-363028,-472874
1783266282193625690,2026-07-05T22:44:42.193+07:00,540127857201107261,-340473,-307935,-363229,-472881
1783266282211807509,2026-07-05T22:44:42.211+07:00,540127857201107261,-340721,-308318,-363503,-472861
1783266282229989327,2026-07-05T22:44:42.229+07:00,540127857201107261,-340968,-308521,-363725,-472846
1783266282248171145,2026-07-05T22:44:42.248+07:00,540127857201107261,-341111,-308773,-363863,-472878
1783266282266352963,2026-07-05T22:44:42.266+07:00,540127857201107261,-341109,-308887,-363981,-472938
1783266282284534781,2026-07-05T22:44:42.284+07:00,540127857201107261,-341112,-308891,-363982,-472925
1783266282302716600,2026-07-05T22:44:42.302+07:00,540127857201107261,-341078,-308866,-363981,-472920
1783266282320898418,2026-07-05T22:44:42.320+07:00,540127857201107261,-341008,-308846,-363974,-472910
1783266282339080236,2026-07-05T22:44:42.339+07:00,540127857201107261,-341018,-308815,-363934,-472871
1783266282357262054,2026-07-05T22:44:42.357+07:00,540127857201107261,-341025,-308803,-364011,-472867
1783266282375443872,2026-07-05T22:44:42.375+07:00,540127857201107261,-340980,-308790,-363934,-472847
1783266282393625690,2026-07-05T22:44:42.393+07:00,540127857201107261,-340907,-308788,-363931,-472840
1783266282411807509,2026-07-05T22:44:42.411+07:00,540127857201107261,-340932,-308745,-363964,-472865
1783266282429989327,2026-07-05T22:44:42.429+07:00,540127857201107261,-340912,-308688,-363940,-472894
1783266282448171145,2026-07-05T22:44:42.448+07:00,540127857201107261,-340864,-308651,-363888,-472888
1783266282466352963,2026-07-05T22:44:42.466+07:00,540127857201107261,-340741,-308544,-363824,-472895
1783266282484534781,2026-07-05T22:44:42.484+07:00,540127857201107261,-340580,-308379,-363675,-472888
1783266282502716600,2026-07-05T22:44:42.502+07:00,540127857201107261,-340498,-308317,-363642,-472937
1783266282520898418,2026-07-05T22:44:42.520+07:00,540127857201107261,-340355,-308207,-363500,-472796
1783266282539080236,2026-07-05T22:44:42.539+07:00,540127857201107261,-340229,-308029,-363394,-472825
1783266282557262054,2026-07-05T22:44:42.557+07:00,540127857201107261,-340130,-307898,-363324,-472928
1783266282715650500,2026-07-05T22:44:42.715+07:00,540127857910617192,-339978,-307702,-363141,-472843
1783266282733832318,2026-07-05T22:44:42.733+07:00,540127857910617192,-339816,-307518,-362978,-472848
1783266282752014136,2026-07-05T22:44:42.752+07:00,540127857910617192,-339674,-307410,-362877,-472852
1783266282770195954,2026-07-05T22:44:42.770+07:00,540127857910617192,-339551,-307193,-362749,-472870
1783266282788377772,2026-07-05T22:44:42.788+07:00,540127857910617192,-339408,-306972,-362589,-472901
1783266282806559590,2026-07-05T22:44:42.806+07:00,540127857910617192,-339262,-306778,-362498,-472883
1783266282824741409,2026-07-05T22:44:42.824+07:00,540127857910617192,-339081,-306568,-362349,-472905
1783266282842923227,2026-07-05T22:44:42.842+07:00,540127857910617192,-338953,-306399,-362207,-472868
1783266282861105045,2026-07-05T22:44:42.861+07:00,540127857910617192,-338804,-306204,-362097,-472911
1783266282879286863,2026-07-05T22:44:42.879+07:00,540127857910617192,-338661,-305989,-361964,-472865
1783266282897468681,2026-07-05T22:44:42.897+07:00,540127857910617192,-338502,-305793,-361781,-472885
1783266282915650500,2026-07-05T22:44:42.915+07:00,540127857910617192,-338295,-305590,-361599,-472871
1783266282933832318,2026-07-05T22:44:42.933+07:00,540127857910617192,-338213,-305414,-361519,-472952
1783266282952014136,2026-07-05T22:44:42.952+07:00,540127857910617192,-338004,-305191,-361329,-472864
1783266282970195954,2026-07-05T22:44:42.970+07:00,540127857910617192,-337918,-305024,-361241,-472950
1783266282988377772,2026-07-05T22:44:42.988+07:00,540127857910617192,-337681,-304770,-361035,-472922
1783266283006559590,2026-07-05T22:44:43.006+07:00,540127857910617192,-337507,-304532,-360906,-472883
1783266283024741409,2026-07-05T22:44:43.024+07:00,540127857910617192,-337353,-304372,-360758,-472892
1783266283042923227,2026-07-05T22:44:43.042+07:00,540127857910617192,-337226,-304157,-360607,-472871
1783266283061105045,2026-07-05T22:44:43.061+07:00,540127857910617192,-337324,-304196,-360661,-472865
1783266283079286863,2026-07-05T22:44:43.079+07:00,540127857910617192,-337511,-304401,-360776,-472880
1783266283097468681,2026-07-05T22:44:43.097+07:00,540127857910617192,-337925,-304810,-361120,-472834
1783266283115650500,2026-07-05T22:44:43.115+07:00,540127857910617192,-338342,-305331,-361467,-472878
1783266283133832318,2026-07-05T22:44:43.133+07:00,540127857910617192,-338752,-305791,-361807,-472897
1783266283152014136,2026-07-05T22:44:43.152+07:00,540127857910617192,-339111,-306172,-362108,-472873
1783266283170195954,2026-07-05T22:44:43.170+07:00,540127857910617192,-339533,-306599,-362431,-472878
1783266283188377772,2026-07-05T22:44:43.188+07:00,540127857910617192,-339764,-306917,-362670,-472893
1783266283206559590,2026-07-05T22:44:43.206+07:00,540127857910617192,-339971,-307230,-362944,-472877
1783266283224741409,2026-07-05T22:44:43.224+07:00,540127857910617192,-340164,-307551,-363139,-472825
1783266283242923227,2026-07-05T22:44:43.242+07:00,540127857910617192,-340317,-307680,-363274,-472825
1783266283261105045,2026-07-05T22:44:43.261+07:00,540127857910617192,-340346,-307752,-363348,-472856
1783266283279286863,2026-07-05T22:44:43.279+07:00,540127857910617192,-340340,-307854,-363453,-472840
1783266283297468681,2026-07-05T22:44:43.297+07:00,540127857910617192,-340292,-307879,-363497,-472877
1783266283315650500,2026-07-05T22:44:43.315+07:00,540127857910617192,-340281,-307951,-363469,-472864
1783266283333832318,2026-07-05T22:44:43.333+07:00,540127857910617192,-340250,-307914,-363411,-472851
1783266283352014136,2026-07-05T22:44:43.352+07:00,540127857910617192,-340314,-307964,-363495,-472901
1783266283370195954,2026-07-05T22:44:43.370+07:00,540127857910617192,-340256,-307916,-363508,-472888
1783266283388377772,2026-07-05T22:44:43.388+07:00,540127857910617192,-340210,-307849,-363462,-472877
1783266283406559590,2026-07-05T22:44:43.406+07:00,540127857910617192,-340231,-307862,-363496,-472943
1783266283338981300,2026-07-05T22:44:43.338+07:00,540127858601947552,-340110,-307864,-363418,-472875
1783266283357163118,2026-07-05T22:44:43.357+07:00,540127858601947552,-340044,-307773,-363419,-472876
1783266283375344936,2026-07-05T22:44:43.375+07:00,540127858601947552,-339949,-307709,-363358,-472881
1783266283393526754,2026-07-05T22:44:43.393+07:00,540127858601947552,-339949,-307603,-363252,-472942
1783266283411708572,2026-07-05T22:44:43.411+07:00,540127858601947552,-339793,-307475,-363137,-472896
1783266283429890390,2026-07-05T22:44:43.429+07:00,540127858601947552,-339673,-307340,-363033,-472915
1783266283448072209,2026-07-05T22:44:43.448+07:00,540127858601947552,-339559,-307253,-362975,-472869
1783266283466254027,2026-07-05T22:44:43.466+07:00,540127858601947552,-339411,-307035,-362935,-472810
1783266283484435845,2026-07-05T22:44:43.484+07:00,540127858601947552,-339267,-306923,-362757,-472870
1783266283502617663,2026-07-05T22:44:43.502+07:00,540127858601947552,-339165,-306782,-362647,-472866
1783266283520799481,2026-07-05T22:44:43.520+07:00,540127858601947552,-339028,-306571,-362549,-472953
1783266283538981300,2026-07-05T22:44:43.538+07:00,540127858601947552,-338895,-306416,-362374,-472852
1783266283557163118,2026-07-05T22:44:43.557+07:00,540127858601947552,-338736,-306237,-362224,-472883
1783266283575344936,2026-07-05T22:44:43.575+07:00,540127858601947552,-338598,-306033,-362127,-472862
1783266283593526754,2026-07-05T22:44:43.593+07:00,540127858601947552,-338414,-305826,-361923,-472839
1783266283611708572,2026-07-05T22:44:43.611+07:00,540127858601947552,-338229,-305656,-361821,-472895
1783266283629890390,2026-07-05T22:44:43.629+07:00,540127858601947552,-338068,-305460,-361714,-472840
1783266283648072209,2026-07-05T22:44:43.648+07:00,540127858601947552,-337932,-305261,-361565,-472867
1783266283666254027,2026-07-05T22:44:43.666+07:00,540127858601947552,-337750,-305043,-361352,-472871
1783266283684435845,2026-07-05T22:44:43.684+07:00,540127858601947552,-337645,-304881,-361226,-472881
1783266283702617663,2026-07-05T22:44:43.702+07:00,540127858601947552,-337401,-304683,-361111,-472862
1783266283720799481,2026-07-05T22:44:43.720+07:00,540127858601947552,-337247,-304459,-360963,-472894
1783266283738981300,2026-07-05T22:44:43.738+07:00,540127858601947552,-337104,-304310,-360850,-472938
1783266283757163118,2026-07-05T22:44:43.757+07:00,540127858601947552,-336902,-304075,-360684,-472931
1783266283775344936,2026-07-05T22:44:43.775+07:00,540127858601947552,-336805,-303813,-360492,-472897
1783266283793526754,2026-07-05T22:44:43.793+07:00,540127858601947552,-336635,-303722,-360404,-472900
1783266283811708572,2026-07-05T22:44:43.811+07:00,540127858601947552,-336717,-303676,-360403,-472832
1783266283829890390,2026-07-05T22:44:43.829+07:00,540127858601947552,-336951,-303957,-360514,-472852
1783266283848072209,2026-07-05T22:44:43.848+07:00,540127858601947552,-337311,-304312,-360849,-472832
1783266283866254027,2026-07-05T22:44:43.866+07:00,540127858601947552,-337734,-304836,-361217,-472887
1783266283884435845,2026-07-05T22:44:43.884+07:00,540127858601947552,-338148,-305337,-361555,-472839
1783266283902617663,2026-07-05T22:44:43.902+07:00,540127858601947552,-338601,-305868,-361949,-472846
1783266283920799481,2026-07-05T22:44:43.920+07:00,540127858601947552,-338951,-306208,-362244,-472829
1783266283938981300,2026-07-05T22:44:43.938+07:00,540127858601947552,-339253,-306652,-362566,-472846
1783266283957163118,2026-07-05T22:44:43.957+07:00,540127858601947552,-339518,-307019,-362847,-472850
1783266283975344936,2026-07-05T22:44:43.975+07:00,540127858601947552,-339722,-307249,-363022,-472808
1783266283993526754,2026-07-05T22:44:43.993+07:00,540127858601947552,-339859,-307533,-363226,-472846
1783266284011708572,2026-07-05T22:44:44.011+07:00,540127858601947552,-339979,-307674,-363339,-472848
1783266284142402700,2026-07-05T22:44:44.142+07:00,540127859347873085,-340054,-307862,-363449,-472887
1783266284160584518,2026-07-05T22:44:44.160+07:00,540127859347873085,-340018,-307820,-363427,-472848
1783266284178766336,2026-07-05T22:44:44.178+07:00,540127859347873085,-339954,-307869,-363498,-472847
1783266284196948154,2026-07-05T22:44:44.196+07:00,540127859347873085,-339953,-307900,-363516,-472899
1783266284215129972,2026-07-05T22:44:44.215+07:00,540127859347873085,-339967,-307897,-363486,-472908
1783266284233311790,2026-07-05T22:44:44.233+07:00,540127859347873085,-339992,-307884,-363495,-472880
1783266284251493609,2026-07-05T22:44:44.251+07:00,540127859347873085,-339988,-307908,-363512,-472888
1783266284269675427,2026-07-05T22:44:44.269+07:00,540127859347873085,-339980,-307944,-363510,-472925
1783266284287857245,2026-07-05T22:44:44.287+07:00,540127859347873085,-339956,-307968,-363459,-472879
1783266284306039063,2026-07-05T22:44:44.306+07:00,540127859347873085,-339858,-307890,-363392,-472865
1783266284324220881,2026-07-05T22:44:44.324+07:00,540127859347873085,-339848,-307863,-363397,-472885
1783266284342402700,2026-07-05T22:44:44.342+07:00,540127859347873085,-339802,-307811,-363366,-472890
1783266284360584518,2026-07-05T22:44:44.360+07:00,540127859347873085,-339650,-307697,-363247,-472869
1783266284378766336,2026-07-05T22:44:44.378+07:00,540127859347873085,-339581,-307578,-363181,-472960
1783266284396948154,2026-07-05T22:44:44.396+07:00,540127859347873085,-339495,-307402,-363113,-472961
1783266284415129972,2026-07-05T22:44:44.415+07:00,540127859347873085,-339333,-307275,-363048,-472882
1783266284433311790,2026-07-05T22:44:44.433+07:00,540127859347873085,-339268,-307138,-362932,-472911
1783266284451493609,2026-07-05T22:44:44.451+07:00,540127859347873085,-339021,-306957,-362800,-472895
1783266284469675427,2026-07-05T22:44:44.469+07:00,540127859347873085,-338942,-306857,-362692,-472905
1783266284487857245,2026-07-05T22:44:44.487+07:00,540127859347873085,-338805,-306647,-362521,-472887
1783266284506039063,2026-07-05T22:44:44.506+07:00,540127859347873085,-338651,-306480,-362370,-472850
1783266284524220881,2026-07-05T22:44:44.524+07:00,540127859347873085,-338561,-306280,-362321,-472893
1783266284542402700,2026-07-05T22:44:44.542+07:00,540127859347873085,-338387,-306042,-362155,-472817
1783266284560584518,2026-07-05T22:44:44.560+07:00,540127859347873085,-338215,-305842,-361967,-472868
1783266284578766336,2026-07-05T22:44:44.578+07:00,540127859347873085,-338077,-305670,-361879,-472878
1783266284596948154,2026-07-05T22:44:44.596+07:00,540127859347873085,-337943,-305526,-361756,-472918
1783266284615129972,2026-07-05T22:44:44.615+07:00,540127859347873085,-337757,-305334,-361604,-472903
1783266284633311790,2026-07-05T22:44:44.633+07:00,540127859347873085,-337568,-305138,-361429,-472866
1783266284651493609,2026-07-05T22:44:44.651+07:00,540127859347873085,-337367,-304933,-361240,-472878
1783266284669675427,2026-07-05T22:44:44.669+07:00,540127859347873085,-337245,-304754,-361157,-472927
1783266284687857245,2026-07-05T22:44:44.687+07:00,540127859347873085,-337082,-304475,-361054,-472939
1783266284706039063,2026-07-05T22:44:44.706+07:00,540127859347873085,-336905,-304224,-360778,-472933
1783266284724220881,2026-07-05T22:44:44.724+07:00,540127859347873085,-336717,-304015,-360580,-472905
1783266284742402700,2026-07-05T22:44:44.742+07:00,540127859347873085,-336549,-303761,-360411,-472925
1783266284760584518,2026-07-05T22:44:44.760+07:00,540127859347873085,-336370,-303544,-360298,-472919
1783266284778766336,2026-07-05T22:44:44.778+07:00,540127859347873085,-336273,-303418,-360187,-472918
1783266284796948154,2026-07-05T22:44:44.796+07:00,540127859347873085,-336168,-303277,-360038,-472881
1783266284815129972,2026-07-05T22:44:44.815+07:00,540127859347873085,-336332,-303443,-360205,-472959
1783266284833311790,2026-07-05T22:44:44.833+07:00,540127859347873085,-336579,-303703,-360381,-472880
1783266284851493609,2026-07-05T22:44:44.851+07:00,540127859347873085,-336989,-304153,-360697,-472898
1783266284869675427,2026-07-05T22:44:44.869+07:00,540127859347873085,-337434,-304736,-361076,-472886
1783266284948959100,2026-07-05T22:44:44.948+07:00,540127860093798618,-337926,-305269,-361520,-472955
1783266284967140918,2026-07-05T22:44:44.967+07:00,540127860093798618,-338256,-305696,-361862,-472941
1783266284985322736,2026-07-05T22:44:44.985+07:00,540127860093798618,-338562,-306123,-362185,-472917
1783266285003504554,2026-07-05T22:44:45.003+07:00,540127860093798618,-338847,-306493,-362445,-472897
1783266285021686372,2026-07-05T22:44:45.021+07:00,540127860093798618,-339168,-306916,-362719,-472956
1783266285039868190,2026-07-05T22:44:45.039+07:00,540127860093798618,-339362,-307187,-362932,-472822
1783266285058050009,2026-07-05T22:44:45.058+07:00,540127860093798618,-339559,-307426,-363147,-472865
1783266285076231827,2026-07-05T22:44:45.076+07:00,540127860093798618,-339606,-307545,-363287,-472905
1783266285094413645,2026-07-05T22:44:45.094+07:00,540127860093798618,-339607,-307643,-363249,-472909
1783266285112595463,2026-07-05T22:44:45.112+07:00,540127860093798618,-339561,-307675,-363335,-472896
1783266285130777281,2026-07-05T22:44:45.130+07:00,540127860093798618,-339564,-307683,-363325,-472904
1783266285148959100,2026-07-05T22:44:45.148+07:00,540127860093798618,-339536,-307678,-363336,-472907
1783266285167140918,2026-07-05T22:44:45.167+07:00,540127860093798618,-339458,-307643,-363317,-472871
1783266285185322736,2026-07-05T22:44:45.185+07:00,540127860093798618,-339478,-307637,-363391,-472895
1783266285203504554,2026-07-05T22:44:45.203+07:00,540127860093798618,-339427,-307654,-363371,-472894
1783266285221686372,2026-07-05T22:44:45.221+07:00,540127860093798618,-339450,-307695,-363306,-472851
1783266285239868190,2026-07-05T22:44:45.239+07:00,540127860093798618,-339404,-307694,-363305,-472902
1783266285258050009,2026-07-05T22:44:45.258+07:00,540127860093798618,-339347,-307608,-363301,-472903
1783266285276231827,2026-07-05T22:44:45.276+07:00,540127860093798618,-339335,-307541,-363210,-472960
1783266285294413645,2026-07-05T22:44:45.294+07:00,540127860093798618,-339268,-307492,-363201,-472903
1783266285312595463,2026-07-05T22:44:45.312+07:00,540127860093798618,-339128,-307362,-363089,-472826
1783266285330777281,2026-07-05T22:44:45.330+07:00,540127860093798618,-339106,-307277,-362975,-472892
1783266285348959100,2026-07-05T22:44:45.348+07:00,540127860093798618,-338967,-307146,-362879,-472870
1783266285367140918,2026-07-05T22:44:45.367+07:00,540127860093798618,-338834,-306987,-362787,-472865
1783266285385322736,2026-07-05T22:44:45.385+07:00,540127860093798618,-338749,-306857,-362697,-472866
1783266285403504554,2026-07-05T22:44:45.403+07:00,540127860093798618,-338613,-306639,-362559,-472916
1783266285421686372,2026-07-05T22:44:45.421+07:00,540127860093798618,-338493,-306526,-362434,-472953
1783266285439868190,2026-07-05T22:44:45.439+07:00,540127860093798618,-338322,-306352,-362312,-472874
1783266285458050009,2026-07-05T22:44:45.458+07:00,540127860093798618,-338173,-306121,-362220,-472911
1783266285476231827,2026-07-05T22:44:45.476+07:00,540127860093798618,-337989,-305893,-361998,-472827
1783266285494413645,2026-07-05T22:44:45.494+07:00,540127860093798618,-337845,-305786,-361850,-472894
1783266285512595463,2026-07-05T22:44:45.512+07:00,540127860093798618,-337745,-305641,-361705,-472868
1783266285530777281,2026-07-05T22:44:45.530+07:00,540127860093798618,-337679,-305493,-361648,-472955
1783266285548959100,2026-07-05T22:44:45.548+07:00,540127860093798618,-337381,-305240,-361493,-472874
1783266285567140918,2026-07-05T22:44:45.567+07:00,540127860093798618,-337275,-305072,-361362,-472883
1783266285585322736,2026-07-05T22:44:45.585+07:00,540127860093798618,-337045,-304884,-361188,-472886
1783266285603504554,2026-07-05T22:44:45.603+07:00,540127860093798618,-336964,-304662,-361086,-472914
1783266285621686372,2026-07-05T22:44:45.621+07:00,540127860093798618,-336892,-304520,-360948,-472909
1783266285639868190,2026-07-05T22:44:45.639+07:00,540127860093798618,-336677,-304263,-360801,-472948
1783266285658050009,2026-07-05T22:44:45.658+07:00,540127860093798618,-336519,-304025,-360648,-472896
1783266285676231827,2026-07-05T22:44:45.676+07:00,540127860093798618,-336350,-303804,-360483,-472841
1783266285552497200,2026-07-05T22:44:45.552+07:00,540127860803337541,-336206,-303635,-360254,-472887
1783266285570679018,2026-07-05T22:44:45.570+07:00,540127860803337541,-336017,-303480,-360184,-472887
1783266285588860836,2026-07-05T22:44:45.588+07:00,540127860803337541,-335952,-303353,-360066,-472885
1783266285607042654,2026-07-05T22:44:45.607+07:00,540127860803337541,-336017,-303327,-360001,-472892
1783266285625224472,2026-07-05T22:44:45.625+07:00,540127860803337541,-336239,-303549,-360219,-472879
1783266285643406290,2026-07-05T22:44:45.643+07:00,540127860803337541,-336577,-303956,-360511,-472816
1783266285661588109,2026-07-05T22:44:45.661+07:00,540127860803337541,-337050,-304401,-360898,-472849
1783266285679769927,2026-07-05T22:44:45.679+07:00,540127860803337541,-337465,-305029,-361294,-472827
1783266285697951745,2026-07-05T22:44:45.697+07:00,540127860803337541,-337837,-305466,-361619,-472907
1783266285716133563,2026-07-05T22:44:45.716+07:00,540127860803337541,-338218,-305930,-362002,-472851
1783266285734315381,2026-07-05T22:44:45.734+07:00,540127860803337541,-338563,-306305,-362243,-472860
1783266285752497200,2026-07-05T22:44:45.752+07:00,540127860803337541,-338706,-306574,-362505,-472802
1783266285770679018,2026-07-05T22:44:45.770+07:00,540127860803337541,-338961,-306894,-362791,-472842
1783266285788860836,2026-07-05T22:44:45.788+07:00,540127860803337541,-339116,-307052,-362916,-472810
1783266285807042654,2026-07-05T22:44:45.807+07:00,540127860803337541,-339212,-307225,-362986,-472835
1783266285825224472,2026-07-05T22:44:45.825+07:00,540127860803337541,-339225,-307337,-363044,-472845
1783266285843406290,2026-07-05T22:44:45.843+07:00,540127860803337541,-339164,-307261,-363016,-472835
1783266285861588109,2026-07-05T22:44:45.861+07:00,540127860803337541,-339176,-307318,-363055,-472888
1783266285879769927,2026-07-05T22:44:45.879+07:00,540127860803337541,-339144,-307296,-363079,-472852
1783266285897951745,2026-07-05T22:44:45.897+07:00,540127860803337541,-339131,-307262,-363058,-472900
1783266285916133563,2026-07-05T22:44:45.916+07:00,540127860803337541,-339126,-307302,-363059,-472852
1783266285934315381,2026-07-05T22:44:45.934+07:00,540127860803337541,-339147,-307342,-363050,-472830
1783266285952497200,2026-07-05T22:44:45.952+07:00,540127860803337541,-339165,-307298,-363042,-472851
1783266285970679018,2026-07-05T22:44:45.970+07:00,540127860803337541,-339144,-307282,-363017,-472935
1783266285988860836,2026-07-05T22:44:45.988+07:00,540127860803337541,-339077,-307276,-362986,-472969
1783266286007042654,2026-07-05T22:44:46.007+07:00,540127860803337541,-338981,-307170,-362967,-472882
1783266286025224472,2026-07-05T22:44:46.025+07:00,540127860803337541,-338895,-307110,-362884,-472931
1783266286043406290,2026-07-05T22:44:46.043+07:00,540127860803337541,-338823,-307044,-362860,-472869
1783266286061588109,2026-07-05T22:44:46.061+07:00,540127860803337541,-338695,-306844,-362687,-472882
1783266286079769927,2026-07-05T22:44:46.079+07:00,540127860803337541,-338598,-306679,-362603,-472962
1783266286097951745,2026-07-05T22:44:46.097+07:00,540127860803337541,-338441,-306537,-362446,-472886
1783266286116133563,2026-07-05T22:44:46.116+07:00,540127860803337541,-338318,-306349,-362350,-472936
1783266286134315381,2026-07-05T22:44:46.134+07:00,540127860803337541,-338193,-306192,-362266,-472909
1783266286152497200,2026-07-05T22:44:46.152+07:00,540127860803337541,-338000,-306040,-362169,-472916
1783266286170679018,2026-07-05T22:44:46.170+07:00,540127860803337541,-337814,-305816,-361994,-472941
1783266286188860836,2026-07-05T22:44:46.188+07:00,540127860803337541,-337667,-305632,-361852,-472930
1783266286207042654,2026-07-05T22:44:46.207+07:00,540127860803337541,-337526,-305462,-361683,-472879
1783266286225224472,2026-07-05T22:44:46.225+07:00,540127860803337541,-337341,-305268,-361507,-472949
1783266286243406290,2026-07-05T22:44:46.243+07:00,540127860803337541,-337216,-304969,-361390,-472922
1783266286345143700,2026-07-05T22:44:46.345+07:00,540127861476499010,-337043,-304798,-361297,-472903
1783266286363325518,2026-07-05T22:44:46.363+07:00,540127861476499010,-336925,-304644,-361143,-472961
1783266286381507336,2026-07-05T22:44:46.381+07:00,540127861476499010,-336719,-304466,-360975,-472886
1783266286399689154,2026-07-05T22:44:46.399+07:00,540127861476499010,-336516,-304225,-360765,-472912
1783266286417870972,2026-07-05T22:44:46.417+07:00,540127861476499010,-336431,-304070,-360629,-472955
1783266286436052790,2026-07-05T22:44:46.436+07:00,540127861476499010,-336205,-303791,-360456,-472880
1783266286454234609,2026-07-05T22:44:46.454+07:00,540127861476499010,-336129,-303580,-360303,-472910
1783266286472416427,2026-07-05T22:44:46.472+07:00,540127861476499010,-335896,-303278,-360084,-472828
1783266286490598245,2026-07-05T22:44:46.490+07:00,540127861476499010,-335750,-303061,-360002,-472863
1783266286508780063,2026-07-05T22:44:46.508+07:00,540127861476499010,-335634,-302941,-359847,-472918
1783266286526961881,2026-07-05T22:44:46.526+07:00,540127861476499010,-335563,-302809,-359731,-472871
1783266286545143700,2026-07-05T22:44:46.545+07:00,540127861476499010,-335734,-302989,-359843,-472905
1783266286563325518,2026-07-05T22:44:46.563+07:00,540127861476499010,-336045,-303308,-360064,-472884
1783266286581507336,2026-07-05T22:44:46.581+07:00,540127861476499010,-336399,-303742,-360463,-472873
1783266286599689154,2026-07-05T22:44:46.599+07:00,540127861476499010,-336870,-304266,-360837,-472866
1783266286617870972,2026-07-05T22:44:46.617+07:00,540127861476499010,-337271,-304750,-361199,-472926
1783266286636052790,2026-07-05T22:44:46.636+07:00,540127861476499010,-337648,-305160,-361463,-472878
1783266286654234609,2026-07-05T22:44:46.654+07:00,540127861476499010,-338006,-305599,-361874,-472910
1783266286672416427,2026-07-05T22:44:46.672+07:00,540127861476499010,-338330,-305963,-362093,-472959
1783266286690598245,2026-07-05T22:44:46.690+07:00,540127861476499010,-338518,-306235,-362270,-472875
1783266286708780063,2026-07-05T22:44:46.708+07:00,540127861476499010,-338816,-306466,-362480,-472862
1783266286726961881,2026-07-05T22:44:46.726+07:00,540127861476499010,-338936,-306669,-362616,-472873
1783266286745143700,2026-07-05T22:44:46.745+07:00,540127861476499010,-338919,-306788,-362748,-472865
1783266286763325518,2026-07-05T22:44:46.763+07:00,540127861476499010,-338930,-306841,-362786,-472930
1783266286781507336,2026-07-05T22:44:46.781+07:00,540127861476499010,-338903,-306823,-362822,-472878
1783266286799689154,2026-07-05T22:44:46.799+07:00,540127861476499010,-338895,-306824,-362772,-472909
1783266286817870972,2026-07-05T22:44:46.817+07:00,540127861476499010,-338926,-306835,-362740,-472895
1783266286836052790,2026-07-05T22:44:46.836+07:00,540127861476499010,-338937,-306831,-362785,-472932
1783266286854234609,2026-07-05T22:44:46.854+07:00,540127861476499010,-338930,-306840,-362778,-472888
1783266286872416427,2026-07-05T22:44:46.872+07:00,540127861476499010,-338928,-306833,-362782,-472877
1783266286890598245,2026-07-05T22:44:46.890+07:00,540127861476499010,-338898,-306812,-362761,-472857
1783266286908780063,2026-07-05T22:44:46.908+07:00,540127861476499010,-338868,-306745,-362747,-472896
1783266286926961881,2026-07-05T22:44:46.926+07:00,540127861476499010,-338876,-306746,-362762,-472869
1783266286945143700,2026-07-05T22:44:46.945+07:00,540127861476499010,-338758,-306631,-362652,-472868
1783266286963325518,2026-07-05T22:44:46.963+07:00,540127861476499010,-338744,-306535,-362593,-472875
1783266286981507336,2026-07-05T22:44:46.981+07:00,540127861476499010,-338579,-306416,-362479,-472931
1783266286999689154,2026-07-05T22:44:46.999+07:00,540127861476499010,-338389,-306277,-362349,-472844
1783266286991707300,2026-07-05T22:44:46.991+07:00,540127862258846249,-338255,-306097,-362237,-472836
1783266287009889118,2026-07-05T22:44:47.009+07:00,540127862258846249,-338218,-305990,-362140,-472844
1783266287028070936,2026-07-05T22:44:47.028+07:00,540127862258846249,-338135,-305893,-362037,-472909
1783266287046252754,2026-07-05T22:44:47.046+07:00,540127862258846249,-337951,-305661,-361937,-472877
1783266287064434572,2026-07-05T22:44:47.064+07:00,540127862258846249,-337853,-305507,-361822,-472931
1783266287082616390,2026-07-05T22:44:47.082+07:00,540127862258846249,-337667,-305338,-361696,-472901
1783266287100798209,2026-07-05T22:44:47.100+07:00,540127862258846249,-337535,-305162,-361520,-472841
1783266287118980027,2026-07-05T22:44:47.118+07:00,540127862258846249,-337375,-304930,-361394,-472852
1783266287137161845,2026-07-05T22:44:47.137+07:00,540127862258846249,-337158,-304718,-361188,-472793
1783266287155343663,2026-07-05T22:44:47.155+07:00,540127862258846249,-336987,-304473,-361060,-472852
1783266287173525481,2026-07-05T22:44:47.173+07:00,540127862258846249,-336896,-304313,-360889,-472822
1783266287191707300,2026-07-05T22:44:47.191+07:00,540127862258846249,-336711,-304113,-360778,-472864
1783266287209889118,2026-07-05T22:44:47.209+07:00,540127862258846249,-336613,-303966,-360632,-472894
1783266287228070936,2026-07-05T22:44:47.228+07:00,540127862258846249,-336413,-303704,-360497,-472863
1783266287246252754,2026-07-05T22:44:47.246+07:00,540127862258846249,-336266,-303571,-360437,-472905
1783266287264434572,2026-07-05T22:44:47.264+07:00,540127862258846249,-336111,-303313,-360232,-472876
1783266287282616390,2026-07-05T22:44:47.282+07:00,540127862258846249,-335912,-303118,-360010,-472862
1783266287300798209,2026-07-05T22:44:47.300+07:00,540127862258846249,-335756,-302883,-359844,-472896
1783266287318980027,2026-07-05T22:44:47.318+07:00,540127862258846249,-335640,-302637,-359767,-472896
1783266287337161845,2026-07-05T22:44:47.337+07:00,540127862258846249,-335489,-302426,-359607,-472913
1783266287355343663,2026-07-05T22:44:47.355+07:00,540127862258846249,-335353,-302236,-359499,-472920
1783266287373525481,2026-07-05T22:44:47.373+07:00,540127862258846249,-335261,-302150,-359445,-472961
1783266287391707300,2026-07-05T22:44:47.391+07:00,540127862258846249,-335347,-302279,-359470,-472896
1783266287409889118,2026-07-05T22:44:47.409+07:00,540127862258846249,-335716,-302635,-359708,-472903
1783266287428070936,2026-07-05T22:44:47.428+07:00,540127862258846249,-336117,-303110,-360072,-472888
1783266287446252754,2026-07-05T22:44:47.446+07:00,540127862258846249,-336595,-303614,-360432,-472875
1783266287464434572,2026-07-05T22:44:47.464+07:00,540127862258846249,-337069,-304101,-360807,-472860
1783266287482616390,2026-07-05T22:44:47.482+07:00,540127862258846249,-337490,-304587,-361103,-472873
1783266287500798209,2026-07-05T22:44:47.500+07:00,540127862258846249,-337842,-304984,-361392,-472845
1783266287518980027,2026-07-05T22:44:47.518+07:00,540127862258846249,-338099,-305390,-361738,-472873
1783266287537161845,2026-07-05T22:44:47.537+07:00,540127862258846249,-338426,-305684,-361919,-472847
1783266287555343663,2026-07-05T22:44:47.555+07:00,540127862258846249,-338649,-305934,-362132,-472926
1783266287573525481,2026-07-05T22:44:47.573+07:00,540127862258846249,-338853,-306089,-362302,-472902
1783266287591707300,2026-07-05T22:44:47.591+07:00,540127862258846249,-338962,-306267,-362492,-472926
1783266287609889118,2026-07-05T22:44:47.609+07:00,540127862258846249,-338933,-306313,-362445,-472859
1783266287628070936,2026-07-05T22:44:47.628+07:00,540127862258846249,-338958,-306338,-362529,-472890
1783266287646252754,2026-07-05T22:44:47.646+07:00,540127862258846249,-338924,-306377,-362507,-472884
1783266287664434572,2026-07-05T22:44:47.664+07:00,540127862258846249,-338924,-306375,-362503,-472882
1783266287682616390,2026-07-05T22:44:47.682+07:00,540127862258846249,-338918,-306426,-362519,-472831
1783266287700798209,2026-07-05T22:44:47.700+07:00,540127862258846249,-338933,-306419,-362585,-472851
1783266287718980027,2026-07-05T22:44:47.718+07:00,540127862258846249,-338950,-306421,-362594,-472882
1783266287737161845,2026-07-05T22:44:47.737+07:00,540127862258846249,-338892,-306462,-362521,-472880
1783266287755343663,2026-07-05T22:44:47.755+07:00,540127862258846249,-338858,-306388,-362560,-472842
1783266287762078900,2026-07-05T22:44:47.762+07:00,540127862968401956,-338907,-306421,-362526,-472938
1783266287780260718,2026-07-05T22:44:47.780+07:00,540127862968401956,-338787,-306284,-362524,-472860
1783266287798442536,2026-07-05T22:44:47.798+07:00,540127862968401956,-338702,-306172,-362384,-472854
1783266287816624354,2026-07-05T22:44:47.816+07:00,540127862968401956,-338638,-306085,-362288,-472850
1783266287834806172,2026-07-05T22:44:47.834+07:00,540127862968401956,-338507,-305992,-362210,-472859
1783266287852987990,2026-07-05T22:44:47.852+07:00,540127862968401956,-338357,-305812,-362061,-472836
1783266287871169809,2026-07-05T22:44:47.871+07:00,540127862968401956,-338212,-305651,-361979,-472763
1783266287889351627,2026-07-05T22:44:47.889+07:00,540127862968401956,-338139,-305537,-361867,-472859
1783266287907533445,2026-07-05T22:44:47.907+07:00,540127862968401956,-338005,-305358,-361766,-472817
1783266287925715263,2026-07-05T22:44:47.925+07:00,540127862968401956,-337850,-305191,-361638,-472849
1783266287943897081,2026-07-05T22:44:47.943+07:00,540127862968401956,-337706,-305033,-361491,-472817
1783266287962078900,2026-07-05T22:44:47.962+07:00,540127862968401956,-337649,-304834,-361441,-472852
1783266287980260718,2026-07-05T22:44:47.980+07:00,540127862968401956,-337504,-304638,-361288,-472844
1783266287998442536,2026-07-05T22:44:47.998+07:00,540127862968401956,-337289,-304467,-361092,-472836
1783266288016624354,2026-07-05T22:44:48.016+07:00,540127862968401956,-337240,-304307,-360960,-472910
1783266288034806172,2026-07-05T22:44:48.034+07:00,540127862968401956,-337065,-304097,-360842,-472888
1783266288052987990,2026-07-05T22:44:48.052+07:00,540127862968401956,-336888,-303962,-360699,-472920
1783266288071169809,2026-07-05T22:44:48.071+07:00,540127862968401956,-336710,-303793,-360534,-472848
1783266288089351627,2026-07-05T22:44:48.089+07:00,540127862968401956,-336626,-303522,-360405,-472862
1783266288107533445,2026-07-05T22:44:48.107+07:00,540127862968401956,-336453,-303396,-360301,-472873
1783266288125715263,2026-07-05T22:44:48.125+07:00,540127862968401956,-336253,-303146,-360193,-472878
1783266288143897081,2026-07-05T22:44:48.143+07:00,540127862968401956,-336166,-302892,-360059,-472893
1783266288162078900,2026-07-05T22:44:48.162+07:00,540127862968401956,-335977,-302737,-359873,-472899
1783266288180260718,2026-07-05T22:44:48.180+07:00,540127862968401956,-335835,-302551,-359763,-472876
1783266288198442536,2026-07-05T22:44:48.198+07:00,540127862968401956,-335680,-302314,-359569,-472822
1783266288216624354,2026-07-05T22:44:48.216+07:00,540127862968401956,-335517,-302107,-359428,-472881
1783266288234806172,2026-07-05T22:44:48.234+07:00,540127862968401956,-335481,-302026,-359323,-472809
1783266288252987990,2026-07-05T22:44:48.252+07:00,540127862968401956,-335659,-302224,-359477,-472827
1783266288271169809,2026-07-05T22:44:48.271+07:00,540127862968401956,-335973,-302615,-359732,-472869
1783266288289351627,2026-07-05T22:44:48.289+07:00,540127862968401956,-336376,-303030,-360012,-472807
1783266288307533445,2026-07-05T22:44:48.307+07:00,540127862968401956,-336828,-303531,-360387,-472808
1783266288325715263,2026-07-05T22:44:48.325+07:00,540127862968401956,-337305,-304092,-360782,-472843
1783266288343897081,2026-07-05T22:44:48.343+07:00,540127862968401956,-337759,-304494,-361149,-472825
1783266288362078900,2026-07-05T22:44:48.362+07:00,540127862968401956,-338054,-304905,-361393,-472836
1783266288380260718,2026-07-05T22:44:48.380+07:00,540127862968401956,-338400,-305289,-361681,-472864
1783266288398442536,2026-07-05T22:44:48.398+07:00,540127862968401956,-338725,-305586,-361913,-472854
1783266288416624354,2026-07-05T22:44:48.416+07:00,540127862968401956,-338920,-305772,-362160,-472845
1783266288434806172,2026-07-05T22:44:48.434+07:00,540127862968401956,-339045,-306016,-362286,-472813
1783266288452987990,2026-07-05T22:44:48.452+07:00,540127862968401956,-339166,-306169,-362346,-472836
1783266288432479500,2026-07-05T22:44:48.432+07:00,540127863696134184,-339156,-306175,-362357,-472796
1783266288450661318,2026-07-05T22:44:48.450+07:00,540127863696134184,-339171,-306229,-362437,-472891
1783266288468843136,2026-07-05T22:44:48.468+07:00,540127863696134184,-339114,-306320,-362497,-472866
1783266288487024954,2026-07-05T22:44:48.487+07:00,540127863696134184,-339110,-306335,-362558,-472864
1783266288505206772,2026-07-05T22:44:48.505+07:00,540127863696134184,-339134,-306464,-362559,-472840
1783266288523388590,2026-07-05T22:44:48.523+07:00,540127863696134184,-339212,-306480,-362589,-472884
1783266288541570409,2026-07-05T22:44:48.541+07:00,540127863696134184,-339220,-306505,-362616,-472874
1783266288559752227,2026-07-05T22:44:48.559+07:00,540127863696134184,-339277,-306514,-362618,-472854
1783266288577934045,2026-07-05T22:44:48.577+07:00,540127863696134184,-339227,-306553,-362638,-472811
1783266288596115863,2026-07-05T22:44:48.596+07:00,540127863696134184,-339165,-306552,-362626,-472828
1783266288614297681,2026-07-05T22:44:48.614+07:00,540127863696134184,-339155,-306489,-362658,-472862
1783266288632479500,2026-07-05T22:44:48.632+07:00,540127863696134184,-339069,-306440,-362499,-472895
1783266288650661318,2026-07-05T22:44:48.650+07:00,540127863696134184,-338985,-306303,-362430,-472870
1783266288668843136,2026-07-05T22:44:48.668+07:00,540127863696134184,-338891,-306211,-362380,-472908
1783266288687024954,2026-07-05T22:44:48.687+07:00,540127863696134184,-338752,-306153,-362260,-472821
1783266288705206772,2026-07-05T22:44:48.705+07:00,540127863696134184,-338751,-306004,-362198,-472886
1783266288723388590,2026-07-05T22:44:48.723+07:00,540127863696134184,-338601,-305845,-362099,-472842
1783266288741570409,2026-07-05T22:44:48.741+07:00,540127863696134184,-338398,-305771,-361980,-472867
1783266288759752227,2026-07-05T22:44:48.759+07:00,540127863696134184,-338325,-305580,-361890,-472895
1783266288777934045,2026-07-05T22:44:48.777+07:00,540127863696134184,-338185,-305449,-361793,-472914
1783266288796115863,2026-07-05T22:44:48.796+07:00,540127863696134184,-338049,-305277,-361620,-472903
1783266288814297681,2026-07-05T22:44:48.814+07:00,540127863696134184,-337956,-305169,-361506,-472866
1783266288832479500,2026-07-05T22:44:48.832+07:00,540127863696134184,-337826,-304915,-361431,-472895
1783266288850661318,2026-07-05T22:44:48.850+07:00,540127863696134184,-337690,-304836,-361259,-472912
1783266288868843136,2026-07-05T22:44:48.868+07:00,540127863696134184,-337582,-304666,-361176,-472882
1783266288887024954,2026-07-05T22:44:48.887+07:00,540127863696134184,-337420,-304496,-361075,-472902
1783266288905206772,2026-07-05T22:44:48.905+07:00,540127863696134184,-337241,-304305,-360934,-472880
1783266288923388590,2026-07-05T22:44:48.923+07:00,540127863696134184,-336964,-303985,-360764,-472844
1783266288941570409,2026-07-05T22:44:48.941+07:00,540127863696134184,-336862,-303822,-360613,-472836
1783266288959752227,2026-07-05T22:44:48.959+07:00,540127863696134184,-336716,-303620,-360438,-472819
1783266288977934045,2026-07-05T22:44:48.977+07:00,540127863696134184,-336557,-303409,-360271,-472852
1783266288996115863,2026-07-05T22:44:48.996+07:00,540127863696134184,-336374,-303182,-360125,-472844
1783266289014297681,2026-07-05T22:44:49.014+07:00,540127863696134184,-336301,-303090,-360017,-472854
1783266289032479500,2026-07-05T22:44:49.032+07:00,540127863696134184,-336386,-303079,-360072,-472835
1783266289050661318,2026-07-05T22:44:49.050+07:00,540127863696134184,-336649,-303387,-360214,-472857
1783266289068843136,2026-07-05T22:44:49.068+07:00,540127863696134184,-336927,-303763,-360485,-472808
1783266289087024954,2026-07-05T22:44:49.087+07:00,540127863696134184,-337473,-304340,-360884,-472864
1783266289105206772,2026-07-05T22:44:49.105+07:00,540127863696134184,-337940,-304861,-361258,-472831
1783266289123388590,2026-07-05T22:44:49.123+07:00,540127863696134184,-338373,-305362,-361645,-472834
1783266289141570409,2026-07-05T22:44:49.141+07:00,540127863696134184,-338776,-305748,-361963,-472843
1783266289201704300,2026-07-05T22:44:49.201+07:00,540127864460253022,-339051,-306178,-362299,-472887
1783266289219886118,2026-07-05T22:44:49.219+07:00,540127864460253022,-339425,-306564,-362521,-472854
1783266289238067936,2026-07-05T22:44:49.238+07:00,540127864460253022,-339605,-306837,-362728,-472881
1783266289256249754,2026-07-05T22:44:49.256+07:00,540127864460253022,-339799,-307140,-362982,-472868
1783266289274431572,2026-07-05T22:44:49.274+07:00,540127864460253022,-339963,-307298,-363097,-472880
1783266289292613390,2026-07-05T22:44:49.292+07:00,540127864460253022,-339991,-307421,-363192,-472844
1783266289310795209,2026-07-05T22:44:49.310+07:00,540127864460253022,-339950,-307470,-363166,-472829
1783266289328977027,2026-07-05T22:44:49.328+07:00,540127864460253022,-339932,-307505,-363189,-472853
1783266289347158845,2026-07-05T22:44:49.347+07:00,540127864460253022,-339890,-307508,-363153,-472863
1783266289365340663,2026-07-05T22:44:49.365+07:00,540127864460253022,-339961,-307637,-363271,-472910
1783266289383522481,2026-07-05T22:44:49.383+07:00,540127864460253022,-340013,-307706,-363346,-472919
1783266289401704300,2026-07-05T22:44:49.401+07:00,540127864460253022,-340019,-307735,-363361,-472901
1783266289419886118,2026-07-05T22:44:49.419+07:00,540127864460253022,-340024,-307750,-363289,-472830
1783266289438067936,2026-07-05T22:44:49.438+07:00,540127864460253022,-340012,-307706,-363268,-472856
1783266289456249754,2026-07-05T22:44:49.456+07:00,540127864460253022,-339942,-307705,-363290,-472832
1783266289474431572,2026-07-05T22:44:49.474+07:00,540127864460253022,-339871,-307624,-363246,-472827
1783266289492613390,2026-07-05T22:44:49.492+07:00,540127864460253022,-339816,-307584,-363223,-472860
1783266289510795209,2026-07-05T22:44:49.510+07:00,540127864460253022,-339739,-307549,-363138,-472832
1783266289528977027,2026-07-05T22:44:49.528+07:00,540127864460253022,-339626,-307419,-363059,-472844
1783266289547158845,2026-07-05T22:44:49.547+07:00,540127864460253022,-339612,-307363,-362977,-472853
1783266289565340663,2026-07-05T22:44:49.565+07:00,540127864460253022,-339446,-307200,-362892,-472901
1783266289583522481,2026-07-05T22:44:49.583+07:00,540127864460253022,-339346,-307115,-362773,-472881
1783266289601704300,2026-07-05T22:44:49.601+07:00,540127864460253022,-339227,-306976,-362643,-472853
1783266289619886118,2026-07-05T22:44:49.619+07:00,540127864460253022,-339075,-306845,-362610,-472848
1783266289638067936,2026-07-05T22:44:49.638+07:00,540127864460253022,-339024,-306660,-362471,-472929
1783266289656249754,2026-07-05T22:44:49.656+07:00,540127864460253022,-338845,-306440,-362332,-472865
1783266289674431572,2026-07-05T22:44:49.674+07:00,540127864460253022,-338716,-306305,-362260,-472903
1783266289692613390,2026-07-05T22:44:49.692+07:00,540127864460253022,-338578,-306169,-362063,-472896
1783266289710795209,2026-07-05T22:44:49.710+07:00,540127864460253022,-338417,-305958,-361884,-472902
1783266289728977027,2026-07-05T22:44:49.728+07:00,540127864460253022,-338226,-305741,-361754,-472877
1783266289747158845,2026-07-05T22:44:49.747+07:00,540127864460253022,-338043,-305637,-361662,-472828
1783266289765340663,2026-07-05T22:44:49.765+07:00,540127864460253022,-337987,-305485,-361510,-472903
1783266289783522481,2026-07-05T22:44:49.783+07:00,540127864460253022,-337828,-305269,-361427,-472864
1783266289801704300,2026-07-05T22:44:49.801+07:00,540127864460253022,-337656,-305064,-361237,-472864
1783266289819886118,2026-07-05T22:44:49.819+07:00,540127864460253022,-337500,-304863,-361065,-472883
1783266289838067936,2026-07-05T22:44:49.838+07:00,540127864460253022,-337298,-304657,-360965,-472933
1783266289856249754,2026-07-05T22:44:49.856+07:00,540127864460253022,-337178,-304437,-360835,-472848
1783266289874431572,2026-07-05T22:44:49.874+07:00,540127864460253022,-336968,-304216,-360670,-472856
1783266289892613390,2026-07-05T22:44:49.892+07:00,540127864460253022,-336930,-304109,-360526,-472886
1783266289910795209,2026-07-05T22:44:49.910+07:00,540127864460253022,-336940,-304057,-360521,-472867
1783266289928977027,2026-07-05T22:44:49.928+07:00,540127864460253022,-337058,-304298,-360655,-472887
1783266289947158845,2026-07-05T22:44:49.947+07:00,540127864460253022,-337454,-304646,-360923,-472849
1783266290023811600,2026-07-05T22:44:50.023+07:00,540127865187969990,-337876,-305182,-361250,-472854
1783266290041993418,2026-07-05T22:44:50.041+07:00,540127865187969990,-338412,-305795,-361691,-472856
1783266290060175236,2026-07-05T22:44:50.060+07:00,540127865187969990,-338873,-306343,-362013,-472882
1783266290078357054,2026-07-05T22:44:50.078+07:00,540127865187969990,-339280,-306829,-362407,-472832
1783266290096538872,2026-07-05T22:44:50.096+07:00,540127865187969990,-339630,-307292,-362778,-472868
1783266290114720690,2026-07-05T22:44:50.114+07:00,540127865187969990,-339980,-307733,-363035,-472877
1783266290132902509,2026-07-05T22:44:50.132+07:00,540127865187969990,-340273,-308091,-363332,-472916
1783266290151084327,2026-07-05T22:44:50.151+07:00,540127865187969990,-340457,-308374,-363537,-472886
1783266290169266145,2026-07-05T22:44:50.169+07:00,540127865187969990,-340649,-308657,-363810,-472944
1783266290187447963,2026-07-05T22:44:50.187+07:00,540127865187969990,-340726,-308702,-363834,-472924
1783266290205629781,2026-07-05T22:44:50.205+07:00,540127865187969990,-340732,-308804,-363868,-472918
1783266290223811600,2026-07-05T22:44:50.223+07:00,540127865187969990,-340753,-308815,-363956,-472909
1783266290241993418,2026-07-05T22:44:50.241+07:00,540127865187969990,-340771,-308895,-363953,-472948
1783266290260175236,2026-07-05T22:44:50.260+07:00,540127865187969990,-340744,-308842,-363963,-472920
1783266290278357054,2026-07-05T22:44:50.278+07:00,540127865187969990,-340770,-308923,-364036,-472849
1783266290296538872,2026-07-05T22:44:50.296+07:00,540127865187969990,-340778,-308942,-364003,-472910
1783266290314720690,2026-07-05T22:44:50.314+07:00,540127865187969990,-340783,-308973,-364020,-472861
1783266290332902509,2026-07-05T22:44:50.332+07:00,540127865187969990,-340732,-308951,-363974,-472870
1783266290351084327,2026-07-05T22:44:50.351+07:00,540127865187969990,-340720,-308964,-364002,-472847
1783266290369266145,2026-07-05T22:44:50.369+07:00,540127865187969990,-340642,-308929,-363938,-472862
1783266290387447963,2026-07-05T22:44:50.387+07:00,540127865187969990,-340533,-308844,-363905,-472843
1783266290405629781,2026-07-05T22:44:50.405+07:00,540127865187969990,-340453,-308714,-363821,-472902
1783266290423811600,2026-07-05T22:44:50.423+07:00,540127865187969990,-340380,-308627,-363747,-472922
1783266290441993418,2026-07-05T22:44:50.441+07:00,540127865187969990,-340238,-308485,-363639,-472911
1783266290460175236,2026-07-05T22:44:50.460+07:00,540127865187969990,-340098,-308391,-363523,-472852
1783266290478357054,2026-07-05T22:44:50.478+07:00,540127865187969990,-339984,-308214,-363442,-472875
1783266290496538872,2026-07-05T22:44:50.496+07:00,540127865187969990,-339846,-308034,-363315,-472833
1783266290514720690,2026-07-05T22:44:50.514+07:00,540127865187969990,-339697,-307893,-363164,-472816
1783266290532902509,2026-07-05T22:44:50.532+07:00,540127865187969990,-339619,-307713,-363075,-472845
1783266290551084327,2026-07-05T22:44:50.551+07:00,540127865187969990,-339418,-307503,-362923,-472858
1783266290569266145,2026-07-05T22:44:50.569+07:00,540127865187969990,-339299,-307310,-362701,-472776
1783266290587447963,2026-07-05T22:44:50.587+07:00,540127865187969990,-339190,-307157,-362695,-472862
1783266290605629781,2026-07-05T22:44:50.605+07:00,540127865187969990,-338950,-306908,-362505,-472858
1783266290623811600,2026-07-05T22:44:50.623+07:00,540127865187969990,-338821,-306778,-362388,-472907
1783266290641993418,2026-07-05T22:44:50.641+07:00,540127865187969990,-338651,-306565,-362243,-472871
1783266290660175236,2026-07-05T22:44:50.660+07:00,540127865187969990,-338485,-306406,-362077,-472860
1783266290678357054,2026-07-05T22:44:50.678+07:00,540127865187969990,-338284,-306244,-361900,-472893
1783266290696538872,2026-07-05T22:44:50.696+07:00,540127865187969990,-338167,-305967,-361766,-472843
1783266290714720690,2026-07-05T22:44:50.714+07:00,540127865187969990,-337980,-305748,-361582,-472834
1783266290732902509,2026-07-05T22:44:50.732+07:00,540127865187969990,-337795,-305520,-361455,-472814
1783266290638732800,2026-07-05T22:44:50.638+07:00,540127865824735695,-337627,-305342,-361277,-472821
1783266290656914618,2026-07-05T22:44:50.656+07:00,540127865824735695,-337501,-305165,-361131,-472895
1783266290675096436,2026-07-05T22:44:50.675+07:00,540127865824735695,-337294,-304875,-360979,-472816
1783266290693278254,2026-07-05T22:44:50.693+07:00,540127865824735695,-337146,-304653,-360785,-472894
1783266290711460072,2026-07-05T22:44:50.711+07:00,540127865824735695,-337000,-304503,-360709,-472845
1783266290729641890,2026-07-05T22:44:50.729+07:00,540127865824735695,-337045,-304521,-360745,-472914
1783266290747823709,2026-07-05T22:44:50.747+07:00,540127865824735695,-337303,-304782,-360885,-472822
1783266290766005527,2026-07-05T22:44:50.766+07:00,540127865824735695,-337770,-305310,-361276,-472873
1783266290784187345,2026-07-05T22:44:50.784+07:00,540127865824735695,-338277,-305849,-361687,-472836
1783266290802369163,2026-07-05T22:44:50.802+07:00,540127865824735695,-338765,-306414,-362096,-472846
1783266290820550981,2026-07-05T22:44:50.820+07:00,540127865824735695,-339263,-306935,-362507,-472939
1783266290838732800,2026-07-05T22:44:50.838+07:00,540127865824735695,-339604,-307414,-362832,-472885
1783266290856914618,2026-07-05T22:44:50.856+07:00,540127865824735695,-339899,-307762,-363116,-472866
1783266290875096436,2026-07-05T22:44:50.875+07:00,540127865824735695,-340136,-308126,-363377,-472824
1783266290893278254,2026-07-05T22:44:50.893+07:00,540127865824735695,-340387,-308415,-363705,-472846
1783266290911460072,2026-07-05T22:44:50.911+07:00,540127865824735695,-340513,-308699,-363809,-472832
1783266290929641890,2026-07-05T22:44:50.929+07:00,540127865824735695,-340601,-308800,-363954,-472823
1783266290947823709,2026-07-05T22:44:50.947+07:00,540127865824735695,-340673,-308946,-364000,-472871
1783266290966005527,2026-07-05T22:44:50.966+07:00,540127865824735695,-340659,-308956,-363978,-472841
1783266290984187345,2026-07-05T22:44:50.984+07:00,540127865824735695,-340683,-308930,-364021,-472884
1783266291002369163,2026-07-05T22:44:51.002+07:00,540127865824735695,-340670,-309009,-364076,-472948
1783266291020550981,2026-07-05T22:44:51.020+07:00,540127865824735695,-340614,-309021,-364055,-472870
1783266291038732800,2026-07-05T22:44:51.038+07:00,540127865824735695,-340624,-308994,-364083,-472903
1783266291056914618,2026-07-05T22:44:51.056+07:00,540127865824735695,-340622,-309019,-364110,-472819
1783266291075096436,2026-07-05T22:44:51.075+07:00,540127865824735695,-340642,-309049,-364158,-472877
1783266291093278254,2026-07-05T22:44:51.093+07:00,540127865824735695,-340537,-309023,-364067,-472795
1783266291111460072,2026-07-05T22:44:51.111+07:00,540127865824735695,-340527,-308998,-364021,-472892
1783266291129641890,2026-07-05T22:44:51.129+07:00,540127865824735695,-340491,-308855,-364021,-472836
1783266291147823709,2026-07-05T22:44:51.147+07:00,540127865824735695,-340442,-308792,-363943,-472828
1783266291166005527,2026-07-05T22:44:51.166+07:00,540127865824735695,-340306,-308705,-363853,-472844
1783266291184187345,2026-07-05T22:44:51.184+07:00,540127865824735695,-340168,-308556,-363747,-472839
1783266291202369163,2026-07-05T22:44:51.202+07:00,540127865824735695,-340101,-308475,-363700,-472879
1783266291220550981,2026-07-05T22:44:51.220+07:00,540127865824735695,-339964,-308249,-363470,-472829
1783266291238732800,2026-07-05T22:44:51.238+07:00,540127865824735695,-339831,-308157,-363408,-472814
1783266291256914618,2026-07-05T22:44:51.256+07:00,540127865824735695,-339689,-307939,-363316,-472831
1783266291465753000,2026-07-05T22:44:51.465+07:00,540127866461608210,-339590,-307848,-363221,-472868
1783266291483934818,2026-07-05T22:44:51.483+07:00,540127866461608210,-339431,-307586,-363044,-472827
1783266291502116636,2026-07-05T22:44:51.502+07:00,540127866461608210,-339282,-307460,-362944,-472877
1783266291520298454,2026-07-05T22:44:51.520+07:00,540127866461608210,-339118,-307244,-362781,-472863
1783266291538480272,2026-07-05T22:44:51.538+07:00,540127866461608210,-339011,-307052,-362650,-472883
1783266291556662090,2026-07-05T22:44:51.556+07:00,540127866461608210,-338842,-306900,-362582,-472828
1783266291574843909,2026-07-05T22:44:51.574+07:00,540127866461608210,-338682,-306686,-362393,-472883
1783266291593025727,2026-07-05T22:44:51.593+07:00,540127866461608210,-338495,-306504,-362230,-472921
1783266291611207545,2026-07-05T22:44:51.611+07:00,540127866461608210,-338319,-306296,-362077,-472879
1783266291629389363,2026-07-05T22:44:51.629+07:00,540127866461608210,-338126,-306053,-361936,-472887
1783266291647571181,2026-07-05T22:44:51.647+07:00,540127866461608210,-337990,-305810,-361804,-472896
1783266291665753000,2026-07-05T22:44:51.665+07:00,540127866461608210,-337823,-305595,-361663,-472858
1783266291683934818,2026-07-05T22:44:51.683+07:00,540127866461608210,-337591,-305389,-361440,-472858
1783266291702116636,2026-07-05T22:44:51.702+07:00,540127866461608210,-337385,-305070,-361231,-472782
1783266291720298454,2026-07-05T22:44:51.720+07:00,540127866461608210,-337229,-304974,-361109,-472847
1783266291738480272,2026-07-05T22:44:51.738+07:00,540127866461608210,-337134,-304765,-360991,-472815
1783266291756662090,2026-07-05T22:44:51.756+07:00,540127866461608210,-337176,-304758,-360996,-472818
1783266291774843909,2026-07-05T22:44:51.774+07:00,540127866461608210,-337443,-305038,-361204,-472882
1783266291793025727,2026-07-05T22:44:51.793+07:00,540127866461608210,-337803,-305468,-361456,-472883
1783266291811207545,2026-07-05T22:44:51.811+07:00,540127866461608210,-338282,-305961,-361890,-472865
1783266291829389363,2026-07-05T22:44:51.829+07:00,540127866461608210,-338755,-306539,-362334,-472879
1783266291847571181,2026-07-05T22:44:51.847+07:00,540127866461608210,-339090,-306991,-362672,-472877
1783266291865753000,2026-07-05T22:44:51.865+07:00,540127866461608210,-339495,-307463,-363020,-472875
1783266291883934818,2026-07-05T22:44:51.883+07:00,540127866461608210,-339802,-307800,-363275,-472834
1783266291902116636,2026-07-05T22:44:51.902+07:00,540127866461608210,-339999,-308141,-363529,-472832
1783266291920298454,2026-07-05T22:44:51.920+07:00,540127866461608210,-340289,-308483,-363801,-472842
1783266291938480272,2026-07-05T22:44:51.938+07:00,540127866461608210,-340393,-308668,-363900,-472787
1783266291956662090,2026-07-05T22:44:51.956+07:00,540127866461608210,-340543,-308798,-364118,-472886
1783266291974843909,2026-07-05T22:44:51.974+07:00,540127866461608210,-340529,-308807,-364152,-472919
1783266291993025727,2026-07-05T22:44:51.993+07:00,540127866461608210,-340544,-308823,-364108,-472859
1783266292011207545,2026-07-05T22:44:52.011+07:00,540127866461608210,-340496,-308821,-364128,-472888
1783266292029389363,2026-07-05T22:44:52.029+07:00,540127866461608210,-340389,-308834,-364110,-472866
1783266292047571181,2026-07-05T22:44:52.047+07:00,540127866461608210,-340481,-308843,-364124,-472875
1783266292065753000,2026-07-05T22:44:52.065+07:00,540127866461608210,-340478,-308829,-364153,-472894
1783266292083934818,2026-07-05T22:44:52.083+07:00,540127866461608210,-340413,-308848,-364150,-472888
1783266291878337200,2026-07-05T22:44:51.878+07:00,540127867171235625,-340439,-308892,-364137,-472876
1783266291896519018,2026-07-05T22:44:51.896+07:00,540127867171235625,-340375,-308863,-364107,-472836
1783266291914700836,2026-07-05T22:44:51.914+07:00,540127867171235625,-340333,-308798,-364042,-472845
1783266291932882654,2026-07-05T22:44:51.932+07:00,540127867171235625,-340233,-308701,-364029,-472836
1783266291951064472,2026-07-05T22:44:51.951+07:00,540127867171235625,-340272,-308624,-363994,-472856
1783266291969246290,2026-07-05T22:44:51.969+07:00,540127867171235625,-340067,-308485,-363858,-472819
1783266291987428109,2026-07-05T22:44:51.987+07:00,540127867171235625,-339988,-308290,-363735,-472865
1783266292005609927,2026-07-05T22:44:52.005+07:00,540127867171235625,-339871,-308202,-363657,-472878
1783266292023791745,2026-07-05T22:44:52.023+07:00,540127867171235625,-339816,-308162,-363646,-472895
1783266292041973563,2026-07-05T22:44:52.041+07:00,540127867171235625,-339601,-307940,-363497,-472863
1783266292060155381,2026-07-05T22:44:52.060+07:00,540127867171235625,-339551,-307805,-363389,-472904
1783266292078337200,2026-07-05T22:44:52.078+07:00,540127867171235625,-339371,-307580,-363216,-472828
1783266292096519018,2026-07-05T22:44:52.096+07:00,540127867171235625,-339296,-307452,-363154,-472919
1783266292114700836,2026-07-05T22:44:52.114+07:00,540127867171235625,-339104,-307253,-363002,-472871
1783266292132882654,2026-07-05T22:44:52.132+07:00,540127867171235625,-338953,-307034,-362796,-472871
1783266292151064472,2026-07-05T22:44:52.151+07:00,540127867171235625,-338859,-306833,-362753,-472825
1783266292169246290,2026-07-05T22:44:52.169+07:00,540127867171235625,-338651,-306668,-362547,-472849
1783266292187428109,2026-07-05T22:44:52.187+07:00,540127867171235625,-338518,-306463,-362430,-472891
1783266292205609927,2026-07-05T22:44:52.205+07:00,540127867171235625,-338423,-306292,-362339,-472876
1783266292223791745,2026-07-05T22:44:52.223+07:00,540127867171235625,-338277,-306111,-362212,-472814
1783266292241973563,2026-07-05T22:44:52.241+07:00,540127867171235625,-338085,-305946,-362045,-472890
1783266292260155381,2026-07-05T22:44:52.260+07:00,540127867171235625,-337910,-305650,-361868,-472847
1783266292278337200,2026-07-05T22:44:52.278+07:00,540127867171235625,-337784,-305463,-361653,-472851
1783266292296519018,2026-07-05T22:44:52.296+07:00,540127867171235625,-337609,-305207,-361555,-472858
1783266292314700836,2026-07-05T22:44:52.314+07:00,540127867171235625,-337369,-304972,-361311,-472839
1783266292332882654,2026-07-05T22:44:52.332+07:00,540127867171235625,-337309,-304850,-361251,-472891
1783266292351064472,2026-07-05T22:44:52.351+07:00,540127867171235625,-337223,-304761,-361125,-472890
1783266292369246290,2026-07-05T22:44:52.369+07:00,540127867171235625,-337324,-304801,-361195,-472875
1783266292387428109,2026-07-05T22:44:52.387+07:00,540127867171235625,-337610,-305097,-361438,-472864
1783266292405609927,2026-07-05T22:44:52.405+07:00,540127867171235625,-338048,-305562,-361768,-472854
1783266292423791745,2026-07-05T22:44:52.423+07:00,540127867171235625,-338549,-306197,-362212,-472897
1783266292441973563,2026-07-05T22:44:52.441+07:00,540127867171235625,-339051,-306754,-362675,-472873
1783266292460155381,2026-07-05T22:44:52.460+07:00,540127867171235625,-339377,-307135,-362953,-472784
1783266292478337200,2026-07-05T22:44:52.478+07:00,540127867171235625,-339736,-307571,-363311,-472821
1783266292496519018,2026-07-05T22:44:52.496+07:00,540127867171235625,-340099,-308007,-363635,-472836
1783266292514700836,2026-07-05T22:44:52.514+07:00,540127867171235625,-340333,-308295,-363874,-472809
1783266292532882654,2026-07-05T22:44:52.532+07:00,540127867171235625,-340573,-308587,-364113,-472844
1783266292551064472,2026-07-05T22:44:52.551+07:00,540127867171235625,-340751,-308805,-364257,-472884
1783266292569246290,2026-07-05T22:44:52.569+07:00,540127867171235625,-340860,-308937,-364356,-472885
1783266292508842400,2026-07-05T22:44:52.508+07:00,540127867880893568,-340801,-309000,-364402,-472874
1783266292527024218,2026-07-05T22:44:52.527+07:00,540127867880893568,-340832,-308970,-364461,-472905
1783266292545206036,2026-07-05T22:44:52.545+07:00,540127867880893568,-340708,-308900,-364406,-472911
1783266292563387854,2026-07-05T22:44:52.563+07:00,540127867880893568,-340752,-308937,-364404,-472896
1783266292581569672,2026-07-05T22:44:52.581+07:00,540127867880893568,-340753,-309026,-364485,-472897
1783266292599751490,2026-07-05T22:44:52.599+07:00,540127867880893568,-340745,-309006,-364447,-472899
1783266292617933309,2026-07-05T22:44:52.617+07:00,540127867880893568,-340737,-308972,-364465,-472818
1783266292636115127,2026-07-05T22:44:52.636+07:00,540127867880893568,-340743,-309017,-364485,-472849
1783266292654296945,2026-07-05T22:44:52.654+07:00,540127867880893568,-340658,-308960,-364473,-472888
1783266292672478763,2026-07-05T22:44:52.672+07:00,540127867880893568,-340652,-308962,-364445,-472947
1783266292690660581,2026-07-05T22:44:52.690+07:00,540127867880893568,-340562,-308823,-364329,-472878
1783266292708842400,2026-07-05T22:44:52.708+07:00,540127867880893568,-340462,-308673,-364240,-472880
1783266292727024218,2026-07-05T22:44:52.727+07:00,540127867880893568,-340391,-308613,-364152,-472875
1783266292745206036,2026-07-05T22:44:52.745+07:00,540127867880893568,-340237,-308501,-364070,-472886
1783266292763387854,2026-07-05T22:44:52.763+07:00,540127867880893568,-340129,-308285,-363971,-472863
1783266292781569672,2026-07-05T22:44:52.781+07:00,540127867880893568,-340007,-308128,-363845,-472844
1783266292799751490,2026-07-05T22:44:52.799+07:00,540127867880893568,-339854,-307953,-363671,-472865
1783266292817933309,2026-07-05T22:44:52.817+07:00,540127867880893568,-339752,-307808,-363641,-472942
1783266292836115127,2026-07-05T22:44:52.836+07:00,540127867880893568,-339612,-307623,-363483,-472865
1783266292854296945,2026-07-05T22:44:52.854+07:00,540127867880893568,-339473,-307429,-363326,-472854
1783266292872478763,2026-07-05T22:44:52.872+07:00,540127867880893568,-339307,-307290,-363198,-472873
1783266292890660581,2026-07-05T22:44:52.890+07:00,540127867880893568,-339211,-307143,-363084,-472914
1783266292908842400,2026-07-05T22:44:52.908+07:00,540127867880893568,-339007,-306861,-362939,-472914
1783266292927024218,2026-07-05T22:44:52.927+07:00,540127867880893568,-338825,-306677,-362734,-472914
1783266292945206036,2026-07-05T22:44:52.945+07:00,540127867880893568,-338725,-306482,-362643,-472895
1783266292963387854,2026-07-05T22:44:52.963+07:00,540127867880893568,-338526,-306220,-362404,-472910
1783266292981569672,2026-07-05T22:44:52.981+07:00,540127867880893568,-338366,-306067,-362284,-472892
1783266292999751490,2026-07-05T22:44:52.999+07:00,540127867880893568,-338254,-305836,-362123,-472861
1783266293017933309,2026-07-05T22:44:53.017+07:00,540127867880893568,-338035,-305632,-362020,-472836
1783266293036115127,2026-07-05T22:44:53.036+07:00,540127867880893568,-337798,-305449,-361800,-472878
1783266293054296945,2026-07-05T22:44:53.054+07:00,540127867880893568,-337650,-305186,-361683,-472878
1783266293072478763,2026-07-05T22:44:53.072+07:00,540127867880893568,-337535,-304947,-361503,-472845
1783266293090660581,2026-07-05T22:44:53.090+07:00,540127867880893568,-337381,-304736,-361372,-472873
1783266293108842400,2026-07-05T22:44:53.108+07:00,540127867880893568,-337269,-304610,-361234,-472829
1783266293127024218,2026-07-05T22:44:53.127+07:00,540127867880893568,-337381,-304680,-361322,-472858
1783266293145206036,2026-07-05T22:44:53.145+07:00,540127867880893568,-337572,-304919,-361492,-472845
1783266293163387854,2026-07-05T22:44:53.163+07:00,540127867880893568,-337969,-305297,-361824,-472850
1783266293181569672,2026-07-05T22:44:53.181+07:00,540127867880893568,-338486,-305849,-362242,-472870
1783266293199751490,2026-07-05T22:44:53.199+07:00,540127867880893568,-338907,-306395,-362632,-472863
1783266293559794600,2026-07-05T22:44:53.559+07:00,540127868645110074,-339357,-306831,-362939,-472865
1783266293577976418,2026-07-05T22:44:53.577+07:00,540127868645110074,-339655,-307241,-363232,-472834
1783266293596158236,2026-07-05T22:44:53.596+07:00,540127868645110074,-339975,-307680,-363585,-472834
1783266293614340054,2026-07-05T22:44:53.614+07:00,540127868645110074,-340261,-307993,-363765,-472878
1783266293632521872,2026-07-05T22:44:53.632+07:00,540127868645110074,-340490,-308275,-364002,-472886
1783266293650703690,2026-07-05T22:44:53.650+07:00,540127868645110074,-340692,-308496,-364197,-472909
1783266293668885509,2026-07-05T22:44:53.668+07:00,540127868645110074,-340767,-308617,-364319,-472854
1783266293687067327,2026-07-05T22:44:53.687+07:00,540127868645110074,-340782,-308648,-364360,-472868
1783266293705249145,2026-07-05T22:44:53.705+07:00,540127868645110074,-340711,-308654,-364400,-472823
1783266293723430963,2026-07-05T22:44:53.723+07:00,540127868645110074,-340744,-308669,-364377,-472882
1783266293741612781,2026-07-05T22:44:53.741+07:00,540127868645110074,-340733,-308643,-364368,-472853
1783266293759794600,2026-07-05T22:44:53.759+07:00,540127868645110074,-340704,-308612,-364325,-472834
1783266293777976418,2026-07-05T22:44:53.777+07:00,540127868645110074,-340655,-308641,-364387,-472865
1783266293796158236,2026-07-05T22:44:53.796+07:00,540127868645110074,-340591,-308651,-364375,-472870
1783266293814340054,2026-07-05T22:44:53.814+07:00,540127868645110074,-340638,-308674,-364362,-472932
1783266293832521872,2026-07-05T22:44:53.832+07:00,540127868645110074,-340597,-308599,-364330,-472866
1783266293850703690,2026-07-05T22:44:53.850+07:00,540127868645110074,-340549,-308521,-364297,-472830
1783266293868885509,2026-07-05T22:44:53.868+07:00,540127868645110074,-340476,-308414,-364181,-472799
1783266293887067327,2026-07-05T22:44:53.887+07:00,540127868645110074,-340409,-308385,-364140,-472866
1783266293905249145,2026-07-05T22:44:53.905+07:00,540127868645110074,-340291,-308251,-364037,-472911
1783266293923430963,2026-07-05T22:44:53.923+07:00,540127868645110074,-340216,-308161,-363994,-472901
1783266293941612781,2026-07-05T22:44:53.941+07:00,540127868645110074,-340071,-307984,-363818,-472829
1783266293959794600,2026-07-05T22:44:53.959+07:00,540127868645110074,-339961,-307852,-363705,-472845
1783266293977976418,2026-07-05T22:44:53.977+07:00,540127868645110074,-339847,-307685,-363612,-472853
1783266293996158236,2026-07-05T22:44:53.996+07:00,540127868645110074,-339698,-307555,-363534,-472910
1783266294014340054,2026-07-05T22:44:54.014+07:00,540127868645110074,-339618,-307364,-363435,-472953
1783266294032521872,2026-07-05T22:44:54.032+07:00,540127868645110074,-339387,-307179,-363303,-472857
1783266294050703690,2026-07-05T22:44:54.050+07:00,540127868645110074,-339223,-306991,-363093,-472830
1783266294068885509,2026-07-05T22:44:54.068+07:00,540127868645110074,-339109,-306788,-362964,-472898
1783266294087067327,2026-07-05T22:44:54.087+07:00,540127868645110074,-338891,-306476,-362789,-472861
1783266294105249145,2026-07-05T22:44:54.105+07:00,540127868645110074,-338804,-306385,-362659,-472908
1783266294123430963,2026-07-05T22:44:54.123+07:00,540127868645110074,-338616,-306157,-362518,-472883
1783266294141612781,2026-07-05T22:44:54.141+07:00,540127868645110074,-338483,-305963,-362380,-472854
1783266294159794600,2026-07-05T22:44:54.159+07:00,540127868645110074,-338292,-305685,-362225,-472831
1783266294177976418,2026-07-05T22:44:54.177+07:00,540127868645110074,-338179,-305577,-362054,-472892
1783266294196158236,2026-07-05T22:44:54.196+07:00,540127868645110074,-337962,-305350,-361910,-472892
1783266294214340054,2026-07-05T22:44:54.214+07:00,540127868645110074,-337784,-305108,-361697,-472915
1783266294232521872,2026-07-05T22:44:54.232+07:00,540127868645110074,-337620,-304862,-361562,-472911
1783266294250703690,2026-07-05T22:44:54.250+07:00,540127868645110074,-337500,-304701,-361405,-472952
1783266294268885509,2026-07-05T22:44:54.268+07:00,540127868645110074,-337355,-304480,-361315,-472928
1783266294287067327,2026-07-05T22:44:54.287+07:00,540127868645110074,-337360,-304430,-361297,-472920
1783266294305249145,2026-07-05T22:44:54.305+07:00,540127868645110074,-337613,-304713,-361458,-472913
1783266294379053600,2026-07-05T22:44:54.379+07:00,540127869372964374,-337973,-305120,-361765,-472941
1783266294397235418,2026-07-05T22:44:54.397+07:00,540127869372964374,-338400,-305543,-362028,-472926
1783266294415417236,2026-07-05T22:44:54.415+07:00,540127869372964374,-338785,-306022,-362416,-472926
1783266294433599054,2026-07-05T22:44:54.433+07:00,540127869372964374,-339127,-306402,-362762,-472882
1783266294451780872,2026-07-05T22:44:54.451+07:00,540127869372964374,-339522,-306884,-363076,-472863
1783266294469962690,2026-07-05T22:44:54.469+07:00,540127869372964374,-339813,-307252,-363344,-472888
1783266294488144509,2026-07-05T22:44:54.488+07:00,540127869372964374,-340048,-307564,-363594,-472916
1783266294506326327,2026-07-05T22:44:54.506+07:00,540127869372964374,-340206,-307713,-363758,-472865
1783266294524508145,2026-07-05T22:44:54.524+07:00,540127869372964374,-340322,-307961,-363934,-472882
1783266294542689963,2026-07-05T22:44:54.542+07:00,540127869372964374,-340394,-307983,-364022,-472847
1783266294560871781,2026-07-05T22:44:54.560+07:00,540127869372964374,-340376,-308018,-364015,-472869
1783266294579053600,2026-07-05T22:44:54.579+07:00,540127869372964374,-340316,-307988,-363958,-472857
1783266294597235418,2026-07-05T22:44:54.597+07:00,540127869372964374,-340260,-307940,-363987,-472881
1783266294615417236,2026-07-05T22:44:54.615+07:00,540127869372964374,-340249,-307912,-363905,-472861
1783266294633599054,2026-07-05T22:44:54.633+07:00,540127869372964374,-340203,-307892,-363916,-472811
1783266294651780872,2026-07-05T22:44:54.651+07:00,540127869372964374,-340237,-307900,-363920,-472944
1783266294669962690,2026-07-05T22:44:54.669+07:00,540127869372964374,-340167,-307909,-363830,-472886
1783266294688144509,2026-07-05T22:44:54.688+07:00,540127869372964374,-340153,-307845,-363883,-472918
1783266294706326327,2026-07-05T22:44:54.706+07:00,540127869372964374,-340081,-307774,-363832,-472960
1783266294724508145,2026-07-05T22:44:54.724+07:00,540127869372964374,-339995,-307675,-363752,-472913
1783266294742689963,2026-07-05T22:44:54.742+07:00,540127869372964374,-339883,-307552,-363666,-472892
1783266294760871781,2026-07-05T22:44:54.760+07:00,540127869372964374,-339812,-307480,-363601,-472949
1783266294779053600,2026-07-05T22:44:54.779+07:00,540127869372964374,-339701,-307418,-363489,-472865
1783266294797235418,2026-07-05T22:44:54.797+07:00,540127869372964374,-339577,-307203,-363350,-472870
1783266294815417236,2026-07-05T22:44:54.815+07:00,540127869372964374,-339406,-306969,-363236,-472818
1783266294833599054,2026-07-05T22:44:54.833+07:00,540127869372964374,-339212,-306789,-363060,-472873
1783266294851780872,2026-07-05T22:44:54.851+07:00,540127869372964374,-339108,-306687,-362969,-472842
1783266294869962690,2026-07-05T22:44:54.869+07:00,540127869372964374,-338953,-306532,-362837,-472853
1783266294888144509,2026-07-05T22:44:54.888+07:00,540127869372964374,-338757,-306262,-362639,-472857
1783266294906326327,2026-07-05T22:44:54.906+07:00,540127869372964374,-338577,-306019,-362529,-472924
1783266294924508145,2026-07-05T22:44:54.924+07:00,540127869372964374,-338466,-305811,-362362,-472846
1783266294942689963,2026-07-05T22:44:54.942+07:00,540127869372964374,-338324,-305655,-362241,-472875
1783266294960871781,2026-07-05T22:44:54.960+07:00,540127869372964374,-338193,-305448,-362108,-472853
1783266294979053600,2026-07-05T22:44:54.979+07:00,540127869372964374,-338045,-305309,-361984,-472847
1783266294997235418,2026-07-05T22:44:54.997+07:00,540127869372964374,-337863,-305080,-361831,-472884
1783266295015417236,2026-07-05T22:44:55.015+07:00,540127869372964374,-337684,-304871,-361652,-472873
1783266295033599054,2026-07-05T22:44:55.033+07:00,540127869372964374,-337557,-304653,-361470,-472905
1783266295051780872,2026-07-05T22:44:55.051+07:00,540127869372964374,-337338,-304453,-361331,-472930
1783266295069962690,2026-07-05T22:44:55.069+07:00,540127869372964374,-337188,-304217,-361174,-472897
1783266295088144509,2026-07-05T22:44:55.088+07:00,540127869372964374,-336978,-303958,-361014,-472853
1783266294778843800,2026-07-05T22:44:54.778+07:00,540127870046229593,-336800,-303756,-360801,-472866
1783266294797025618,2026-07-05T22:44:54.797+07:00,540127870046229593,-336677,-303534,-360649,-472857
1783266294815207436,2026-07-05T22:44:54.815+07:00,540127870046229593,-336443,-303309,-360475,-472862
1783266294833389254,2026-07-05T22:44:54.833+07:00,540127870046229593,-336451,-303286,-360491,-472915
1783266294851571072,2026-07-05T22:44:54.851+07:00,540127870046229593,-336579,-303377,-360624,-472921
1783266294869752890,2026-07-05T22:44:54.869+07:00,540127870046229593,-336887,-303676,-360816,-472817
1783266294887934709,2026-07-05T22:44:54.887+07:00,540127870046229593,-337302,-304049,-361108,-472863
1783266294906116527,2026-07-05T22:44:54.906+07:00,540127870046229593,-337759,-304585,-361515,-472898
1783266294924298345,2026-07-05T22:44:54.924+07:00,540127870046229593,-338123,-305018,-361869,-472827
1783266294942480163,2026-07-05T22:44:54.942+07:00,540127870046229593,-338525,-305400,-362171,-472890
1783266294960661981,2026-07-05T22:44:54.960+07:00,540127870046229593,-338731,-305778,-362361,-472858
1783266294978843800,2026-07-05T22:44:54.978+07:00,540127870046229593,-339074,-306093,-362645,-472899
1783266294997025618,2026-07-05T22:44:54.997+07:00,540127870046229593,-339225,-306362,-362807,-472886
1783266295015207436,2026-07-05T22:44:55.015+07:00,540127870046229593,-339422,-306571,-362988,-472880
1783266295033389254,2026-07-05T22:44:55.033+07:00,540127870046229593,-339587,-306789,-363082,-472891
1783266295051571072,2026-07-05T22:44:55.051+07:00,540127870046229593,-339557,-306795,-363149,-472854
1783266295069752890,2026-07-05T22:44:55.069+07:00,540127870046229593,-339570,-306848,-363238,-472890
1783266295087934709,2026-07-05T22:44:55.087+07:00,540127870046229593,-339522,-306815,-363180,-472868
1783266295106116527,2026-07-05T22:44:55.106+07:00,540127870046229593,-339514,-306806,-363145,-472903
1783266295124298345,2026-07-05T22:44:55.124+07:00,540127870046229593,-339478,-306795,-363153,-472922
1783266295142480163,2026-07-05T22:44:55.142+07:00,540127870046229593,-339452,-306812,-363209,-472871
1783266295160661981,2026-07-05T22:44:55.160+07:00,540127870046229593,-339431,-306769,-363146,-472910
1783266295178843800,2026-07-05T22:44:55.178+07:00,540127870046229593,-339400,-306714,-363086,-472930
1783266295197025618,2026-07-05T22:44:55.197+07:00,540127870046229593,-339345,-306699,-363122,-472919
1783266295215207436,2026-07-05T22:44:55.215+07:00,540127870046229593,-339324,-306708,-363095,-472928
1783266295233389254,2026-07-05T22:44:55.233+07:00,540127870046229593,-339226,-306658,-363032,-472938
1783266295251571072,2026-07-05T22:44:55.251+07:00,540127870046229593,-339099,-306502,-362908,-472947
1783266295269752890,2026-07-05T22:44:55.269+07:00,540127870046229593,-339054,-306398,-362877,-472936
1783266295287934709,2026-07-05T22:44:55.287+07:00,540127870046229593,-338906,-306217,-362721,-472896
1783266295306116527,2026-07-05T22:44:55.306+07:00,540127870046229593,-338792,-306083,-362599,-472899
1783266295324298345,2026-07-05T22:44:55.324+07:00,540127870046229593,-338618,-305894,-362461,-472898
1783266295342480163,2026-07-05T22:44:55.342+07:00,540127870046229593,-338509,-305783,-362353,-472954
1783266295360661981,2026-07-05T22:44:55.360+07:00,540127870046229593,-338328,-305525,-362177,-472905
1783266295378843800,2026-07-05T22:44:55.378+07:00,540127870046229593,-338263,-305342,-362104,-472969
1783266295397025618,2026-07-05T22:44:55.397+07:00,540127870046229593,-338039,-305175,-361936,-472899
1783266295415207436,2026-07-05T22:44:55.415+07:00,540127870046229593,-337892,-304964,-361786,-472875
1783266295433389254,2026-07-05T22:44:55.433+07:00,540127870046229593,-337735,-304775,-361632,-472885
1783266295811303000,2026-07-05T22:44:55.811+07:00,540127870828611938,-337530,-304531,-361439,-472850
1783266295829484818,2026-07-05T22:44:55.829+07:00,540127870828611938,-337394,-304376,-361311,-472866
1783266295847666636,2026-07-05T22:44:55.847+07:00,540127870828611938,-337170,-304133,-361093,-472859
1783266295865848454,2026-07-05T22:44:55.865+07:00,540127870828611938,-337018,-303922,-361030,-472900
1783266295884030272,2026-07-05T22:44:55.884+07:00,540127870828611938,-336880,-303692,-360891,-472896
1783266295902212090,2026-07-05T22:44:55.902+07:00,540127870828611938,-336690,-303451,-360695,-472898
1783266295920393909,2026-07-05T22:44:55.920+07:00,540127870828611938,-336574,-303238,-360562,-472918
1783266295938575727,2026-07-05T22:44:55.938+07:00,540127870828611938,-336362,-303056,-360422,-472914
1783266295956757545,2026-07-05T22:44:55.956+07:00,540127870828611938,-336153,-302797,-360236,-472902
1783266295974939363,2026-07-05T22:44:55.974+07:00,540127870828611938,-335989,-302542,-360045,-472879
1783266295993121181,2026-07-05T22:44:55.993+07:00,540127870828611938,-335786,-302293,-359853,-472927
1783266296011303000,2026-07-05T22:44:56.011+07:00,540127870828611938,-335605,-302051,-359631,-472894
1783266296029484818,2026-07-05T22:44:56.029+07:00,540127870828611938,-335546,-301942,-359574,-472888
1783266296047666636,2026-07-05T22:44:56.047+07:00,540127870828611938,-335593,-302043,-359655,-472916
1783266296065848454,2026-07-05T22:44:56.065+07:00,540127870828611938,-335812,-302304,-359836,-472914
1783266296084030272,2026-07-05T22:44:56.084+07:00,540127870828611938,-336206,-302621,-360047,-472862
1783266296102212090,2026-07-05T22:44:56.102+07:00,540127870828611938,-336600,-303094,-360410,-472863
1783266296120393909,2026-07-05T22:44:56.120+07:00,540127870828611938,-337047,-303590,-360773,-472853
1783266296138575727,2026-07-05T22:44:56.138+07:00,540127870828611938,-337424,-303968,-361057,-472886
1783266296156757545,2026-07-05T22:44:56.156+07:00,540127870828611938,-337666,-304371,-361308,-472839
1783266296174939363,2026-07-05T22:44:56.174+07:00,540127870828611938,-337897,-304582,-361510,-472839
1783266296193121181,2026-07-05T22:44:56.193+07:00,540127870828611938,-338113,-304903,-361699,-472852
1783266296211303000,2026-07-05T22:44:56.211+07:00,540127870828611938,-338339,-305137,-361958,-472866
1783266296229484818,2026-07-05T22:44:56.229+07:00,540127870828611938,-338449,-305255,-362043,-472867
1783266296247666636,2026-07-05T22:44:56.247+07:00,540127870828611938,-338462,-305306,-362054,-472880
1783266296265848454,2026-07-05T22:44:56.265+07:00,540127870828611938,-338449,-305336,-362035,-472878
1783266296284030272,2026-07-05T22:44:56.284+07:00,540127870828611938,-338517,-305350,-362104,-472890
1783266296302212090,2026-07-05T22:44:56.302+07:00,540127870828611938,-338462,-305380,-362082,-472913
1783266296320393909,2026-07-05T22:44:56.320+07:00,540127870828611938,-338404,-305344,-362052,-472893
1783266296338575727,2026-07-05T22:44:56.338+07:00,540127870828611938,-338389,-305400,-362037,-472930
1783266296356757545,2026-07-05T22:44:56.356+07:00,540127870828611938,-338376,-305344,-362002,-472888
1783266296374939363,2026-07-05T22:44:56.374+07:00,540127870828611938,-338373,-305304,-362022,-472929
1783266296393121181,2026-07-05T22:44:56.393+07:00,540127870828611938,-338369,-305305,-361987,-472950
1783266296411303000,2026-07-05T22:44:56.411+07:00,540127870828611938,-338288,-305285,-361912,-472935
1783266296429484818,2026-07-05T22:44:56.429+07:00,540127870828611938,-338196,-305183,-361891,-472904
1783266296447666636,2026-07-05T22:44:56.447+07:00,540127870828611938,-338085,-305044,-361811,-472866
1783266296465848454,2026-07-05T22:44:56.465+07:00,540127870828611938,-338050,-304954,-361723,-472892
1783266296484030272,2026-07-05T22:44:56.484+07:00,540127870828611938,-337933,-304822,-361578,-472890
1783266296502212090,2026-07-05T22:44:56.502+07:00,540127870828611938,-337841,-304773,-361549,-472874
1783266296520393909,2026-07-05T22:44:56.520+07:00,540127870828611938,-337738,-304620,-361482,-472873
1783266296538575727,2026-07-05T22:44:56.538+07:00,540127870828611938,-337550,-304364,-361267,-472839
1783266296556757545,2026-07-05T22:44:56.556+07:00,540127870828611938,-337416,-304266,-361170,-472877
1783266296574939363,2026-07-05T22:44:56.574+07:00,540127870828611938,-337299,-304064,-361013,-472821
1783266296482105000,2026-07-05T22:44:56.482+07:00,540127871592764346,-337224,-303867,-360885,-472934
1783266296500286818,2026-07-05T22:44:56.500+07:00,540127871592764346,-336980,-303696,-360693,-472819
1783266296518468636,2026-07-05T22:44:56.518+07:00,540127871592764346,-336913,-303527,-360561,-472869
1783266296536650454,2026-07-05T22:44:56.536+07:00,540127871592764346,-336739,-303311,-360489,-472840
1783266296554832272,2026-07-05T22:44:56.554+07:00,540127871592764346,-336590,-303147,-360317,-472905
1783266296573014090,2026-07-05T22:44:56.573+07:00,540127871592764346,-336442,-302938,-360165,-472860
1783266296591195909,2026-07-05T22:44:56.591+07:00,540127871592764346,-336331,-302735,-360061,-472862
1783266296609377727,2026-07-05T22:44:56.609+07:00,540127871592764346,-336174,-302547,-359944,-472929
1783266296627559545,2026-07-05T22:44:56.627+07:00,540127871592764346,-335972,-302347,-359771,-472891
1783266296645741363,2026-07-05T22:44:56.645+07:00,540127871592764346,-335852,-302132,-359616,-472878
1783266296663923181,2026-07-05T22:44:56.663+07:00,540127871592764346,-335718,-301954,-359513,-472903
1783266296682105000,2026-07-05T22:44:56.682+07:00,540127871592764346,-335560,-301780,-359306,-472882
1783266296700286818,2026-07-05T22:44:56.700+07:00,540127871592764346,-335421,-301515,-359137,-472912
1783266296718468636,2026-07-05T22:44:56.718+07:00,540127871592764346,-335235,-301349,-358983,-472908
1783266296736650454,2026-07-05T22:44:56.736+07:00,540127871592764346,-335088,-301080,-358827,-472869
1783266296754832272,2026-07-05T22:44:56.754+07:00,540127871592764346,-335035,-301061,-358844,-472856
1783266296773014090,2026-07-05T22:44:56.773+07:00,540127871592764346,-335147,-301131,-358864,-472834
1783266296791195909,2026-07-05T22:44:56.791+07:00,540127871592764346,-335407,-301446,-359088,-472821
1783266296809377727,2026-07-05T22:44:56.809+07:00,540127871592764346,-335835,-301887,-359432,-472844
1783266296827559545,2026-07-05T22:44:56.827+07:00,540127871592764346,-336282,-302396,-359740,-472856
1783266296845741363,2026-07-05T22:44:56.845+07:00,540127871592764346,-336672,-302804,-360034,-472925
1783266296863923181,2026-07-05T22:44:56.863+07:00,540127871592764346,-336963,-303145,-360333,-472917
1783266296882105000,2026-07-05T22:44:56.882+07:00,540127871592764346,-337234,-303459,-360577,-472879
1783266296900286818,2026-07-05T22:44:56.900+07:00,540127871592764346,-337407,-303693,-360700,-472864
1783266296918468636,2026-07-05T22:44:56.918+07:00,540127871592764346,-337579,-303916,-360870,-472854
1783266296936650454,2026-07-05T22:44:56.936+07:00,540127871592764346,-337717,-304144,-361057,-472910
1783266296954832272,2026-07-05T22:44:56.954+07:00,540127871592764346,-337792,-304149,-361071,-472916
1783266296973014090,2026-07-05T22:44:56.973+07:00,540127871592764346,-337791,-304256,-361165,-472888
1783266296991195909,2026-07-05T22:44:56.991+07:00,540127871592764346,-337661,-304269,-361144,-472841
1783266297009377727,2026-07-05T22:44:57.009+07:00,540127871592764346,-337677,-304212,-361155,-472881
1783266297027559545,2026-07-05T22:44:57.027+07:00,540127871592764346,-337676,-304242,-361125,-472869
1783266297045741363,2026-07-05T22:44:57.045+07:00,540127871592764346,-337662,-304191,-361046,-472870
1783266297063923181,2026-07-05T22:44:57.063+07:00,540127871592764346,-337648,-304169,-361057,-472875
1783266297082105000,2026-07-05T22:44:57.082+07:00,540127871592764346,-337731,-304191,-361125,-472877
1783266297100286818,2026-07-05T22:44:57.100+07:00,540127871592764346,-337719,-304258,-361087,-472914
1783266297118468636,2026-07-05T22:44:57.118+07:00,540127871592764346,-337581,-304151,-361011,-472891
1783266297136650454,2026-07-05T22:44:57.136+07:00,540127871592764346,-337452,-304101,-360951,-472861
1783266297154832272,2026-07-05T22:44:57.154+07:00,540127871592764346,-337392,-303958,-360863,-472909
1783266297173014090,2026-07-05T22:44:57.173+07:00,540127871592764346,-337245,-303876,-360818,-472836
1783266297191195909,2026-07-05T22:44:57.191+07:00,540127871592764346,-337153,-303809,-360697,-472846
1783266297209377727,2026-07-05T22:44:57.209+07:00,540127871592764346,-337079,-303652,-360613,-472886
1783266297227559545,2026-07-05T22:44:57.227+07:00,540127871592764346,-336949,-303496,-360502,-472902
1783266297323896700,2026-07-05T22:44:57.323+07:00,540127872356916754,-336862,-303332,-360419,-472885
1783266297342078518,2026-07-05T22:44:57.342+07:00,540127872356916754,-336768,-303197,-360261,-472879
1783266297360260336,2026-07-05T22:44:57.360+07:00,540127872356916754,-336578,-303052,-360139,-472846
1783266297378442154,2026-07-05T22:44:57.378+07:00,540127872356916754,-336434,-302879,-360061,-472792
1783266297396623972,2026-07-05T22:44:57.396+07:00,540127872356916754,-336301,-302731,-359912,-472856
1783266297414805790,2026-07-05T22:44:57.414+07:00,540127872356916754,-336228,-302529,-359794,-472854
1783266297432987609,2026-07-05T22:44:57.432+07:00,540127872356916754,-336048,-302361,-359688,-472947
1783266297451169427,2026-07-05T22:44:57.451+07:00,540127872356916754,-335903,-302179,-359514,-472870
1783266297469351245,2026-07-05T22:44:57.469+07:00,540127872356916754,-335817,-301987,-359356,-472858
1783266297487533063,2026-07-05T22:44:57.487+07:00,540127872356916754,-335624,-301781,-359205,-472857
1783266297505714881,2026-07-05T22:44:57.505+07:00,540127872356916754,-335447,-301575,-359086,-472853
1783266297523896700,2026-07-05T22:44:57.523+07:00,540127872356916754,-335317,-301334,-358942,-472892
1783266297542078518,2026-07-05T22:44:57.542+07:00,540127872356916754,-335122,-301141,-358755,-472878
1783266297560260336,2026-07-05T22:44:57.560+07:00,540127872356916754,-334911,-300909,-358576,-472907
1783266297578442154,2026-07-05T22:44:57.578+07:00,540127872356916754,-334719,-300693,-358394,-472828
1783266297596623972,2026-07-05T22:44:57.596+07:00,540127872356916754,-334568,-300429,-358252,-472886
1783266297614805790,2026-07-05T22:44:57.614+07:00,540127872356916754,-334432,-300203,-358116,-472901
1783266297632987609,2026-07-05T22:44:57.632+07:00,540127872356916754,-334348,-300095,-357979,-472807
1783266297651169427,2026-07-05T22:44:57.651+07:00,540127872356916754,-334464,-300138,-358047,-472857
1783266297669351245,2026-07-05T22:44:57.669+07:00,540127872356916754,-334673,-300347,-358166,-472795
1783266297687533063,2026-07-05T22:44:57.687+07:00,540127872356916754,-335055,-300733,-358402,-472809
1783266297705714881,2026-07-05T22:44:57.705+07:00,540127872356916754,-335392,-301181,-358754,-472864
1783266297723896700,2026-07-05T22:44:57.723+07:00,540127872356916754,-335750,-301599,-359063,-472881
1783266297742078518,2026-07-05T22:44:57.742+07:00,540127872356916754,-336123,-302011,-359347,-472830
1783266297760260336,2026-07-05T22:44:57.760+07:00,540127872356916754,-336330,-302340,-359566,-472860
1783266297778442154,2026-07-05T22:44:57.778+07:00,540127872356916754,-336633,-302583,-359753,-472869
1783266297796623972,2026-07-05T22:44:57.796+07:00,540127872356916754,-336838,-302857,-359988,-472875
1783266297814805790,2026-07-05T22:44:57.814+07:00,540127872356916754,-337047,-303123,-360199,-472896
1783266297832987609,2026-07-05T22:44:57.832+07:00,540127872356916754,-337195,-303277,-360281,-472897
1783266297851169427,2026-07-05T22:44:57.851+07:00,540127872356916754,-337237,-303301,-360366,-472893
1783266297869351245,2026-07-05T22:44:57.869+07:00,540127872356916754,-337216,-303363,-360300,-472832
1783266297887533063,2026-07-05T22:44:57.887+07:00,540127872356916754,-337163,-303362,-360313,-472864
1783266297905714881,2026-07-05T22:44:57.905+07:00,540127872356916754,-337108,-303347,-360321,-472895
1783266297923896700,2026-07-05T22:44:57.923+07:00,540127872356916754,-337102,-303295,-360266,-472814
1783266297942078518,2026-07-05T22:44:57.942+07:00,540127872356916754,-337104,-303317,-360326,-472843
1783266297960260336,2026-07-05T22:44:57.960+07:00,540127872356916754,-337130,-303348,-360348,-472911
1783266297978442154,2026-07-05T22:44:57.978+07:00,540127872356916754,-337145,-303389,-360358,-472909
1783266297996623972,2026-07-05T22:44:57.996+07:00,540127872356916754,-337109,-303313,-360268,-472892
1783266298014805790,2026-07-05T22:44:58.014+07:00,540127872356916754,-337000,-303278,-360262,-472844
1783266298032987609,2026-07-05T22:44:58.032+07:00,540127872356916754,-337015,-303222,-360216,-472859
1783266298051169427,2026-07-05T22:44:58.051+07:00,540127872356916754,-336906,-303104,-360153,-472800
1783266298069351245,2026-07-05T22:44:58.069+07:00,540127872356916754,-336806,-303021,-360063,-472824
1783266297948746900,2026-07-05T22:44:57.948+07:00,540127873139263993,-336758,-302975,-360050,-472866
1783266297966928718,2026-07-05T22:44:57.966+07:00,540127873139263993,-336600,-302843,-359904,-472857
1783266297985110536,2026-07-05T22:44:57.985+07:00,540127873139263993,-336519,-302702,-359804,-472904
1783266298003292354,2026-07-05T22:44:58.003+07:00,540127873139263993,-336397,-302521,-359688,-472857
1783266298021474172,2026-07-05T22:44:58.021+07:00,540127873139263993,-336266,-302410,-359600,-472877
1783266298039655990,2026-07-05T22:44:58.039+07:00,540127873139263993,-336178,-302244,-359442,-472850
1783266298057837809,2026-07-05T22:44:58.057+07:00,540127873139263993,-335949,-302055,-359332,-472826
1783266298076019627,2026-07-05T22:44:58.076+07:00,540127873139263993,-335856,-301934,-359221,-472888
1783266298094201445,2026-07-05T22:44:58.094+07:00,540127873139263993,-335658,-301681,-359024,-472796
1783266298112383263,2026-07-05T22:44:58.112+07:00,540127873139263993,-335591,-301525,-358954,-472888
1783266298130565081,2026-07-05T22:44:58.130+07:00,540127873139263993,-335401,-301353,-358751,-472943
1783266298148746900,2026-07-05T22:44:58.148+07:00,540127873139263993,-335208,-301124,-358625,-472875
1783266298166928718,2026-07-05T22:44:58.166+07:00,540127873139263993,-335079,-300960,-358501,-472874
1783266298185110536,2026-07-05T22:44:58.185+07:00,540127873139263993,-334880,-300775,-358392,-472870
1783266298203292354,2026-07-05T22:44:58.203+07:00,540127873139263993,-334703,-300537,-358218,-472826
1783266298221474172,2026-07-05T22:44:58.221+07:00,540127873139263993,-334620,-300381,-358106,-472861
1783266298239655990,2026-07-05T22:44:58.239+07:00,540127873139263993,-334421,-300128,-357959,-472888
1783266298257837809,2026-07-05T22:44:58.257+07:00,540127873139263993,-334175,-299915,-357779,-472884
1783266298276019627,2026-07-05T22:44:58.276+07:00,540127873139263993,-333962,-299654,-357533,-472843
1783266298294201445,2026-07-05T22:44:58.294+07:00,540127873139263993,-333852,-299411,-357411,-472819
1783266298312383263,2026-07-05T22:44:58.312+07:00,540127873139263993,-333684,-299230,-357269,-472878
1783266298330565081,2026-07-05T22:44:58.330+07:00,540127873139263993,-333648,-299170,-357252,-472894
1783266298348746900,2026-07-05T22:44:58.348+07:00,540127873139263993,-333750,-299275,-357300,-472884
1783266298366928718,2026-07-05T22:44:58.366+07:00,540127873139263993,-333973,-299563,-357496,-472891
1783266298385110536,2026-07-05T22:44:58.385+07:00,540127873139263993,-334395,-299927,-357791,-472859
1783266298403292354,2026-07-05T22:44:58.403+07:00,540127873139263993,-334800,-300407,-358135,-472862
1783266298421474172,2026-07-05T22:44:58.421+07:00,540127873139263993,-335207,-300888,-358529,-472866
1783266298439655990,2026-07-05T22:44:58.439+07:00,540127873139263993,-335509,-301270,-358838,-472899
1783266298457837809,2026-07-05T22:44:58.457+07:00,540127873139263993,-335824,-301597,-359059,-472873
1783266298476019627,2026-07-05T22:44:58.476+07:00,540127873139263993,-336020,-301943,-359257,-472866
1783266298494201445,2026-07-05T22:44:58.494+07:00,540127873139263993,-336242,-302124,-359430,-472839
1783266298512383263,2026-07-05T22:44:58.512+07:00,540127873139263993,-336408,-302376,-359587,-472811
1783266298530565081,2026-07-05T22:44:58.530+07:00,540127873139263993,-336486,-302488,-359755,-472868
1783266298548746900,2026-07-05T22:44:58.548+07:00,540127873139263993,-336476,-302584,-359808,-472888
1783266298566928718,2026-07-05T22:44:58.566+07:00,540127873139263993,-336499,-302553,-359777,-472880
1783266298585110536,2026-07-05T22:44:58.585+07:00,540127873139263993,-336516,-302540,-359790,-472880
1783266298603292354,2026-07-05T22:44:58.603+07:00,540127873139263993,-336479,-302517,-359720,-472873
1783266298621474172,2026-07-05T22:44:58.621+07:00,540127873139263993,-336438,-302522,-359710,-472878
1783266298639655990,2026-07-05T22:44:58.639+07:00,540127873139263993,-336449,-302567,-359760,-472896
1783266298657837809,2026-07-05T22:44:58.657+07:00,540127873139263993,-336388,-302568,-359768,-472879
1783266298676019627,2026-07-05T22:44:58.676+07:00,540127873139263993,-336439,-302596,-359825,-472862
1783266298694201445,2026-07-05T22:44:58.694+07:00,540127873139263993,-336438,-302591,-359772,-472846
1783266298712383263,2026-07-05T22:44:58.712+07:00,540127873139263993,-336339,-302578,-359718,-472869
1783266298782562700,2026-07-05T22:44:58.782+07:00,540127873848822752,-336289,-302464,-359693,-472817
1783266298800744518,2026-07-05T22:44:58.800+07:00,540127873848822752,-336200,-302399,-359585,-472857
1783266298818926336,2026-07-05T22:44:58.818+07:00,540127873848822752,-336138,-302299,-359549,-472886
1783266298837108154,2026-07-05T22:44:58.837+07:00,540127873848822752,-336068,-302273,-359559,-472911
1783266298855289972,2026-07-05T22:44:58.855+07:00,540127873848822752,-335891,-302063,-359373,-472897
1783266298873471790,2026-07-05T22:44:58.873+07:00,540127873848822752,-335875,-302010,-359283,-472885
1783266298891653609,2026-07-05T22:44:58.891+07:00,540127873848822752,-335772,-301784,-359187,-472880
1783266298909835427,2026-07-05T22:44:58.909+07:00,540127873848822752,-335681,-301629,-359030,-472878
1783266298928017245,2026-07-05T22:44:58.928+07:00,540127873848822752,-335517,-301463,-358941,-472854
1783266298946199063,2026-07-05T22:44:58.946+07:00,540127873848822752,-335370,-301322,-358868,-472830
1783266298964380881,2026-07-05T22:44:58.964+07:00,540127873848822752,-335300,-301187,-358780,-472909
1783266298982562700,2026-07-05T22:44:58.982+07:00,540127873848822752,-335244,-301049,-358662,-472873
1783266299000744518,2026-07-05T22:44:59.000+07:00,540127873848822752,-335070,-300795,-358523,-472877
1783266299018926336,2026-07-05T22:44:59.018+07:00,540127873848822752,-334952,-300678,-358355,-472852
1783266299037108154,2026-07-05T22:44:59.037+07:00,540127873848822752,-334844,-300562,-358252,-472969
1783266299055289972,2026-07-05T22:44:59.055+07:00,540127873848822752,-334661,-300354,-358088,-472883
1783266299073471790,2026-07-05T22:44:59.073+07:00,540127873848822752,-334479,-300122,-357938,-472878
1783266299091653609,2026-07-05T22:44:59.091+07:00,540127873848822752,-334408,-300035,-357856,-472902
1783266299109835427,2026-07-05T22:44:59.109+07:00,540127873848822752,-334245,-299864,-357703,-472858
1783266299128017245,2026-07-05T22:44:59.128+07:00,540127873848822752,-334073,-299657,-357583,-472933
1783266299146199063,2026-07-05T22:44:59.146+07:00,540127873848822752,-333888,-299438,-357413,-472861
1783266299164380881,2026-07-05T22:44:59.164+07:00,540127873848822752,-333750,-299232,-357233,-472900
1783266299182562700,2026-07-05T22:44:59.182+07:00,540127873848822752,-333619,-299057,-357081,-472928
1783266299200744518,2026-07-05T22:44:59.200+07:00,540127873848822752,-333560,-298975,-357091,-472854
1783266299218926336,2026-07-05T22:44:59.218+07:00,540127873848822752,-333704,-299110,-357230,-472845
1783266299237108154,2026-07-05T22:44:59.237+07:00,540127873848822752,-333965,-299375,-357385,-472845
1783266299255289972,2026-07-05T22:44:59.255+07:00,540127873848822752,-334359,-299765,-357714,-472817
1783266299273471790,2026-07-05T22:44:59.273+07:00,540127873848822752,-334738,-300243,-358011,-472801
1783266299291653609,2026-07-05T22:44:59.291+07:00,540127873848822752,-335133,-300755,-358393,-472825
1783266299309835427,2026-07-05T22:44:59.309+07:00,540127873848822752,-335452,-301169,-358702,-472856
1783266299328017245,2026-07-05T22:44:59.328+07:00,540127873848822752,-335731,-301575,-359001,-472870
1783266299346199063,2026-07-05T22:44:59.346+07:00,540127873848822752,-335926,-301897,-359311,-472902
1783266299364380881,2026-07-05T22:44:59.364+07:00,540127873848822752,-336127,-302113,-359430,-472834
1783266299382562700,2026-07-05T22:44:59.382+07:00,540127873848822752,-336319,-302354,-359579,-472848
1783266299400744518,2026-07-05T22:44:59.400+07:00,540127873848822752,-336408,-302507,-359790,-472884
1783266299418926336,2026-07-05T22:44:59.418+07:00,540127873848822752,-336427,-302512,-359757,-472870
1783266299437108154,2026-07-05T22:44:59.437+07:00,540127873848822752,-336430,-302611,-359786,-472896
1783266299455289972,2026-07-05T22:44:59.455+07:00,540127873848822752,-336418,-302572,-359879,-472846
1783266299473471790,2026-07-05T22:44:59.473+07:00,540127873848822752,-336330,-302579,-359846,-472800
1783266299409233500,2026-07-05T22:44:59.409+07:00,540127874612972108,-336379,-302575,-359826,-472824
1783266299427415318,2026-07-05T22:44:59.427+07:00,540127874612972108,-336384,-302634,-359889,-472867
1783266299445597136,2026-07-05T22:44:59.445+07:00,540127874612972108,-336318,-302659,-359853,-472873
1783266299463778954,2026-07-05T22:44:59.463+07:00,540127874612972108,-336275,-302646,-359851,-472831
1783266299481960772,2026-07-05T22:44:59.481+07:00,540127874612972108,-336230,-302628,-359834,-472859
1783266299500142590,2026-07-05T22:44:59.500+07:00,540127874612972108,-336159,-302494,-359870,-472842
1783266299518324409,2026-07-05T22:44:59.518+07:00,540127874612972108,-336109,-302407,-359768,-472891
1783266299536506227,2026-07-05T22:44:59.536+07:00,540127874612972108,-336072,-302322,-359755,-472880
1783266299554688045,2026-07-05T22:44:59.554+07:00,540127874612972108,-335977,-302275,-359688,-472879
1783266299572869863,2026-07-05T22:44:59.572+07:00,540127874612972108,-335872,-302153,-359578,-472894
1783266299591051681,2026-07-05T22:44:59.591+07:00,540127874612972108,-335722,-302032,-359493,-472879
1783266299609233500,2026-07-05T22:44:59.609+07:00,540127874612972108,-335697,-301865,-359376,-472935
1783266299627415318,2026-07-05T22:44:59.627+07:00,540127874612972108,-335586,-301744,-359302,-472932
1783266299645597136,2026-07-05T22:44:59.645+07:00,540127874612972108,-335483,-301591,-359115,-472852
1783266299663778954,2026-07-05T22:44:59.663+07:00,540127874612972108,-335313,-301383,-359040,-472794
1783266299681960772,2026-07-05T22:44:59.681+07:00,540127874612972108,-335207,-301237,-358867,-472880
1783266299700142590,2026-07-05T22:44:59.700+07:00,540127874612972108,-335042,-301061,-358742,-472922
1783266299718324409,2026-07-05T22:44:59.718+07:00,540127874612972108,-334858,-300849,-358600,-472882
1783266299736506227,2026-07-05T22:44:59.736+07:00,540127874612972108,-334685,-300756,-358497,-472887
1783266299754688045,2026-07-05T22:44:59.754+07:00,540127874612972108,-334622,-300571,-358394,-472919
1783266299772869863,2026-07-05T22:44:59.772+07:00,540127874612972108,-334420,-300389,-358224,-472882
1783266299791051681,2026-07-05T22:44:59.791+07:00,540127874612972108,-334253,-300116,-358066,-472862
1783266299809233500,2026-07-05T22:44:59.809+07:00,540127874612972108,-334097,-299987,-357941,-472842
1783266299827415318,2026-07-05T22:44:59.827+07:00,540127874612972108,-333958,-299783,-357788,-472894
1783266299845597136,2026-07-05T22:44:59.845+07:00,540127874612972108,-333799,-299562,-357692,-472833
1783266299863778954,2026-07-05T22:44:59.863+07:00,540127874612972108,-333647,-299375,-357501,-472908
1783266299881960772,2026-07-05T22:44:59.881+07:00,540127874612972108,-333511,-299149,-357389,-472842
1783266299900142590,2026-07-05T22:44:59.900+07:00,540127874612972108,-333370,-299049,-357209,-472854
1783266299918324409,2026-07-05T22:44:59.918+07:00,540127874612972108,-333389,-298930,-357275,-472852
1783266299936506227,2026-07-05T22:44:59.936+07:00,540127874612972108,-333566,-299144,-357440,-472916
1783266299954688045,2026-07-05T22:44:59.954+07:00,540127874612972108,-333882,-299478,-357599,-472926
1783266299972869863,2026-07-05T22:44:59.972+07:00,540127874612972108,-334254,-299911,-357953,-472907
1783266299991051681,2026-07-05T22:44:59.991+07:00,540127874612972108,-334630,-300375,-358267,-472869
1783266300009233500,2026-07-05T22:45:00.009+07:00,540127874612972108,-335061,-300798,-358603,-472886
1783266300027415318,2026-07-05T22:45:00.027+07:00,540127874612972108,-335378,-301307,-358984,-472920
1783266300045597136,2026-07-05T22:45:00.045+07:00,540127874612972108,-335708,-301648,-359196,-472915
1783266300063778954,2026-07-05T22:45:00.063+07:00,540127874612972108,-335923,-301966,-359411,-472862
1783266300081960772,2026-07-05T22:45:00.081+07:00,540127874612972108,-336206,-302248,-359656,-472878
1783266300100142590,2026-07-05T22:45:00.100+07:00,540127874612972108,-336353,-302427,-359839,-472883
1783266300118324409,2026-07-05T22:45:00.118+07:00,540127874612972108,-336480,-302694,-360008,-472882
1783266300136506227,2026-07-05T22:45:00.136+07:00,540127874612972108,-336500,-302743,-360104,-472866
