host_timestamp_ns,host_timestamp_iso,pmd_timestamp,ppg0,ppg1,ppg2,ambient
1783770797165230886,2026-07-11T18:53:17.165+07:00,837085999407802168,404787,368709,267103,1301
1783770797183412704,2026-07-11T18:53:17.183+07:00,837085999407802168,404394,368375,266812,1308
1783770797201594522,2026-07-11T18:53:17.201+07:00,837085999407802168,404048,368170,266665,1353
1783770797219776340,2026-07-11T18:53:17.219+07:00,837085999407802168,403571,367814,266451,1300
1783770797237958158,2026-07-11T18:53:17.237+07:00,837085999407802168,403258,367617,266268,1315
1783770797256139976,2026-07-11T18:53:17.256+07:00,837085999407802168,402989,367421,266202,1323
1783770797274321794,2026-07-11T18:53:17.274+07:00,837085999407802168,402849,367351,266140,1345
1783770797292503612,2026-07-11T18:53:17.292+07:00,837085999407802168,402746,367239,266047,1331
1783770797310685430,2026-07-11T18:53:17.310+07:00,837085999407802168,402751,367189,266042,1317
1783770797328867248,2026-07-11T18:53:17.328+07:00,837085999407802168,402734,367163,266070,1348
1783770797347049066,2026-07-11T18:53:17.347+07:00,837085999407802168,402714,367137,266095,1289
1783770797365230884,2026-07-11T18:53:17.365+07:00,837085999407802168,402822,367215,266138,1349
1783770797383412702,2026-07-11T18:53:17.383+07:00,837085999407802168,402973,367328,266231,1355
1783770797401594520,2026-07-11T18:53:17.401+07:00,837085999407802168,403103,367421,266304,1330
1783770797419776338,2026-07-11T18:53:17.419+07:00,837085999407802168,403383,367547,266406,1299
1783770797437958156,2026-07-11T18:53:17.437+07:00,837085999407802168,403486,367681,266476,1358
1783770797456139974,2026-07-11T18:53:17.456+07:00,837085999407802168,403690,367769,266561,1332
1783770797474321792,2026-07-11T18:53:17.474+07:00,837085999407802168,403799,367834,266608,1264
1783770797492503610,2026-07-11T18:53:17.492+07:00,837085999407802168,403969,368001,266711,1349
1783770797510685428,2026-07-11T18:53:17.510+07:00,837085999407802168,404100,368096,266783,1324
1783770797528867246,2026-07-11T18:53:17.528+07:00,837085999407802168,404230,368220,266841,1304
1783770797547049064,2026-07-11T18:53:17.547+07:00,837085999407802168,404421,368303,266871,1330
1783770797565230882,2026-07-11T18:53:17.565+07:00,837085999407802168,404714,368468,266980,1352
1783770797583412700,2026-07-11T18:53:17.583+07:00,837085999407802168,404786,368622,267081,1326
1783770797601594518,2026-07-11T18:53:17.601+07:00,837085999407802168,404908,368637,267085,1341
1783770797619776336,2026-07-11T18:53:17.619+07:00,837085999407802168,405115,368796,267185,1330
1783770797637958154,2026-07-11T18:53:17.637+07:00,837085999407802168,405214,368818,267219,1274
1783770797656139972,2026-07-11T18:53:17.656+07:00,837085999407802168,405162,368723,267099,1320
1783770797674321790,2026-07-11T18:53:17.674+07:00,837085999407802168,404864,368519,266910,1293
1783770797692503608,2026-07-11T18:53:17.692+07:00,837085999407802168,404582,368317,266780,1292
1783770797710685426,2026-07-11T18:53:17.710+07:00,837085999407802168,404167,367966,266490,1280
1783770797728867244,2026-07-11T18:53:17.728+07:00,837085999407802168,403810,367711,266345,1279
1783770797747049062,2026-07-11T18:53:17.747+07:00,837085999407802168,403456,367500,266238,1296
1783770797765230880,2026-07-11T18:53:17.765+07:00,837085999407802168,403313,367372,266091,1256
1783770797783412698,2026-07-11T18:53:17.783+07:00,837085999407802168,403124,367239,266043,1237
1783770797801594516,2026-07-11T18:53:17.801+07:00,837085999407802168,403091,367197,266055,1301
1783770797819776334,2026-07-11T18:53:17.819+07:00,837085999407802168,403182,367273,266136,1291
1783770797837958152,2026-07-11T18:53:17.837+07:00,837085999407802168,403269,367357,266198,1318
1783770797856139970,2026-07-11T18:53:17.856+07:00,837085999407802168,403480,367480,266273,1296
1783770797874321788,2026-07-11T18:53:17.874+07:00,837085999407802168,403617,367601,266381,1306
1783770797892503606,2026-07-11T18:53:17.892+07:00,837085999407802168,403872,367765,266487,1277
1783770797910685424,2026-07-11T18:53:17.910+07:00,837085999407802168,404089,368006,266630,1320
1783770797928867242,2026-07-11T18:53:17.928+07:00,837086000172177358,404188,368089,266690,1274
1783770797947049060,2026-07-11T18:53:17.947+07:00,837086000172177358,404490,368254,266778,1311
1783770797965230878,2026-07-11T18:53:17.965+07:00,837086000172177358,404622,368358,266904,1262
1783770797983412696,2026-07-11T18:53:17.983+07:00,837086000172177358,404830,368482,266981,1310
1783770798001594514,2026-07-11T18:53:18.001+07:00,837086000172177358,405034,368616,267056,1333
1783770798019776332,2026-07-11T18:53:18.019+07:00,837086000172177358,405168,368779,267104,1310
1783770798037958150,2026-07-11T18:53:18.037+07:00,837086000172177358,405266,368853,267098,1263
1783770798056139968,2026-07-11T18:53:18.056+07:00,837086000172177358,405462,368934,267165,1262
1783770798074321786,2026-07-11T18:53:18.074+07:00,837086000172177358,405682,369092,267313,1339
1783770798092503604,2026-07-11T18:53:18.092+07:00,837086000172177358,405868,369230,267420,1337
1783770798110685422,2026-07-11T18:53:18.110+07:00,837086000172177358,406011,369395,267515,1313
1783770798128867240,2026-07-11T18:53:18.128+07:00,837086000172177358,406190,369543,267660,1298
1783770798147049058,2026-07-11T18:53:18.147+07:00,837086000172177358,406356,369600,267700,1296
1783770798165230876,2026-07-11T18:53:18.165+07:00,837086000172177358,406317,369518,267644,1250
1783770798183412694,2026-07-11T18:53:18.183+07:00,837086000172177358,406126,369381,267471,1299
1783770798201594512,2026-07-11T18:53:18.201+07:00,837086000172177358,405788,369164,267272,1296
1783770798219776330,2026-07-11T18:53:18.219+07:00,837086000172177358,405414,368898,267013,1314
1783770798237958148,2026-07-11T18:53:18.237+07:00,837086000172177358,405067,368584,266859,1368
1783770798256139966,2026-07-11T18:53:18.256+07:00,837086000172177358,404729,368362,266757,1294
1783770798274321784,2026-07-11T18:53:18.274+07:00,837086000172177358,404544,368161,266638,1325
1783770798292503602,2026-07-11T18:53:18.292+07:00,837086000172177358,404426,368050,266563,1296
1783770798310685420,2026-07-11T18:53:18.310+07:00,837086000172177358,404314,368039,266502,1275
1783770798328867238,2026-07-11T18:53:18.328+07:00,837086000172177358,404354,367944,266521,1315
1783770798347049056,2026-07-11T18:53:18.347+07:00,837086000172177358,404398,368035,266628,1383
1783770798365230874,2026-07-11T18:53:18.365+07:00,837086000172177358,404442,368033,266580,1288
1783770798383412692,2026-07-11T18:53:18.383+07:00,837086000172177358,404604,368137,266703,1288
1783770798401594510,2026-07-11T18:53:18.401+07:00,837086000172177358,404819,368240,266802,1356
1783770798419776328,2026-07-11T18:53:18.419+07:00,837086000172177358,405034,368356,266835,1302
1783770798437958146,2026-07-11T18:53:18.437+07:00,837086000172177358,405245,368450,266919,1332
1783770798456139964,2026-07-11T18:53:18.456+07:00,837086000172177358,405348,368594,267030,1347
1783770798474321782,2026-07-11T18:53:18.474+07:00,837086000172177358,405498,368656,267080,1302
1783770798492503600,2026-07-11T18:53:18.492+07:00,837086000172177358,405656,368785,267130,1314
1783770798510685418,2026-07-11T18:53:18.510+07:00,837086000172177358,405801,368854,267219,1269
1783770798528867236,2026-07-11T18:53:18.528+07:00,837086000172177358,405938,368963,267254,1293
1783770798547049054,2026-07-11T18:53:18.547+07:00,837086000172177358,406128,369089,267296,1289
1783770798565230872,2026-07-11T18:53:18.565+07:00,837086000172177358,406258,369189,267426,1330
1783770798583412690,2026-07-11T18:53:18.583+07:00,837086000172177358,406493,369331,267549,1368
1783770798601594508,2026-07-11T18:53:18.601+07:00,837086000172177358,406596,369425,267554,1299
1783770798619776326,2026-07-11T18:53:18.619+07:00,837086000172177358,406821,369516,267706,1322
1783770798637958144,2026-07-11T18:53:18.637+07:00,837086000172177358,406984,369581,267783,1287
1783770798656139962,2026-07-11T18:53:18.656+07:00,837086000172177358,407165,369706,267818,1335
1783770798674321780,2026-07-11T18:53:18.674+07:00,837086000172177358,407054,369733,267759,1270
1783770798692503598,2026-07-11T18:53:18.692+07:00,837086000936561704,406857,369533,267634,1249
1783770798710685416,2026-07-11T18:53:18.710+07:00,837086000936561704,406644,369390,267492,1280
1783770798728867234,2026-07-11T18:53:18.728+07:00,837086000936561704,406348,369177,267320,1294
1783770798747049052,2026-07-11T18:53:18.747+07:00,837086000936561704,406100,368994,267224,1290
1783770798765230870,2026-07-11T18:53:18.765+07:00,837086000936561704,405941,368750,267195,1317
1783770798783412688,2026-07-11T18:53:18.783+07:00,837086000936561704,405795,368615,267098,1341
1783770798801594506,2026-07-11T18:53:18.801+07:00,837086000936561704,405696,368558,267070,1306
1783770798819776324,2026-07-11T18:53:18.819+07:00,837086000936561704,405685,368557,267075,1323
1783770798837958142,2026-07-11T18:53:18.837+07:00,837086000936561704,405732,368529,267085,1317
1783770798856139960,2026-07-11T18:53:18.856+07:00,837086000936561704,405859,368681,267133,1332
1783770798874321778,2026-07-11T18:53:18.874+07:00,837086000936561704,406034,368778,267201,1338
1783770798892503596,2026-07-11T18:53:18.892+07:00,837086000936561704,406162,368861,267279,1331
1783770798910685414,2026-07-11T18:53:18.910+07:00,837086000936561704,406297,368962,267369,1296
1783770798928867232,2026-07-11T18:53:18.928+07:00,837086000936561704,406532,369027,267478,1274
1783770798947049050,2026-07-11T18:53:18.947+07:00,837086000936561704,406619,369135,267509,1301
1783770798965230868,2026-07-11T18:53:18.965+07:00,837086000936561704,406861,369273,267668,1316
1783770798983412686,2026-07-11T18:53:18.983+07:00,837086000936561704,406988,369349,267721,1297
1783770799001594504,2026-07-11T18:53:19.001+07:00,837086000936561704,407207,369481,267785,1306
1783770799019776322,2026-07-11T18:53:19.019+07:00,837086000936561704,407285,369574,267861,1225
1783770799037958140,2026-07-11T18:53:19.037+07:00,837086000936561704,407511,369735,267963,1332
1783770799056139958,2026-07-11T18:53:19.056+07:00,837086000936561704,407664,369873,268028,1301
1783770799074321776,2026-07-11T18:53:19.074+07:00,837086000936561704,407803,369881,268091,1284
1783770799092503594,2026-07-11T18:53:19.092+07:00,837086000936561704,408040,370063,268198,1335
1783770799110685412,2026-07-11T18:53:19.110+07:00,837086000936561704,408154,370141,268254,1220
1783770799128867230,2026-07-11T18:53:19.128+07:00,837086000936561704,408375,370349,268349,1293
1783770799147049048,2026-07-11T18:53:19.147+07:00,837086000936561704,408449,370318,268387,1246
1783770799165230866,2026-07-11T18:53:19.165+07:00,837086000936561704,408418,370286,268349,1293
1783770799183412684,2026-07-11T18:53:19.183+07:00,837086000936561704,408286,370222,268258,1317
1783770799201594502,2026-07-11T18:53:19.201+07:00,837086000936561704,408091,370053,268080,1334
1783770799219776320,2026-07-11T18:53:19.219+07:00,837086000936561704,407840,369910,267962,1319
1783770799237958138,2026-07-11T18:53:19.237+07:00,837086000936561704,407613,369738,267859,1340
1783770799256139956,2026-07-11T18:53:19.256+07:00,837086000936561704,407512,369638,267830,1393
1783770799274321774,2026-07-11T18:53:19.274+07:00,837086000936561704,407443,369599,267787,1331
1783770799292503592,2026-07-11T18:53:19.292+07:00,837086000936561704,407475,369533,267782,1337
1783770799310685410,2026-07-11T18:53:19.310+07:00,837086000936561704,407486,369541,267770,1314
1783770799328867228,2026-07-11T18:53:19.328+07:00,837086000936561704,407616,369656,267884,1302
1783770799347049046,2026-07-11T18:53:19.347+07:00,837086000936561704,407751,369755,267952,1311
1783770799365230864,2026-07-11T18:53:19.365+07:00,837086000936561704,407955,369917,268079,1252
1783770799383412682,2026-07-11T18:53:19.383+07:00,837086000936561704,408167,370063,268173,1332
1783770799401594500,2026-07-11T18:53:19.401+07:00,837086000936561704,408415,370208,268278,1293
1783770799419776318,2026-07-11T18:53:19.419+07:00,837086000936561704,408604,370356,268397,1303
1783770799437958136,2026-07-11T18:53:19.437+07:00,837086000936561704,408806,370498,268495,1294
1783770799456139954,2026-07-11T18:53:19.456+07:00,837086001700958256,408902,370607,268565,1276
1783770799474321772,2026-07-11T18:53:19.474+07:00,837086001700958256,409031,370734,268595,1281
1783770799492503590,2026-07-11T18:53:19.492+07:00,837086001700958256,409313,370883,268703,1335
1783770799510685408,2026-07-11T18:53:19.510+07:00,837086001700958256,409462,370989,268803,1359
1783770799528867226,2026-07-11T18:53:19.528+07:00,837086001700958256,409640,371160,268923,1288
1783770799547049044,2026-07-11T18:53:19.547+07:00,837086001700958256,409756,371298,268971,1327
1783770799565230862,2026-07-11T18:53:19.565+07:00,837086001700958256,409881,371421,269030,1282
1783770799583412680,2026-07-11T18:53:19.583+07:00,837086001700958256,410131,371505,269171,1279
1783770799601594498,2026-07-11T18:53:19.601+07:00,837086001700958256,410275,371741,269254,1267
1783770799619776316,2026-07-11T18:53:19.619+07:00,837086001700958256,410450,371834,269284,1298
1783770799637958134,2026-07-11T18:53:19.637+07:00,837086001700958256,410493,371878,269238,1302
1783770799656139952,2026-07-11T18:53:19.656+07:00,837086001700958256,410361,371788,269178,1299
1783770799674321770,2026-07-11T18:53:19.674+07:00,837086001700958256,410093,371641,269060,1313
1783770799692503588,2026-07-11T18:53:19.692+07:00,837086001700958256,409831,371457,268906,1325
1783770799710685406,2026-07-11T18:53:19.710+07:00,837086001700958256,409637,371265,268783,1281
1783770799728867224,2026-07-11T18:53:19.728+07:00,837086001700958256,409375,371150,268698,1304
1783770799747049042,2026-07-11T18:53:19.747+07:00,837086001700958256,409184,371011,268616,1353
1783770799765230860,2026-07-11T18:53:19.765+07:00,837086001700958256,409130,370948,268706,1291
1783770799783412678,2026-07-11T18:53:19.783+07:00,837086001700958256,409113,370929,268652,1360
1783770799801594496,2026-07-11T18:53:19.801+07:00,837086001700958256,409205,370952,268713,1320
1783770799819776314,2026-07-11T18:53:19.819+07:00,837086001700958256,409248,370992,268721,1259
1783770799837958132,2026-07-11T18:53:19.837+07:00,837086001700958256,409352,371096,268834,1289
1783770799856139950,2026-07-11T18:53:19.856+07:00,837086001700958256,409520,371151,268895,1264
1783770799874321768,2026-07-11T18:53:19.874+07:00,837086001700958256,409709,371325,269021,1337
1783770799892503586,2026-07-11T18:53:19.892+07:00,837086001700958256,409904,371379,269019,1270
1783770799910685404,2026-07-11T18:53:19.910+07:00,837086001700958256,410051,371567,269100,1308
1783770799928867222,2026-07-11T18:53:19.928+07:00,837086001700958256,410229,371622,269235,1262
1783770799947049040,2026-07-11T18:53:19.947+07:00,837086001700958256,410339,371751,269293,1269
1783770799965230858,2026-07-11T18:53:19.965+07:00,837086001700958256,410425,371844,269373,1287
1783770799983412676,2026-07-11T18:53:19.983+07:00,837086001700958256,410548,371943,269456,1302
1783770800001594494,2026-07-11T18:53:20.001+07:00,837086001700958256,410737,372117,269511,1297
1783770800019776312,2026-07-11T18:53:20.019+07:00,837086001700958256,410941,372219,269632,1314
1783770800037958130,2026-07-11T18:53:20.037+07:00,837086001700958256,411029,372291,269666,1337
1783770800056139948,2026-07-11T18:53:20.056+07:00,837086001700958256,411145,372416,269734,1300
1783770800074321766,2026-07-11T18:53:20.074+07:00,837086001700958256,411315,372538,269861,1341
1783770800092503584,2026-07-11T18:53:20.092+07:00,837086001700958256,411393,372505,269866,1303
1783770800110685402,2026-07-11T18:53:20.110+07:00,837086001700958256,411304,372483,269773,1300
1783770800128867220,2026-07-11T18:53:20.128+07:00,837086001700958256,411091,372328,269613,1306
1783770800147049038,2026-07-11T18:53:20.147+07:00,837086001700958256,410741,372007,269387,1317
1783770800165230856,2026-07-11T18:53:20.165+07:00,837086001700958256,410377,371734,269217,1319
1783770800183412674,2026-07-11T18:53:20.183+07:00,837086001700958256,409988,371508,269105,1317
1783770800201594492,2026-07-11T18:53:20.201+07:00,837086001700958256,409726,371288,268959,1396
1783770800219776310,2026-07-11T18:53:20.219+07:00,837086002465363964,409446,371079,268843,1314
1783770800237958128,2026-07-11T18:53:20.237+07:00,837086002465363964,409271,370956,268741,1288
1783770800256139946,2026-07-11T18:53:20.256+07:00,837086002465363964,409245,370958,268758,1320
1783770800274321764,2026-07-11T18:53:20.274+07:00,837086002465363964,409241,370917,268802,1307
1783770800292503582,2026-07-11T18:53:20.292+07:00,837086002465363964,409282,371019,268839,1313
1783770800310685400,2026-07-11T18:53:20.310+07:00,837086002465363964,409417,371016,268956,1327
1783770800328867218,2026-07-11T18:53:20.328+07:00,837086002465363964,409523,371178,269061,1324
1783770800347049036,2026-07-11T18:53:20.347+07:00,837086002465363964,409636,371223,269053,1359
1783770800365230854,2026-07-11T18:53:20.365+07:00,837086002465363964,409745,371297,269097,1315
1783770800383412672,2026-07-11T18:53:20.383+07:00,837086002465363964,409885,371448,269220,1344
1783770800401594490,2026-07-11T18:53:20.401+07:00,837086002465363964,410054,371529,269340,1290
1783770800419776308,2026-07-11T18:53:20.419+07:00,837086002465363964,410133,371595,269302,1311
1783770800437958126,2026-07-11T18:53:20.437+07:00,837086002465363964,410298,371732,269434,1345
1783770800456139944,2026-07-11T18:53:20.456+07:00,837086002465363964,410364,371776,269466,1332
1783770800474321762,2026-07-11T18:53:20.474+07:00,837086002465363964,410434,371762,269488,1285
1783770800492503580,2026-07-11T18:53:20.492+07:00,837086002465363964,410516,371875,269547,1335
1783770800510685398,2026-07-11T18:53:20.510+07:00,837086002465363964,410714,372027,269646,1298
1783770800528867216,2026-07-11T18:53:20.528+07:00,837086002465363964,410821,372090,269681,1332
1783770800547049034,2026-07-11T18:53:20.547+07:00,837086002465363964,410985,372240,269759,1331
1783770800565230852,2026-07-11T18:53:20.565+07:00,837086002465363964,411015,372210,269755,1298
1783770800583412670,2026-07-11T18:53:20.583+07:00,837086002465363964,410953,372201,269713,1366
1783770800601594488,2026-07-11T18:53:20.601+07:00,837086002465363964,410689,371942,269547,1341
1783770800619776306,2026-07-11T18:53:20.619+07:00,837086002465363964,410333,371672,269328,1255
1783770800637958124,2026-07-11T18:53:20.637+07:00,837086002465363964,409890,371247,269055,1359
1783770800656139942,2026-07-11T18:53:20.656+07:00,837086002465363964,409408,370917,268811,1277
1783770800674321760,2026-07-11T18:53:20.674+07:00,837086002465363964,409069,370605,268603,1303
1783770800692503578,2026-07-11T18:53:20.692+07:00,837086002465363964,408780,370419,268481,1311
1783770800710685396,2026-07-11T18:53:20.710+07:00,837086002465363964,408537,370228,268344,1294
1783770800728867214,2026-07-11T18:53:20.728+07:00,837086002465363964,408347,370117,268251,1325
1783770800747049032,2026-07-11T18:53:20.747+07:00,837086002465363964,408361,370110,268299,1361
1783770800765230850,2026-07-11T18:53:20.765+07:00,837086002465363964,408291,370074,268270,1338
1783770800783412668,2026-07-11T18:53:20.783+07:00,837086002465363964,408378,370133,268342,1390
1783770800801594486,2026-07-11T18:53:20.801+07:00,837086002465363964,408422,370181,268368,1311
1783770800819776304,2026-07-11T18:53:20.819+07:00,837086002465363964,408535,370211,268467,1321
1783770800837958122,2026-07-11T18:53:20.837+07:00,837086002465363964,408677,370282,268546,1358
1783770800856139940,2026-07-11T18:53:20.856+07:00,837086002465363964,408745,370341,268565,1314
1783770800874321758,2026-07-11T18:53:20.874+07:00,837086002465363964,408795,370352,268570,1308
1783770800892503576,2026-07-11T18:53:20.892+07:00,837086002465363964,408893,370400,268621,1309
1783770800910685394,2026-07-11T18:53:20.910+07:00,837086002465363964,408944,370449,268625,1311
1783770800928867212,2026-07-11T18:53:20.928+07:00,837086002465363964,409041,370588,268679,1341
1783770800947049030,2026-07-11T18:53:20.947+07:00,837086002465363964,409185,370585,268722,1352
1783770800965230848,2026-07-11T18:53:20.965+07:00,837086002465363964,409297,370661,268799,1360
1783770800983412666,2026-07-11T18:53:20.983+07:00,837086003229757466,409406,370734,268851,1362
1783770801001594484,2026-07-11T18:53:21.001+07:00,837086003229757466,409463,370792,268879,1308
1783770801019776302,2026-07-11T18:53:21.019+07:00,837086003229757466,409558,370888,268978,1331
1783770801037958120,2026-07-11T18:53:21.037+07:00,837086003229757466,409695,370913,268937,1313
1783770801056139938,2026-07-11T18:53:21.056+07:00,837086003229757466,409536,370854,268935,1285
1783770801074321756,2026-07-11T18:53:21.074+07:00,837086003229757466,409299,370683,268775,1285
1783770801092503574,2026-07-11T18:53:21.092+07:00,837086003229757466,408905,370450,268554,1303
1783770801110685392,2026-07-11T18:53:21.110+07:00,837086003229757466,408421,370044,268249,1330
1783770801128867210,2026-07-11T18:53:21.128+07:00,837086003229757466,407974,369730,268082,1317
1783770801147049028,2026-07-11T18:53:21.147+07:00,837086003229757466,407619,369475,267853,1317
1783770801165230846,2026-07-11T18:53:21.165+07:00,837086003229757466,407191,369204,267661,1270
1783770801183412664,2026-07-11T18:53:21.183+07:00,837086003229757466,407004,369045,267548,1310
1783770801201594482,2026-07-11T18:53:21.201+07:00,837086003229757466,406941,368994,267526,1341
1783770801219776300,2026-07-11T18:53:21.219+07:00,837086003229757466,406802,368888,267477,1272
1783770801237958118,2026-07-11T18:53:21.237+07:00,837086003229757466,406771,368798,267415,1340
1783770801256139936,2026-07-11T18:53:21.256+07:00,837086003229757466,406879,368868,267524,1349
1783770801274321754,2026-07-11T18:53:21.274+07:00,837086003229757466,406835,368859,267536,1313
1783770801292503572,2026-07-11T18:53:21.292+07:00,837086003229757466,406825,368896,267575,1296
1783770801310685390,2026-07-11T18:53:21.310+07:00,837086003229757466,406974,368952,267680,1297
1783770801328867208,2026-07-11T18:53:21.328+07:00,837086003229757466,407088,369061,267715,1307
1783770801347049026,2026-07-11T18:53:21.347+07:00,837086003229757466,407236,369150,267772,1279
1783770801365230844,2026-07-11T18:53:21.365+07:00,837086003229757466,407380,369293,267915,1328
1783770801383412662,2026-07-11T18:53:21.383+07:00,837086003229757466,407420,369363,267878,1284
1783770801401594480,2026-07-11T18:53:21.401+07:00,837086003229757466,407521,369463,267923,1352
1783770801419776298,2026-07-11T18:53:21.419+07:00,837086003229757466,407621,369376,268003,1356
1783770801437958116,2026-07-11T18:53:21.437+07:00,837086003229757466,407689,369462,268005,1350
1783770801456139934,2026-07-11T18:53:21.456+07:00,837086003229757466,407894,369500,268017,1341
1783770801474321752,2026-07-11T18:53:21.474+07:00,837086003229757466,407879,369576,268047,1335
1783770801492503570,2026-07-11T18:53:21.492+07:00,837086003229757466,408112,369780,268236,1339
1783770801510685388,2026-07-11T18:53:21.510+07:00,837086003229757466,408178,369859,268298,1355
1783770801528867206,2026-07-11T18:53:21.528+07:00,837086003229757466,408180,369831,268235,1349
1783770801547049024,2026-07-11T18:53:21.547+07:00,837086003229757466,408064,369733,268139,1311
1783770801565230842,2026-07-11T18:53:21.565+07:00,837086003229757466,407670,369506,267941,1267
1783770801583412660,2026-07-11T18:53:21.583+07:00,837086003229757466,407310,369195,267724,1290
1783770801601594478,2026-07-11T18:53:21.601+07:00,837086003229757466,406877,368902,267503,1328
1783770801619776296,2026-07-11T18:53:21.619+07:00,837086003229757466,406504,368641,267258,1328
1783770801637958114,2026-07-11T18:53:21.637+07:00,837086003229757466,406106,368398,267093,1287
1783770801656139932,2026-07-11T18:53:21.656+07:00,837086003229757466,405929,368189,267008,1288
1783770801674321750,2026-07-11T18:53:21.674+07:00,837086003229757466,405708,368103,266966,1309
1783770801692503568,2026-07-11T18:53:21.692+07:00,837086003229757466,405602,368026,266945,1245
1783770801710685386,2026-07-11T18:53:21.710+07:00,837086003229757466,405546,368000,266912,1279
1783770801728867204,2026-07-11T18:53:21.728+07:00,837086003229757466,405589,367993,266936,1273
1783770801747049022,2026-07-11T18:53:21.747+07:00,837086003994166226,405662,368048,266932,1310
1783770801765230840,2026-07-11T18:53:21.765+07:00,837086003994166226,405850,368191,267035,1349
1783770801783412658,2026-07-11T18:53:21.783+07:00,837086003994166226,405936,368247,267086,1332
1783770801801594476,2026-07-11T18:53:21.801+07:00,837086003994166226,406098,368340,267220,1300
1783770801819776294,2026-07-11T18:53:21.819+07:00,837086003994166226,406195,368451,267267,1298
1783770801837958112,2026-07-11T18:53:21.837+07:00,837086003994166226,406391,368629,267361,1353
1783770801856139930,2026-07-11T18:53:21.856+07:00,837086003994166226,406506,368715,267449,1317
1783770801874321748,2026-07-11T18:53:21.874+07:00,837086003994166226,406626,368854,267502,1272
1783770801892503566,2026-07-11T18:53:21.892+07:00,837086003994166226,406766,368978,267580,1318
1783770801910685384,2026-07-11T18:53:21.910+07:00,837086003994166226,406883,368973,267630,1286
1783770801928867202,2026-07-11T18:53:21.928+07:00,837086003994166226,407115,369071,267669,1303
1783770801947049020,2026-07-11T18:53:21.947+07:00,837086003994166226,407254,369262,267806,1335
1783770801965230838,2026-07-11T18:53:21.965+07:00,837086003994166226,407453,369418,267910,1345
1783770801983412656,2026-07-11T18:53:21.983+07:00,837086003994166226,407571,369456,267952,1309
1783770802001594474,2026-07-11T18:53:22.001+07:00,837086003994166226,407689,369619,268068,1255
1783770802019776292,2026-07-11T18:53:22.019+07:00,837086003994166226,407846,369714,268057,1296
1783770802037958110,2026-07-11T18:53:22.037+07:00,837086003994166226,407753,369666,268008,1290
1783770802056139928,2026-07-11T18:53:22.056+07:00,837086003994166226,407490,369499,267799,1302
1783770802074321746,2026-07-11T18:53:22.074+07:00,837086003994166226,407265,369278,267679,1393
1783770802092503564,2026-07-11T18:53:22.092+07:00,837086003994166226,406818,369058,267425,1308
1783770802110685382,2026-07-11T18:53:22.110+07:00,837086003994166226,406525,368886,267345,1318
1783770802128867200,2026-07-11T18:53:22.128+07:00,837086003994166226,406199,368638,267187,1284
1783770802147049018,2026-07-11T18:53:22.147+07:00,837086003994166226,406011,368573,267166,1279
1783770802165230836,2026-07-11T18:53:22.165+07:00,837086003994166226,405938,368474,267085,1291
1783770802183412654,2026-07-11T18:53:22.183+07:00,837086003994166226,405867,368460,267142,1335
1783770802201594472,2026-07-11T18:53:22.201+07:00,837086003994166226,405930,368547,267128,1315
1783770802219776290,2026-07-11T18:53:22.219+07:00,837086003994166226,406016,368556,267131,1305
1783770802237958108,2026-07-11T18:53:22.237+07:00,837086003994166226,406150,368644,267228,1294
1783770802256139926,2026-07-11T18:53:22.256+07:00,837086003994166226,406296,368745,267310,1260
1783770802274321744,2026-07-11T18:53:22.274+07:00,837086003994166226,406383,368919,267406,1245
1783770802292503562,2026-07-11T18:53:22.292+07:00,837086003994166226,406603,369066,267478,1273
1783770802310685380,2026-07-11T18:53:22.310+07:00,837086003994166226,406783,369175,267580,1300
1783770802328867198,2026-07-11T18:53:22.328+07:00,837086003994166226,406920,369329,267655,1340
1783770802347049016,2026-07-11T18:53:22.347+07:00,837086003994166226,407116,369472,267754,1328
1783770802365230834,2026-07-11T18:53:22.365+07:00,837086003994166226,407180,369527,267759,1276
1783770802383412652,2026-07-11T18:53:22.383+07:00,837086003994166226,407384,369731,267888,1281
1783770802401594470,2026-07-11T18:53:22.401+07:00,837086003994166226,407564,369870,268030,1304
1783770802419776288,2026-07-11T18:53:22.419+07:00,837086003994166226,407676,369976,268017,1292
1783770802437958106,2026-07-11T18:53:22.437+07:00,837086003994166226,407870,370163,268152,1355
1783770802456139924,2026-07-11T18:53:22.456+07:00,837086003994166226,408034,370258,268222,1326
1783770802474321742,2026-07-11T18:53:22.474+07:00,837086003994166226,408245,370479,268351,1362
1783770802492503560,2026-07-11T18:53:22.492+07:00,837086003994166226,408454,370633,268509,1286
1783770802510685378,2026-07-11T18:53:22.510+07:00,837086004758550570,408535,370728,268569,1292
1783770802528867196,2026-07-11T18:53:22.528+07:00,837086004758550570,408586,370758,268539,1274
1783770802547049014,2026-07-11T18:53:22.547+07:00,837086004758550570,408409,370650,268418,1310
1783770802565230832,2026-07-11T18:53:22.565+07:00,837086004758550570,408145,370455,268218,1318
1783770802583412650,2026-07-11T18:53:22.583+07:00,837086004758550570,407827,370353,268131,1292
1783770802601594468,2026-07-11T18:53:22.601+07:00,837086004758550570,407557,370130,267871,1262
1783770802619776286,2026-07-11T18:53:22.619+07:00,837086004758550570,407294,369930,267776,1307
1783770802637958104,2026-07-11T18:53:22.637+07:00,837086004758550570,407118,369830,267688,1325
1783770802656139922,2026-07-11T18:53:22.656+07:00,837086004758550570,407018,369844,267686,1268
1783770802674321740,2026-07-11T18:53:22.674+07:00,837086004758550570,407026,369795,267676,1335
1783770802692503558,2026-07-11T18:53:22.692+07:00,837086004758550570,407066,369890,267719,1299
1783770802710685376,2026-07-11T18:53:22.710+07:00,837086004758550570,407192,370018,267899,1327
1783770802728867194,2026-07-11T18:53:22.728+07:00,837086004758550570,407293,370124,267926,1243
1783770802747049012,2026-07-11T18:53:22.747+07:00,837086004758550570,407441,370254,268052,1290
1783770802765230830,2026-07-11T18:53:22.765+07:00,837086004758550570,407583,370405,268149,1323
1783770802783412648,2026-07-11T18:53:22.783+07:00,837086004758550570,407689,370521,268166,1235
1783770802801594466,2026-07-11T18:53:22.801+07:00,837086004758550570,407866,370652,268284,1275
1783770802819776284,2026-07-11T18:53:22.819+07:00,837086004758550570,408066,370744,268377,1303
1783770802837958102,2026-07-11T18:53:22.837+07:00,837086004758550570,408235,370910,268401,1254
1783770802856139920,2026-07-11T18:53:22.856+07:00,837086004758550570,408356,370941,268519,1276
1783770802874321738,2026-07-11T18:53:22.874+07:00,837086004758550570,408500,371092,268645,1270
1783770802892503556,2026-07-11T18:53:22.892+07:00,837086004758550570,408692,371263,268755,1316
1783770802910685374,2026-07-11T18:53:22.910+07:00,837086004758550570,408797,371341,268844,1272
1783770802928867192,2026-07-11T18:53:22.928+07:00,837086004758550570,409017,371561,268920,1389
1783770802947049010,2026-07-11T18:53:22.947+07:00,837086004758550570,409114,371672,268990,1257
1783770802965230828,2026-07-11T18:53:22.965+07:00,837086004758550570,409332,371866,269118,1314
1783770802983412646,2026-07-11T18:53:22.983+07:00,837086004758550570,409476,371899,269145,1304
1783770803001594464,2026-07-11T18:53:23.001+07:00,837086004758550570,409570,371999,269139,1292
1783770803019776282,2026-07-11T18:53:23.019+07:00,837086004758550570,409446,371896,269064,1325
1783770803037958100,2026-07-11T18:53:23.037+07:00,837086004758550570,409220,371724,268891,1306
1783770803056139918,2026-07-11T18:53:23.056+07:00,837086004758550570,408924,371606,268755,1299
1783770803074321736,2026-07-11T18:53:23.074+07:00,837086004758550570,408576,371439,268604,1289
1783770803092503554,2026-07-11T18:53:23.092+07:00,837086004758550570,408326,371235,268432,1287
1783770803110685372,2026-07-11T18:53:23.110+07:00,837086004758550570,408171,371143,268411,1279
1783770803128867190,2026-07-11T18:53:23.128+07:00,837086004758550570,408104,371092,268373,1311
1783770803147049008,2026-07-11T18:53:23.147+07:00,837086004758550570,407921,371154,268351,1270
1783770803165230826,2026-07-11T18:53:23.165+07:00,837086004758550570,407973,371103,268397,1271
1783770803183412644,2026-07-11T18:53:23.183+07:00,837086004758550570,408096,371190,268484,1296
1783770803201594462,2026-07-11T18:53:23.201+07:00,837086004758550570,408245,371348,268540,1343
1783770803219776280,2026-07-11T18:53:23.219+07:00,837086004758550570,408425,371431,268637,1310
1783770803237958098,2026-07-11T18:53:23.237+07:00,837086004758550570,408519,371574,268697,1287
1783770803256139916,2026-07-11T18:53:23.256+07:00,837086004758550570,408586,371700,268843,1334
1783770803274321734,2026-07-11T18:53:23.274+07:00,837086005522922710,408757,371747,268897,1256
1783770803292503552,2026-07-11T18:53:23.292+07:00,837086005522922710,408914,371901,268943,1269
1783770803310685370,2026-07-11T18:53:23.310+07:00,837086005522922710,409115,371953,269017,1293
1783770803328867188,2026-07-11T18:53:23.328+07:00,837086005522922710,409223,372130,269112,1301
1783770803347049006,2026-07-11T18:53:23.347+07:00,837086005522922710,409351,372208,269208,1264
1783770803365230824,2026-07-11T18:53:23.365+07:00,837086005522922710,409520,372338,269215,1252
1783770803383412642,2026-07-11T18:53:23.383+07:00,837086005522922710,409667,372413,269333,1335
1783770803401594460,2026-07-11T18:53:23.401+07:00,837086005522922710,409815,372577,269423,1269
1783770803419776278,2026-07-11T18:53:23.419+07:00,837086005522922710,410058,372706,269489,1305
1783770803437958096,2026-07-11T18:53:23.437+07:00,837086005522922710,410271,372902,269570,1291
1783770803456139914,2026-07-11T18:53:23.456+07:00,837086005522922710,410404,372960,269659,1359
1783770803474321732,2026-07-11T18:53:23.474+07:00,837086005522922710,410404,373018,269685,1353
1783770803492503550,2026-07-11T18:53:23.492+07:00,837086005522922710,410313,372918,269594,1350
1783770803510685368,2026-07-11T18:53:23.510+07:00,837086005522922710,409998,372748,269367,1273
1783770803528867186,2026-07-11T18:53:23.528+07:00,837086005522922710,409689,372543,269216,1325
1783770803547049004,2026-07-11T18:53:23.547+07:00,837086005522922710,409344,372304,268992,1265
1783770803565230822,2026-07-11T18:53:23.565+07:00,837086005522922710,409052,372209,268926,1336
1783770803583412640,2026-07-11T18:53:23.583+07:00,837086005522922710,408815,372101,268783,1300
1783770803601594458,2026-07-11T18:53:23.601+07:00,837086005522922710,408712,371982,268722,1326
1783770803619776276,2026-07-11T18:53:23.619+07:00,837086005522922710,408595,371855,268701,1313
1783770803637958094,2026-07-11T18:53:23.637+07:00,837086005522922710,408610,371904,268775,1325
1783770803656139912,2026-07-11T18:53:23.656+07:00,837086005522922710,408554,371931,268714,1272
1783770803674321730,2026-07-11T18:53:23.674+07:00,837086005522922710,408663,372033,268753,1256
1783770803692503548,2026-07-11T18:53:23.692+07:00,837086005522922710,408818,372090,268898,1317
1783770803710685366,2026-07-11T18:53:23.710+07:00,837086005522922710,408896,372195,268970,1298
1783770803728867184,2026-07-11T18:53:23.728+07:00,837086005522922710,409111,372352,269111,1336
1783770803747049002,2026-07-11T18:53:23.747+07:00,837086005522922710,409254,372463,269122,1304
1783770803765230820,2026-07-11T18:53:23.765+07:00,837086005522922710,409353,372567,269186,1268
1783770803783412638,2026-07-11T18:53:23.783+07:00,837086005522922710,409572,372737,269237,1338
1783770803801594456,2026-07-11T18:53:23.801+07:00,837086005522922710,409667,372847,269340,1332
1783770803819776274,2026-07-11T18:53:23.819+07:00,837086005522922710,409781,372926,269400,1317
1783770803837958092,2026-07-11T18:53:23.837+07:00,837086005522922710,409892,373027,269419,1331
1783770803856139910,2026-07-11T18:53:23.856+07:00,837086005522922710,410017,373103,269519,1320
1783770803874321728,2026-07-11T18:53:23.874+07:00,837086005522922710,410228,373245,269608,1282
1783770803892503546,2026-07-11T18:53:23.892+07:00,837086005522922710,410330,373392,269614,1317
1783770803910685364,2026-07-11T18:53:23.910+07:00,837086005522922710,410480,373543,269767,1326
1783770803928867182,2026-07-11T18:53:23.928+07:00,837086005522922710,410620,373639,269812,1339
1783770803947049000,2026-07-11T18:53:23.947+07:00,837086005522922710,410651,373626,269766,1298
1783770803965230818,2026-07-11T18:53:23.965+07:00,837086005522922710,410483,373433,269644,1317
1783770803983412636,2026-07-11T18:53:23.983+07:00,837086005522922710,410230,373282,269538,1356
1783770804001594454,2026-07-11T18:53:24.001+07:00,837086005522922710,409836,373010,269271,1273
1783770804019776272,2026-07-11T18:53:24.019+07:00,837086005522922710,409474,372805,269070,1236
1783770804037958090,2026-07-11T18:53:24.037+07:00,837086006287331474,409214,372667,268947,1301
1783770804056139908,2026-07-11T18:53:24.056+07:00,837086006287331474,408912,372562,268809,1308
1783770804074321726,2026-07-11T18:53:24.074+07:00,837086006287331474,408801,372425,268795,1322
1783770804092503544,2026-07-11T18:53:24.092+07:00,837086006287331474,408635,372333,268768,1325
1783770804110685362,2026-07-11T18:53:24.110+07:00,837086006287331474,408599,372309,268684,1283
1783770804128867180,2026-07-11T18:53:24.128+07:00,837086006287331474,408626,372391,268726,1356
1783770804147048998,2026-07-11T18:53:24.147+07:00,837086006287331474,408580,372376,268700,1301
1783770804165230816,2026-07-11T18:53:24.165+07:00,837086006287331474,408673,372428,268793,1294
1783770804183412634,2026-07-11T18:53:24.183+07:00,837086006287331474,408776,372489,268901,1315
1783770804201594452,2026-07-11T18:53:24.201+07:00,837086006287331474,408930,372622,268960,1284
1783770804219776270,2026-07-11T18:53:24.219+07:00,837086006287331474,409151,372744,268991,1345
1783770804237958088,2026-07-11T18:53:24.237+07:00,837086006287331474,409288,372861,269049,1309
1783770804256139906,2026-07-11T18:53:24.256+07:00,837086006287331474,409399,372963,269141,1267
1783770804274321724,2026-07-11T18:53:24.274+07:00,837086006287331474,409514,373051,269193,1269
1783770804292503542,2026-07-11T18:53:24.292+07:00,837086006287331474,409705,373187,269297,1340
1783770804310685360,2026-07-11T18:53:24.310+07:00,837086006287331474,409852,373272,269277,1375
1783770804328867178,2026-07-11T18:53:24.328+07:00,837086006287331474,409953,373367,269362,1359
1783770804347048996,2026-07-11T18:53:24.347+07:00,837086006287331474,410102,373542,269493,1353
1783770804365230814,2026-07-11T18:53:24.365+07:00,837086006287331474,410227,373594,269479,1321
1783770804383412632,2026-07-11T18:53:24.383+07:00,837086006287331474,410396,373742,269633,1289
1783770804401594450,2026-07-11T18:53:24.401+07:00,837086006287331474,410637,373921,269780,1354
1783770804419776268,2026-07-11T18:53:24.419+07:00,837086006287331474,410756,374038,269763,1352
1783770804437958086,2026-07-11T18:53:24.437+07:00,837086006287331474,410755,373952,269741,1369
1783770804456139904,2026-07-11T18:53:24.456+07:00,837086006287331474,410529,373827,269550,1357
1783770804474321722,2026-07-11T18:53:24.474+07:00,837086006287331474,410236,373620,269374,1324
1783770804492503540,2026-07-11T18:53:24.492+07:00,837086006287331474,409838,373346,269154,1301
1783770804510685358,2026-07-11T18:53:24.510+07:00,837086006287331474,409491,373160,268929,1279
1783770804528867176,2026-07-11T18:53:24.528+07:00,837086006287331474,409213,373006,268856,1338
1783770804547048994,2026-07-11T18:53:24.547+07:00,837086006287331474,408963,372872,268730,1321
1783770804565230812,2026-07-11T18:53:24.565+07:00,837086006287331474,408839,372776,268687,1277
1783770804583412630,2026-07-11T18:53:24.583+07:00,837086006287331474,408798,372735,268650,1349
1783770804601594448,2026-07-11T18:53:24.601+07:00,837086006287331474,408755,372739,268654,1311
1783770804619776266,2026-07-11T18:53:24.619+07:00,837086006287331474,408831,372807,268757,1341
1783770804637958084,2026-07-11T18:53:24.637+07:00,837086006287331474,408917,372913,268856,1338
1783770804656139902,2026-07-11T18:53:24.656+07:00,837086006287331474,409046,373013,268924,1349
1783770804674321720,2026-07-11T18:53:24.674+07:00,837086006287331474,409143,373088,268871,1317
1783770804692503538,2026-07-11T18:53:24.692+07:00,837086006287331474,409300,373208,269007,1344
1783770804710685356,2026-07-11T18:53:24.710+07:00,837086006287331474,409476,373342,269025,1356
1783770804728867174,2026-07-11T18:53:24.728+07:00,837086006287331474,409675,373406,269156,1318
1783770804747048992,2026-07-11T18:53:24.747+07:00,837086006287331474,409765,373538,269236,1344
1783770804765230810,2026-07-11T18:53:24.765+07:00,837086006287331474,409897,373638,269261,1331
1783770804783412628,2026-07-11T18:53:24.783+07:00,837086006287331474,410042,373670,269294,1306
1783770804801594446,2026-07-11T18:53:24.801+07:00,837086007051706664,410259,373852,269346,1360
1783770804819776264,2026-07-11T18:53:24.819+07:00,837086007051706664,410344,373933,269419,1281
1783770804837958082,2026-07-11T18:53:24.837+07:00,837086007051706664,410463,374061,269529,1337
1783770804856139900,2026-07-11T18:53:24.856+07:00,837086007051706664,410638,374203,269617,1331
1783770804874321718,2026-07-11T18:53:24.874+07:00,837086007051706664,410789,374360,269704,1333
1783770804892503536,2026-07-11T18:53:24.892+07:00,837086007051706664,410909,374409,269737,1344
1783770804910685354,2026-07-11T18:53:24.910+07:00,837086007051706664,411006,374550,269783,1341
1783770804928867172,2026-07-11T18:53:24.928+07:00,837086007051706664,410998,374472,269732,1321
1783770804947048990,2026-07-11T18:53:24.947+07:00,837086007051706664,410823,374290,269594,1246
1783770804965230808,2026-07-11T18:53:24.965+07:00,837086007051706664,410419,374106,269389,1293
1783770804983412626,2026-07-11T18:53:24.983+07:00,837086007051706664,410084,373904,269199,1340
1783770805001594444,2026-07-11T18:53:25.001+07:00,837086007051706664,409742,373654,269050,1293
1783770805019776262,2026-07-11T18:53:25.019+07:00,837086007051706664,409573,373540,268952,1361
1783770805037958080,2026-07-11T18:53:25.037+07:00,837086007051706664,409290,373344,268806,1280
1783770805056139898,2026-07-11T18:53:25.056+07:00,837086007051706664,409188,373412,268816,1282
1783770805074321716,2026-07-11T18:53:25.074+07:00,837086007051706664,409132,373401,268810,1326
1783770805092503534,2026-07-11T18:53:25.092+07:00,837086007051706664,409074,373420,268884,1328
1783770805110685352,2026-07-11T18:53:25.110+07:00,837086007051706664,409179,373578,268970,1383
1783770805128867170,2026-07-11T18:53:25.128+07:00,837086007051706664,409202,373604,268966,1316
1783770805147048988,2026-07-11T18:53:25.147+07:00,837086007051706664,409427,373648,269116,1325
1783770805165230806,2026-07-11T18:53:25.165+07:00,837086007051706664,409625,373843,269225,1308
1783770805183412624,2026-07-11T18:53:25.183+07:00,837086007051706664,409749,373979,269350,1319
1783770805201594442,2026-07-11T18:53:25.201+07:00,837086007051706664,409932,374063,269475,1303
1783770805219776260,2026-07-11T18:53:25.219+07:00,837086007051706664,410127,374207,269554,1335
1783770805237958078,2026-07-11T18:53:25.237+07:00,837086007051706664,410331,374296,269645,1349
1783770805256139896,2026-07-11T18:53:25.256+07:00,837086007051706664,410504,374377,269674,1345
1783770805274321714,2026-07-11T18:53:25.274+07:00,837086007051706664,410649,374488,269755,1300
1783770805292503532,2026-07-11T18:53:25.292+07:00,837086007051706664,410803,374548,269811,1319
1783770805310685350,2026-07-11T18:53:25.310+07:00,837086007051706664,410959,374622,269780,1367
1783770805328867168,2026-07-11T18:53:25.328+07:00,837086007051706664,411097,374662,269783,1330
1783770805347048986,2026-07-11T18:53:25.347+07:00,837086007051706664,411350,374772,269883,1348
1783770805365230804,2026-07-11T18:53:25.365+07:00,837086007051706664,411606,374854,269939,1369
1783770805383412622,2026-07-11T18:53:25.383+07:00,837086007051706664,411715,374875,269929,1341
1783770805401594440,2026-07-11T18:53:25.401+07:00,837086007051706664,411745,374889,269874,1307
1783770805419776258,2026-07-11T18:53:25.419+07:00,837086007051706664,411658,374898,269725,1293
1783770805437958076,2026-07-11T18:53:25.437+07:00,837086007051706664,411416,374801,269630,1350
1783770805456139894,2026-07-11T18:53:25.456+07:00,837086007051706664,411069,374612,269460,1326
1783770805474321712,2026-07-11T18:53:25.474+07:00,837086007051706664,410814,374366,269225,1369
1783770805492503530,2026-07-11T18:53:25.492+07:00,837086007051706664,410541,374289,269136,1341
1783770805510685348,2026-07-11T18:53:25.510+07:00,837086007051706664,410356,374205,269033,1284
1783770805528867166,2026-07-11T18:53:25.528+07:00,837086007051706664,410282,374198,269022,1296
1783770805547048984,2026-07-11T18:53:25.547+07:00,837086007051706664,410225,374238,269060,1324
1783770805565230802,2026-07-11T18:53:25.565+07:00,837086007816075750,410177,374251,269053,1342
1783770805583412620,2026-07-11T18:53:25.583+07:00,837086007816075750,410143,374248,269049,1274
1783770805601594438,2026-07-11T18:53:25.601+07:00,837086007816075750,410218,374346,269114,1280
1783770805619776256,2026-07-11T18:53:25.619+07:00,837086007816075750,410294,374507,269186,1297
1783770805637958074,2026-07-11T18:53:25.637+07:00,837086007816075750,410472,374638,269332,1280
1783770805656139892,2026-07-11T18:53:25.656+07:00,837086007816075750,410626,374781,269430,1283
1783770805674321710,2026-07-11T18:53:25.674+07:00,837086007816075750,410681,374851,269510,1314
1783770805692503528,2026-07-11T18:53:25.692+07:00,837086007816075750,410771,374931,269640,1292
1783770805710685346,2026-07-11T18:53:25.710+07:00,837086007816075750,410995,375121,269715,1303
1783770805728867164,2026-07-11T18:53:25.728+07:00,837086007816075750,411047,375150,269767,1277
1783770805747048982,2026-07-11T18:53:25.747+07:00,837086007816075750,411224,375334,269879,1317
1783770805765230800,2026-07-11T18:53:25.765+07:00,837086007816075750,411260,375431,269903,1280
1783770805783412618,2026-07-11T18:53:25.783+07:00,837086007816075750,411435,375558,270017,1324
1783770805801594436,2026-07-11T18:53:25.801+07:00,837086007816075750,411555,375693,270044,1340
1783770805819776254,2026-07-11T18:53:25.819+07:00,837086007816075750,411698,375780,270195,1251
1783770805837958072,2026-07-11T18:53:25.837+07:00,837086007816075750,411935,375911,270297,1304
1783770805856139890,2026-07-11T18:53:25.856+07:00,837086007816075750,412149,376134,270441,1316
1783770805874321708,2026-07-11T18:53:25.874+07:00,837086007816075750,412249,376216,270495,1265
1783770805892503526,2026-07-11T18:53:25.892+07:00,837086007816075750,412353,376266,270600,1281
1783770805910685344,2026-07-11T18:53:25.910+07:00,837086007816075750,412345,376304,270605,1288
1783770805928867162,2026-07-11T18:53:25.928+07:00,837086007816075750,412202,376271,270496,1249
1783770805947048980,2026-07-11T18:53:25.947+07:00,837086007816075750,411937,376138,270358,1288
1783770805965230798,2026-07-11T18:53:25.965+07:00,837086007816075750,411733,375958,270314,1319
1783770805983412616,2026-07-11T18:53:25.983+07:00,837086007816075750,411446,375872,270206,1313
1783770806001594434,2026-07-11T18:53:26.001+07:00,837086007816075750,411309,375815,270222,1307
1783770806019776252,2026-07-11T18:53:26.019+07:00,837086007816075750,411203,375713,270154,1276
1783770806037958070,2026-07-11T18:53:26.037+07:00,837086007816075750,411170,375769,270209,1291
1783770806056139888,2026-07-11T18:53:26.056+07:00,837086007816075750,411209,375741,270228,1317
1783770806074321706,2026-07-11T18:53:26.074+07:00,837086007816075750,411272,375896,270350,1344
1783770806092503524,2026-07-11T18:53:26.092+07:00,837086007816075750,411357,376047,270428,1342
1783770806110685342,2026-07-11T18:53:26.110+07:00,837086007816075750,411517,376159,270562,1338
1783770806128867160,2026-07-11T18:53:26.128+07:00,837086007816075750,411640,376240,270681,1339
1783770806147048978,2026-07-11T18:53:26.147+07:00,837086007816075750,411812,376297,270752,1357
1783770806165230796,2026-07-11T18:53:26.165+07:00,837086007816075750,411996,376430,270855,1334
1783770806183412614,2026-07-11T18:53:26.183+07:00,837086007816075750,412181,376645,270992,1323
1783770806201594432,2026-07-11T18:53:26.201+07:00,837086007816075750,412373,376729,271057,1374
1783770806219776250,2026-07-11T18:53:26.219+07:00,837086007816075750,412525,376872,271181,1347
1783770806237958068,2026-07-11T18:53:26.237+07:00,837086007816075750,412728,376999,271236,1327
1783770806256139886,2026-07-11T18:53:26.256+07:00,837086007816075750,412886,377157,271407,1333
1783770806274321704,2026-07-11T18:53:26.274+07:00,837086007816075750,413020,377288,271496,1317
1783770806292503522,2026-07-11T18:53:26.292+07:00,837086007816075750,413183,377400,271605,1303
1783770806310685340,2026-07-11T18:53:26.310+07:00,837086007816075750,413357,377549,271667,1271
1783770806328867158,2026-07-11T18:53:26.328+07:00,837086008580417370,413585,377709,271824,1288
1783770806347048976,2026-07-11T18:53:26.347+07:00,837086008580417370,413752,377863,271916,1294
1783770806365230794,2026-07-11T18:53:26.365+07:00,837086008580417370,413860,377923,271935,1302
1783770806383412612,2026-07-11T18:53:26.383+07:00,837086008580417370,413837,377921,271954,1299
1783770806401594430,2026-07-11T18:53:26.401+07:00,837086008580417370,413697,377774,271866,1285
1783770806419776248,2026-07-11T18:53:26.419+07:00,837086008580417370,413468,377584,271700,1327
1783770806437958066,2026-07-11T18:53:26.437+07:00,837086008580417370,413181,377448,271533,1319
1783770806456139884,2026-07-11T18:53:26.456+07:00,837086008580417370,413036,377298,271489,1294
1783770806474321702,2026-07-11T18:53:26.474+07:00,837086008580417370,412917,377189,271436,1317
1783770806492503520,2026-07-11T18:53:26.492+07:00,837086008580417370,412789,377156,271454,1306
1783770806510685338,2026-07-11T18:53:26.510+07:00,837086008580417370,412791,377121,271406,1350
1783770806528867156,2026-07-11T18:53:26.528+07:00,837086008580417370,412762,377032,271488,1332
1783770806547048974,2026-07-11T18:53:26.547+07:00,837086008580417370,412897,377137,271597,1342
1783770806565230792,2026-07-11T18:53:26.565+07:00,837086008580417370,412908,377150,271552,1316
1783770806583412610,2026-07-11T18:53:26.583+07:00,837086008580417370,413174,377299,271717,1322
1783770806601594428,2026-07-11T18:53:26.601+07:00,837086008580417370,413196,377408,271779,1287
1783770806619776246,2026-07-11T18:53:26.619+07:00,837086008580417370,413404,377479,271845,1264
1783770806637958064,2026-07-11T18:53:26.637+07:00,837086008580417370,413671,377544,271942,1344
1783770806656139882,2026-07-11T18:53:26.656+07:00,837086008580417370,413853,377678,272039,1348
1783770806674321700,2026-07-11T18:53:26.674+07:00,837086008580417370,413992,377798,272071,1288
1783770806692503518,2026-07-11T18:53:26.692+07:00,837086008580417370,414142,377965,272178,1326
1783770806710685336,2026-07-11T18:53:26.710+07:00,837086008580417370,414371,378043,272326,1327
1783770806728867154,2026-07-11T18:53:26.728+07:00,837086008580417370,414629,378213,272461,1343
1783770806747048972,2026-07-11T18:53:26.747+07:00,837086008580417370,414781,378298,272513,1371
1783770806765230790,2026-07-11T18:53:26.765+07:00,837086008580417370,414994,378483,272626,1310
1783770806783412608,2026-07-11T18:53:26.783+07:00,837086008580417370,415274,378639,272761,1293
1783770806801594426,2026-07-11T18:53:26.801+07:00,837086008580417370,415490,378791,272890,1330
1783770806819776244,2026-07-11T18:53:26.819+07:00,837086008580417370,415721,378976,273049,1282
1783770806837958062,2026-07-11T18:53:26.837+07:00,837086008580417370,415896,379044,273107,1264
1783770806856139880,2026-07-11T18:53:26.856+07:00,837086008580417370,416065,379171,273129,1313
1783770806874321698,2026-07-11T18:53:26.874+07:00,837086008580417370,416209,379204,273106,1365
1783770806892503516,2026-07-11T18:53:26.892+07:00,837086008580417370,416099,379160,273064,1288
1783770806910685334,2026-07-11T18:53:26.910+07:00,837086008580417370,416060,379107,272997,1354
1783770806928867152,2026-07-11T18:53:26.928+07:00,837086008580417370,415933,379065,272956,1355
1783770806947048970,2026-07-11T18:53:26.947+07:00,837086008580417370,415870,378971,272882,1348
1783770806965230788,2026-07-11T18:53:26.965+07:00,837086008580417370,415875,378955,272916,1317
1783770806983412606,2026-07-11T18:53:26.983+07:00,837086008580417370,415837,378989,272880,1309
1783770807001594424,2026-07-11T18:53:27.001+07:00,837086008580417370,415971,379097,272983,1373
1783770807019776242,2026-07-11T18:53:27.019+07:00,837086008580417370,416084,379163,273068,1332
1783770807037958060,2026-07-11T18:53:27.037+07:00,837086008580417370,416243,379275,273265,1326
1783770807056139878,2026-07-11T18:53:27.056+07:00,837086008580417370,416434,379489,273392,1291
1783770807074321696,2026-07-11T18:53:27.074+07:00,837086008580417370,416575,379607,273469,1268
1783770807092503514,2026-07-11T18:53:27.092+07:00,837086009344758990,416819,379820,273555,1292
1783770807110685332,2026-07-11T18:53:27.110+07:00,837086009344758990,417140,380061,273767,1292
1783770807128867150,2026-07-11T18:53:27.128+07:00,837086009344758990,417334,380177,273847,1318
1783770807147048968,2026-07-11T18:53:27.147+07:00,837086009344758990,417533,380378,274012,1307
1783770807165230786,2026-07-11T18:53:27.165+07:00,837086009344758990,417823,380480,274124,1271
1783770807183412604,2026-07-11T18:53:27.183+07:00,837086009344758990,418015,380701,274242,1279
1783770807201594422,2026-07-11T18:53:27.201+07:00,837086009344758990,418231,380870,274313,1274
1783770807219776240,2026-07-11T18:53:27.219+07:00,837086009344758990,418427,381016,274413,1327
1783770807237958058,2026-07-11T18:53:27.237+07:00,837086009344758990,418710,381228,274569,1386
1783770807256139876,2026-07-11T18:53:27.256+07:00,837086009344758990,418870,381318,274730,1367
1783770807274321694,2026-07-11T18:53:27.274+07:00,837086009344758990,419136,381494,274825,1290
1783770807292503512,2026-07-11T18:53:27.292+07:00,837086009344758990,419283,381631,274977,1297
1783770807310685330,2026-07-11T18:53:27.310+07:00,837086009344758990,419478,381799,275103,1271
1783770807328867148,2026-07-11T18:53:27.328+07:00,837086009344758990,419692,381936,275172,1274
1783770807347048966,2026-07-11T18:53:27.347+07:00,837086009344758990,419792,382034,275239,1320
1783770807365230784,2026-07-11T18:53:27.365+07:00,837086009344758990,419823,382087,275230,1296
1783770807383412602,2026-07-11T18:53:27.383+07:00,837086009344758990,419788,382042,275153,1314
1783770807401594420,2026-07-11T18:53:27.401+07:00,837086009344758990,419757,382009,275107,1291
1783770807419776238,2026-07-11T18:53:27.419+07:00,837086009344758990,419800,382030,275210,1292
1783770807437958056,2026-07-11T18:53:27.437+07:00,837086009344758990,419775,382076,275210,1286
1783770807456139874,2026-07-11T18:53:27.456+07:00,837086009344758990,419901,382159,275325,1302
1783770807474321692,2026-07-11T18:53:27.474+07:00,837086009344758990,419977,382223,275292,1328
1783770807492503510,2026-07-11T18:53:27.492+07:00,837086009344758990,420169,382340,275427,1342
1783770807510685328,2026-07-11T18:53:27.510+07:00,837086009344758990,420227,382475,275494,1283
1783770807528867146,2026-07-11T18:53:27.528+07:00,837086009344758990,420478,382701,275674,1283
1783770807547048964,2026-07-11T18:53:27.547+07:00,837086009344758990,420728,382922,275840,1262
1783770807565230782,2026-07-11T18:53:27.565+07:00,837086009344758990,421047,383130,276038,1323
1783770807583412600,2026-07-11T18:53:27.583+07:00,837086009344758990,421228,383295,276127,1265
1783770807601594418,2026-07-11T18:53:27.601+07:00,837086009344758990,421502,383394,276242,1276
1783770807619776236,2026-07-11T18:53:27.619+07:00,837086009344758990,421654,383522,276365,1323
1783770807637958054,2026-07-11T18:53:27.637+07:00,837086009344758990,421834,383689,276461,1289
1783770807656139872,2026-07-11T18:53:27.656+07:00,837086009344758990,422032,383862,276545,1289
1783770807674321690,2026-07-11T18:53:27.674+07:00,837086009344758990,422237,383953,276673,1371
1783770807692503508,2026-07-11T18:53:27.692+07:00,837086009344758990,422425,384207,276813,1321
1783770807710685326,2026-07-11T18:53:27.710+07:00,837086009344758990,422643,384355,276933,1273
1783770807728867144,2026-07-11T18:53:27.728+07:00,837086009344758990,422857,384514,277064,1348
1783770807747048962,2026-07-11T18:53:27.747+07:00,837086009344758990,423064,384654,277104,1332
1783770807765230780,2026-07-11T18:53:27.765+07:00,837086009344758990,423270,384799,277178,1355
1783770807783412598,2026-07-11T18:53:27.783+07:00,837086009344758990,423447,384962,277346,1350
1783770807801594416,2026-07-11T18:53:27.801+07:00,837086009344758990,423475,384936,277363,1301
1783770807819776234,2026-07-11T18:53:27.819+07:00,837086009344758990,423433,384863,277300,1242
1783770807837958052,2026-07-11T18:53:27.837+07:00,837086009344758990,423368,384819,277256,1320
1783770807856139870,2026-07-11T18:53:27.856+07:00,837086010109115870,423276,384737,277204,1306
1783770807874321688,2026-07-11T18:53:27.874+07:00,837086010109115870,423163,384680,277154,1283
1783770807892503506,2026-07-11T18:53:27.892+07:00,837086010109115870,423071,384687,277102,1277
1783770807910685324,2026-07-11T18:53:27.910+07:00,837086010109115870,423170,384689,277210,1290
1783770807928867142,2026-07-11T18:53:27.928+07:00,837086010109115870,423173,384699,277268,1254
1783770807947048960,2026-07-11T18:53:27.947+07:00,837086010109115870,423350,384749,277355,1348
1783770807965230778,2026-07-11T18:53:27.965+07:00,837086010109115870,423419,384822,277425,1334
1783770807983412596,2026-07-11T18:53:27.983+07:00,837086010109115870,423567,384934,277499,1324
1783770808001594414,2026-07-11T18:53:28.001+07:00,837086010109115870,423835,385022,277586,1324
1783770808019776232,2026-07-11T18:53:28.019+07:00,837086010109115870,423873,385097,277751,1263
1783770808037958050,2026-07-11T18:53:28.037+07:00,837086010109115870,424048,385246,277796,1294
1783770808056139868,2026-07-11T18:53:28.056+07:00,837086010109115870,424194,385336,277943,1335
1783770808074321686,2026-07-11T18:53:28.074+07:00,837086010109115870,424337,385358,277972,1353
1783770808092503504,2026-07-11T18:53:28.092+07:00,837086010109115870,424566,385557,278045,1376
1783770808110685322,2026-07-11T18:53:28.110+07:00,837086010109115870,424778,385697,278143,1300
1783770808128867140,2026-07-11T18:53:28.128+07:00,837086010109115870,424954,385786,278253,1378
1783770808147048958,2026-07-11T18:53:28.147+07:00,837086010109115870,425066,385819,278307,1298
1783770808165230776,2026-07-11T18:53:28.165+07:00,837086010109115870,425184,386016,278452,1317
1783770808183412594,2026-07-11T18:53:28.183+07:00,837086010109115870,425406,386116,278523,1328
1783770808201594412,2026-07-11T18:53:28.201+07:00,837086010109115870,425580,386279,278576,1349
1783770808219776230,2026-07-11T18:53:28.219+07:00,837086010109115870,425730,386355,278638,1305
1783770808237958048,2026-07-11T18:53:28.237+07:00,837086010109115870,425856,386468,278747,1283
1783770808256139866,2026-07-11T18:53:28.256+07:00,837086010109115870,425918,386476,278808,1299
1783770808274321684,2026-07-11T18:53:28.274+07:00,837086010109115870,425940,386421,278744,1324
1783770808292503502,2026-07-11T18:53:28.292+07:00,837086010109115870,425804,386263,278571,1333
1783770808310685320,2026-07-11T18:53:28.310+07:00,837086010109115870,425695,386066,278488,1323
1783770808328867138,2026-07-11T18:53:28.328+07:00,837086010109115870,425548,385971,278417,1311
1783770808347048956,2026-07-11T18:53:28.347+07:00,837086010109115870,425416,385872,278340,1339
1783770808365230774,2026-07-11T18:53:28.365+07:00,837086010109115870,425334,385832,278367,1307
1783770808383412592,2026-07-11T18:53:28.383+07:00,837086010109115870,425278,385796,278338,1298
1783770808401594410,2026-07-11T18:53:28.401+07:00,837086010109115870,425253,385774,278336,1376
1783770808419776228,2026-07-11T18:53:28.419+07:00,837086010109115870,425390,385771,278445,1314
1783770808437958046,2026-07-11T18:53:28.437+07:00,837086010109115870,425441,385842,278525,1342
1783770808456139864,2026-07-11T18:53:28.456+07:00,837086010109115870,425546,385970,278552,1357
1783770808474321682,2026-07-11T18:53:28.474+07:00,837086010109115870,425706,385999,278709,1360
1783770808492503500,2026-07-11T18:53:28.492+07:00,837086010109115870,425857,386088,278758,1377
1783770808510685318,2026-07-11T18:53:28.510+07:00,837086010109115870,426010,386236,278849,1319
1783770808528867136,2026-07-11T18:53:28.528+07:00,837086010109115870,426159,386340,278964,1294
1783770808547048954,2026-07-11T18:53:28.547+07:00,837086010109115870,426279,386419,279026,1351
1783770808565230772,2026-07-11T18:53:28.565+07:00,837086010109115870,426468,386478,279063,1332
1783770808583412590,2026-07-11T18:53:28.583+07:00,837086010109115870,426546,386553,279173,1282
1783770808601594408,2026-07-11T18:53:28.601+07:00,837086010109115870,426716,386664,279235,1328
1783770808619776226,2026-07-11T18:53:28.619+07:00,837086010873460542,426810,386769,279246,1241
1783770808637958044,2026-07-11T18:53:28.637+07:00,837086010873460542,427028,386875,279369,1352
1783770808656139862,2026-07-11T18:53:28.656+07:00,837086010873460542,427193,386865,279387,1296
1783770808674321680,2026-07-11T18:53:28.674+07:00,837086010873460542,427321,387012,279496,1284
1783770808692503498,2026-07-11T18:53:28.692+07:00,837086010873460542,427369,387077,279581,1309
1783770808710685316,2026-07-11T18:53:28.710+07:00,837086010873460542,427355,387034,279520,1288
1783770808728867134,2026-07-11T18:53:28.728+07:00,837086010873460542,427325,387003,279469,1349
1783770808747048952,2026-07-11T18:53:28.747+07:00,837086010873460542,427125,386827,279418,1274
1783770808765230770,2026-07-11T18:53:28.765+07:00,837086010873460542,426917,386659,279274,1276
1783770808783412588,2026-07-11T18:53:28.783+07:00,837086010873460542,426752,386524,279154,1309
1783770808801594406,2026-07-11T18:53:28.801+07:00,837086010873460542,426610,386307,279045,1311
1783770808819776224,2026-07-11T18:53:28.819+07:00,837086010873460542,426430,386197,278981,1308
1783770808837958042,2026-07-11T18:53:28.837+07:00,837086010873460542,426403,386198,279002,1302
1783770808856139860,2026-07-11T18:53:28.856+07:00,837086010873460542,426417,386094,278979,1325
1783770808874321678,2026-07-11T18:53:28.874+07:00,837086010873460542,426446,386022,278993,1330
1783770808892503496,2026-07-11T18:53:28.892+07:00,837086010873460542,426426,386091,279084,1291
1783770808910685314,2026-07-11T18:53:28.910+07:00,837086010873460542,426502,386102,279135,1379
1783770808928867132,2026-07-11T18:53:28.928+07:00,837086010873460542,426655,386192,279215,1317
1783770808947048950,2026-07-11T18:53:28.947+07:00,837086010873460542,426773,386347,279305,1335
1783770808965230768,2026-07-11T18:53:28.965+07:00,837086010873460542,426946,386322,279415,1294
1783770808983412586,2026-07-11T18:53:28.983+07:00,837086010873460542,427010,386360,279446,1315
1783770809001594404,2026-07-11T18:53:29.001+07:00,837086010873460542,427179,386530,279557,1419
1783770809019776222,2026-07-11T18:53:29.019+07:00,837086010873460542,427266,386576,279601,1294
1783770809037958040,2026-07-11T18:53:29.037+07:00,837086010873460542,427340,386700,279623,1291
1783770809056139858,2026-07-11T18:53:29.056+07:00,837086010873460542,427513,386756,279713,1323
1783770809074321676,2026-07-11T18:53:29.074+07:00,837086010873460542,427599,386838,279752,1298
1783770809092503494,2026-07-11T18:53:29.092+07:00,837086010873460542,427798,386911,279837,1287
1783770809110685312,2026-07-11T18:53:29.110+07:00,837086010873460542,427898,387045,279925,1341
1783770809128867130,2026-07-11T18:53:29.128+07:00,837086010873460542,427989,387014,279970,1366
1783770809147048948,2026-07-11T18:53:29.147+07:00,837086010873460542,428067,387117,280012,1332
1783770809165230766,2026-07-11T18:53:29.165+07:00,837086010873460542,428134,387128,279972,1277
1783770809183412584,2026-07-11T18:53:29.183+07:00,837086010873460542,427962,386988,279913,1281
1783770809201594402,2026-07-11T18:53:29.201+07:00,837086010873460542,427764,386829,279728,1284
1783770809219776220,2026-07-11T18:53:29.219+07:00,837086010873460542,427559,386615,279647,1264
1783770809237958038,2026-07-11T18:53:29.237+07:00,837086010873460542,427364,386490,279471,1315
1783770809256139856,2026-07-11T18:53:29.256+07:00,837086010873460542,427191,386302,279429,1304
1783770809274321674,2026-07-11T18:53:29.274+07:00,837086010873460542,427097,386142,279390,1256
1783770809292503492,2026-07-11T18:53:29.292+07:00,837086010873460542,427004,386075,279341,1321
1783770809310685310,2026-07-11T18:53:29.310+07:00,837086010873460542,426950,386060,279340,1260
1783770809328867128,2026-07-11T18:53:29.328+07:00,837086010873460542,426981,386052,279362,1231
1783770809347048946,2026-07-11T18:53:29.347+07:00,837086010873460542,427060,386101,279491,1376
1783770809365230764,2026-07-11T18:53:29.365+07:00,837086010873460542,427070,386093,279502,1299
1783770809383412582,2026-07-11T18:53:29.383+07:00,837086011637835732,427215,386188,279531,1297
1783770809401594400,2026-07-11T18:53:29.401+07:00,837086011637835732,427347,386246,279669,1352
1783770809419776218,2026-07-11T18:53:29.419+07:00,837086011637835732,427514,386400,279777,1338
1783770809437958036,2026-07-11T18:53:29.437+07:00,837086011637835732,427618,386509,279804,1379
1783770809456139854,2026-07-11T18:53:29.456+07:00,837086011637835732,427705,386558,279873,1351
1783770809474321672,2026-07-11T18:53:29.474+07:00,837086011637835732,427871,386586,279907,1335
1783770809492503490,2026-07-11T18:53:29.492+07:00,837086011637835732,427997,386691,279970,1318
1783770809510685308,2026-07-11T18:53:29.510+07:00,837086011637835732,428124,386740,280029,1315
1783770809528867126,2026-07-11T18:53:29.528+07:00,837086011637835732,428240,386808,280059,1321
1783770809547048944,2026-07-11T18:53:29.547+07:00,837086011637835732,428300,386885,280140,1316
1783770809565230762,2026-07-11T18:53:29.565+07:00,837086011637835732,428351,386980,280255,1317
1783770809583412580,2026-07-11T18:53:29.583+07:00,837086011637835732,428479,387051,280298,1304
1783770809601594398,2026-07-11T18:53:29.601+07:00,837086011637835732,428640,387136,280356,1332
1783770809619776216,2026-07-11T18:53:29.619+07:00,837086011637835732,428704,387141,280320,1299
1783770809637958034,2026-07-11T18:53:29.637+07:00,837086011637835732,428672,387055,280296,1404
1783770809656139852,2026-07-11T18:53:29.656+07:00,837086011637835732,428450,386883,280105,1337
1783770809674321670,2026-07-11T18:53:29.674+07:00,837086011637835732,428249,386685,280023,1317
1783770809692503488,2026-07-11T18:53:29.692+07:00,837086011637835732,427900,386524,279831,1365
1783770809710685306,2026-07-11T18:53:29.710+07:00,837086011637835732,427688,386295,279771,1303
1783770809728867124,2026-07-11T18:53:29.728+07:00,837086011637835732,427477,386118,279703,1330
1783770809747048942,2026-07-11T18:53:29.747+07:00,837086011637835732,427350,386037,279654,1375
1783770809765230760,2026-07-11T18:53:29.765+07:00,837086011637835732,427230,385863,279589,1340
1783770809783412578,2026-07-11T18:53:29.783+07:00,837086011637835732,427277,385876,279556,1355
1783770809801594396,2026-07-11T18:53:29.801+07:00,837086011637835732,427311,385839,279560,1305
1783770809819776214,2026-07-11T18:53:29.819+07:00,837086011637835732,427389,385903,279719,1358
1783770809837958032,2026-07-11T18:53:29.837+07:00,837086011637835732,427511,385953,279678,1339
1783770809856139850,2026-07-11T18:53:29.856+07:00,837086011637835732,427563,385965,279757,1350
1783770809874321668,2026-07-11T18:53:29.874+07:00,837086011637835732,427724,386023,279784,1389
1783770809892503486,2026-07-11T18:53:29.892+07:00,837086011637835732,427770,386073,279814,1366
1783770809910685304,2026-07-11T18:53:29.910+07:00,837086011637835732,427878,386170,279861,1331
1783770809928867122,2026-07-11T18:53:29.928+07:00,837086011637835732,427952,386234,279954,1326
1783770809947048940,2026-07-11T18:53:29.947+07:00,837086011637835732,427998,386240,279933,1316
1783770809965230758,2026-07-11T18:53:29.965+07:00,837086011637835732,428041,386258,279937,1275
1783770809983412576,2026-07-11T18:53:29.983+07:00,837086011637835732,428046,386249,279902,1260
1783770810001594394,2026-07-11T18:53:30.001+07:00,837086011637835732,428099,386250,279976,1365
1783770810019776212,2026-07-11T18:53:30.019+07:00,837086011637835732,428187,386370,280041,1356
1783770810037958030,2026-07-11T18:53:30.037+07:00,837086011637835732,428345,386460,280143,1284
1783770810056139848,2026-07-11T18:53:30.056+07:00,837086011637835732,428378,386505,280171,1260
1783770810074321666,2026-07-11T18:53:30.074+07:00,837086011637835732,428499,386499,280258,1355
1783770810092503484,2026-07-11T18:53:30.092+07:00,837086011637835732,428449,386502,280205,1313
1783770810110685302,2026-07-11T18:53:30.110+07:00,837086011637835732,428394,386475,280132,1326
1783770810128867120,2026-07-11T18:53:30.128+07:00,837086011637835732,428176,386241,279980,1291
1783770810147048938,2026-07-11T18:53:30.147+07:00,837086012402210922,427870,385927,279805,1266
1783770810165230756,2026-07-11T18:53:30.165+07:00,837086012402210922,427647,385804,279661,1379
1783770810183412574,2026-07-11T18:53:30.183+07:00,837086012402210922,427383,385496,279506,1313
1783770810201594392,2026-07-11T18:53:30.201+07:00,837086012402210922,427217,385278,279418,1303
1783770810219776210,2026-07-11T18:53:30.219+07:00,837086012402210922,427065,385192,279314,1321
1783770810237958028,2026-07-11T18:53:30.237+07:00,837086012402210922,427037,385136,279334,1337
1783770810256139846,2026-07-11T18:53:30.256+07:00,837086012402210922,426993,385129,279374,1327
1783770810274321664,2026-07-11T18:53:30.274+07:00,837086012402210922,426983,385044,279396,1327
1783770810292503482,2026-07-11T18:53:30.292+07:00,837086012402210922,426999,385108,279459,1333
1783770810310685300,2026-07-11T18:53:30.310+07:00,837086012402210922,427161,385203,279495,1397
1783770810328867118,2026-07-11T18:53:30.328+07:00,837086012402210922,427212,385269,279575,1437
1783770810347048936,2026-07-11T18:53:30.347+07:00,837086012402210922,427298,385297,279630,1380
1783770810365230754,2026-07-11T18:53:30.365+07:00,837086012402210922,427480,385388,279675,1382
1783770810383412572,2026-07-11T18:53:30.383+07:00,837086012402210922,427539,385407,279746,1291
1783770810401594390,2026-07-11T18:53:30.401+07:00,837086012402210922,427654,385476,279779,1347
1783770810419776208,2026-07-11T18:53:30.419+07:00,837086012402210922,427682,385523,279796,1325
1783770810437958026,2026-07-11T18:53:30.437+07:00,837086012402210922,427754,385513,279784,1349
1783770810456139844,2026-07-11T18:53:30.456+07:00,837086012402210922,427828,385514,279826,1292
1783770810474321662,2026-07-11T18:53:30.474+07:00,837086012402210922,427910,385626,279921,1357
1783770810492503480,2026-07-11T18:53:30.492+07:00,837086012402210922,427995,385750,279968,1342
1783770810510685298,2026-07-11T18:53:30.510+07:00,837086012402210922,428122,385811,280003,1350
1783770810528867116,2026-07-11T18:53:30.528+07:00,837086012402210922,428258,385875,280178,1356
1783770810547048934,2026-07-11T18:53:30.547+07:00,837086012402210922,428303,385893,280162,1324
1783770810565230752,2026-07-11T18:53:30.565+07:00,837086012402210922,428212,385820,280107,1358
1783770810583412570,2026-07-11T18:53:30.583+07:00,837086012402210922,428085,385661,279971,1399
1783770810601594388,2026-07-11T18:53:30.601+07:00,837086012402210922,427846,385481,279783,1387
1783770810619776206,2026-07-11T18:53:30.619+07:00,837086012402210922,427532,385218,279599,1338
1783770810637958024,2026-07-11T18:53:30.637+07:00,837086012402210922,427247,385001,279401,1345
1783770810656139842,2026-07-11T18:53:30.656+07:00,837086012402210922,427067,384842,279280,1356
1783770810674321660,2026-07-11T18:53:30.674+07:00,837086012402210922,426894,384632,279264,1338
1783770810692503478,2026-07-11T18:53:30.692+07:00,837086012402210922,426804,384566,279253,1410
1783770810710685296,2026-07-11T18:53:30.710+07:00,837086012402210922,426753,384476,279185,1358
1783770810728867114,2026-07-11T18:53:30.728+07:00,837086012402210922,426722,384483,279164,1300
1783770810747048932,2026-07-11T18:53:30.747+07:00,837086012402210922,426750,384470,279221,1322
1783770810765230750,2026-07-11T18:53:30.765+07:00,837086012402210922,426815,384484,279244,1328
1783770810783412568,2026-07-11T18:53:30.783+07:00,837086012402210922,426856,384523,279343,1357
1783770810801594386,2026-07-11T18:53:30.801+07:00,837086012402210922,427013,384645,279421,1333
1783770810819776204,2026-07-11T18:53:30.819+07:00,837086012402210922,427170,384687,279466,1316
1783770810837958022,2026-07-11T18:53:30.837+07:00,837086012402210922,427176,384743,279470,1311
1783770810856139840,2026-07-11T18:53:30.856+07:00,837086012402210922,427327,384810,279519,1420
1783770810874321658,2026-07-11T18:53:30.874+07:00,837086012402210922,427409,384845,279488,1339
1783770810892503476,2026-07-11T18:53:30.892+07:00,837086012402210922,427420,384922,279521,1321
1783770810910685294,2026-07-11T18:53:30.910+07:00,837086013166616630,427526,384988,279600,1339
1783770810928867112,2026-07-11T18:53:30.928+07:00,837086013166616630,427663,385076,279748,1347
1783770810947048930,2026-07-11T18:53:30.947+07:00,837086013166616630,427722,385061,279796,1279
1783770810965230748,2026-07-11T18:53:30.965+07:00,837086013166616630,427851,385235,279843,1335
1783770810983412566,2026-07-11T18:53:30.983+07:00,837086013166616630,427984,385322,279874,1336
1783770811001594384,2026-07-11T18:53:31.001+07:00,837086013166616630,427980,385259,279850,1324
1783770811019776202,2026-07-11T18:53:31.019+07:00,837086013166616630,428055,385274,279925,1349
1783770811037958020,2026-07-11T18:53:31.037+07:00,837086013166616630,427776,385126,279715,1327
1783770811056139838,2026-07-11T18:53:31.056+07:00,837086013166616630,427529,384942,279510,1338
1783770811074321656,2026-07-11T18:53:31.074+07:00,837086013166616630,427207,384602,279335,1294
1783770811092503474,2026-07-11T18:53:31.092+07:00,837086013166616630,426964,384310,279149,1318
1783770811110685292,2026-07-11T18:53:31.110+07:00,837086013166616630,426711,384148,279065,1272
1783770811128867110,2026-07-11T18:53:31.128+07:00,837086013166616630,426474,384021,278994,1296
1783770811147048928,2026-07-11T18:53:31.147+07:00,837086013166616630,426393,383924,278944,1316
1783770811165230746,2026-07-11T18:53:31.165+07:00,837086013166616630,426389,383873,278909,1343
1783770811183412564,2026-07-11T18:53:31.183+07:00,837086013166616630,426387,383865,278911,1369
1783770811201594382,2026-07-11T18:53:31.201+07:00,837086013166616630,426308,383759,278925,1338
1783770811219776200,2026-07-11T18:53:31.219+07:00,837086013166616630,426370,383865,278924,1334
1783770811237958018,2026-07-11T18:53:31.237+07:00,837086013166616630,426387,383901,278985,1347
1783770811256139836,2026-07-11T18:53:31.256+07:00,837086013166616630,426506,383955,279114,1334
1783770811274321654,2026-07-11T18:53:31.274+07:00,837086013166616630,426636,384074,279177,1318
1783770811292503472,2026-07-11T18:53:31.292+07:00,837086013166616630,426757,384149,279227,1352
1783770811310685290,2026-07-11T18:53:31.310+07:00,837086013166616630,426853,384173,279285,1353
1783770811328867108,2026-07-11T18:53:31.328+07:00,837086013166616630,426895,384183,279290,1283
1783770811347048926,2026-07-11T18:53:31.347+07:00,837086013166616630,427000,384278,279348,1305
1783770811365230744,2026-07-11T18:53:31.365+07:00,837086013166616630,427041,384384,279413,1321
1783770811383412562,2026-07-11T18:53:31.383+07:00,837086013166616630,427159,384479,279477,1320
1783770811401594380,2026-07-11T18:53:31.401+07:00,837086013166616630,427285,384539,279527,1274
1783770811419776198,2026-07-11T18:53:31.419+07:00,837086013166616630,427383,384630,279555,1342
1783770811437958016,2026-07-11T18:53:31.437+07:00,837086013166616630,427479,384744,279609,1335
1783770811456139834,2026-07-11T18:53:31.456+07:00,837086013166616630,427507,384788,279628,1310
1783770811474321652,2026-07-11T18:53:31.474+07:00,837086013166616630,427562,384801,279698,1284
1783770811492503470,2026-07-11T18:53:31.492+07:00,837086013166616630,427426,384712,279567,1334
1783770811510685288,2026-07-11T18:53:31.510+07:00,837086013166616630,427242,384517,279453,1327
1783770811528867106,2026-07-11T18:53:31.528+07:00,837086013166616630,426967,384305,279282,1365
1783770811547048924,2026-07-11T18:53:31.547+07:00,837086013166616630,426776,384140,279139,1357
1783770811565230742,2026-07-11T18:53:31.565+07:00,837086013166616630,426495,383972,278959,1338
1783770811583412560,2026-07-11T18:53:31.583+07:00,837086013166616630,426350,383811,278915,1361
1783770811601594378,2026-07-11T18:53:31.601+07:00,837086013166616630,426304,383763,278906,1358
1783770811619776196,2026-07-11T18:53:31.619+07:00,837086013166616630,426236,383754,278869,1365
1783770811637958014,2026-07-11T18:53:31.637+07:00,837086013166616630,426193,383704,278845,1337
1783770811656139832,2026-07-11T18:53:31.656+07:00,837086013166616630,426248,383764,278877,1334
1783770811674321650,2026-07-11T18:53:31.674+07:00,837086013931022344,426242,383843,278948,1330
1783770811692503468,2026-07-11T18:53:31.692+07:00,837086013931022344,426401,383901,279013,1333
1783770811710685286,2026-07-11T18:53:31.710+07:00,837086013931022344,426523,384036,279128,1319
1783770811728867104,2026-07-11T18:53:31.728+07:00,837086013931022344,426644,384085,279160,1281
1783770811747048922,2026-07-11T18:53:31.747+07:00,837086013931022344,426739,384198,279313,1323
1783770811765230740,2026-07-11T18:53:31.765+07:00,837086013931022344,426892,384351,279384,1365
1783770811783412558,2026-07-11T18:53:31.783+07:00,837086013931022344,427012,384409,279458,1327
1783770811801594376,2026-07-11T18:53:31.801+07:00,837086013931022344,427050,384529,279472,1300
1783770811819776194,2026-07-11T18:53:31.819+07:00,837086013931022344,427212,384627,279545,1328
1783770811837958012,2026-07-11T18:53:31.837+07:00,837086013931022344,427314,384698,279608,1310
1783770811856139830,2026-07-11T18:53:31.856+07:00,837086013931022344,427387,384781,279705,1302
1783770811874321648,2026-07-11T18:53:31.874+07:00,837086013931022344,427570,384925,279736,1318
1783770811892503466,2026-07-11T18:53:31.892+07:00,837086013931022344,427792,385020,279891,1391
1783770811910685284,2026-07-11T18:53:31.910+07:00,837086013931022344,427828,385144,279896,1276
1783770811928867102,2026-07-11T18:53:31.928+07:00,837086013931022344,427938,385164,279965,1345
1783770811947048920,2026-07-11T18:53:31.947+07:00,837086013931022344,427990,385212,279954,1358
1783770811965230738,2026-07-11T18:53:31.965+07:00,837086013931022344,427848,385159,279887,1325
1783770811983412556,2026-07-11T18:53:31.983+07:00,837086013931022344,427725,385033,279760,1296
1783770812001594374,2026-07-11T18:53:32.001+07:00,837086013931022344,427561,384972,279612,1316
1783770812019776192,2026-07-11T18:53:32.019+07:00,837086013931022344,427308,384824,279528,1338
1783770812037958010,2026-07-11T18:53:32.037+07:00,837086013931022344,427125,384676,279370,1315
1783770812056139828,2026-07-11T18:53:32.056+07:00,837086013931022344,427020,384663,279344,1290
1783770812074321646,2026-07-11T18:53:32.074+07:00,837086013931022344,426997,384612,279408,1354
1783770812092503464,2026-07-11T18:53:32.092+07:00,837086013931022344,426950,384577,279390,1304
1783770812110685282,2026-07-11T18:53:32.110+07:00,837086013931022344,426928,384561,279369,1252
1783770812128867100,2026-07-11T18:53:32.128+07:00,837086013931022344,427028,384625,279452,1242
1783770812147048918,2026-07-11T18:53:32.147+07:00,837086013931022344,427172,384804,279563,1341
1783770812165230736,2026-07-11T18:53:32.165+07:00,837086013931022344,427375,384921,279701,1396
1783770812183412554,2026-07-11T18:53:32.183+07:00,837086013931022344,427480,385089,279784,1355
1783770812201594372,2026-07-11T18:53:32.201+07:00,837086013931022344,427626,385132,279924,1375
1783770812219776190,2026-07-11T18:53:32.219+07:00,837086013931022344,427760,385325,279985,1336
1783770812237958008,2026-07-11T18:53:32.237+07:00,837086013931022344,427916,385349,280027,1309
1783770812256139826,2026-07-11T18:53:32.256+07:00,837086013931022344,428019,385511,280122,1286
1783770812274321644,2026-07-11T18:53:32.274+07:00,837086013931022344,428217,385646,280215,1299
1783770812292503462,2026-07-11T18:53:32.292+07:00,837086013931022344,428256,385742,280290,1264
1783770812310685280,2026-07-11T18:53:32.310+07:00,837086013931022344,428465,385907,280328,1304
1783770812328867098,2026-07-11T18:53:32.328+07:00,837086013931022344,428537,385957,280392,1291
1783770812347048916,2026-07-11T18:53:32.347+07:00,837086013931022344,428719,386164,280494,1315
1783770812365230734,2026-07-11T18:53:32.365+07:00,837086013931022344,428875,386302,280624,1309
1783770812383412552,2026-07-11T18:53:32.383+07:00,837086013931022344,428992,386327,280666,1326
1783770812401594370,2026-07-11T18:53:32.401+07:00,837086013931022344,429161,386458,280750,1376
1783770812419776188,2026-07-11T18:53:32.419+07:00,837086013931022344,429156,386439,280756,1372
1783770812437958006,2026-07-11T18:53:32.437+07:00,837086014695397534,429063,386427,280680,1360
1783770812456139824,2026-07-11T18:53:32.456+07:00,837086014695397534,428934,386327,280573,1326
1783770812474321642,2026-07-11T18:53:32.474+07:00,837086014695397534,428740,386217,280415,1306
1783770812492503460,2026-07-11T18:53:32.492+07:00,837086014695397534,428605,386187,280392,1355
1783770812510685278,2026-07-11T18:53:32.510+07:00,837086014695397534,428444,385995,280256,1298
1783770812528867096,2026-07-11T18:53:32.528+07:00,837086014695397534,428382,386019,280275,1335
1783770812547048914,2026-07-11T18:53:32.547+07:00,837086014695397534,428358,385981,280222,1340
1783770812565230732,2026-07-11T18:53:32.565+07:00,837086014695397534,428445,386068,280321,1336
1783770812583412550,2026-07-11T18:53:32.583+07:00,837086014695397534,428427,386154,280374,1323
1783770812601594368,2026-07-11T18:53:32.601+07:00,837086014695397534,428500,386237,280496,1328
1783770812619776186,2026-07-11T18:53:32.619+07:00,837086014695397534,428614,386305,280578,1264
1783770812637958004,2026-07-11T18:53:32.637+07:00,837086014695397534,428729,386463,280624,1343
1783770812656139822,2026-07-11T18:53:32.656+07:00,837086014695397534,428895,386503,280716,1309
1783770812674321640,2026-07-11T18:53:32.674+07:00,837086014695397534,428995,386640,280775,1280
1783770812692503458,2026-07-11T18:53:32.692+07:00,837086014695397534,429151,386718,280918,1324
1783770812710685276,2026-07-11T18:53:32.710+07:00,837086014695397534,429301,386829,281032,1371
1783770812728867094,2026-07-11T18:53:32.728+07:00,837086014695397534,429441,386951,281119,1326
1783770812747048912,2026-07-11T18:53:32.747+07:00,837086014695397534,429573,387097,281165,1311
1783770812765230730,2026-07-11T18:53:32.765+07:00,837086014695397534,429737,387246,281293,1336
1783770812783412548,2026-07-11T18:53:32.783+07:00,837086014695397534,429799,387318,281310,1297
1783770812801594366,2026-07-11T18:53:32.801+07:00,837086014695397534,429865,387436,281353,1360
1783770812819776184,2026-07-11T18:53:32.819+07:00,837086014695397534,430056,387534,281484,1340
1783770812837958002,2026-07-11T18:53:32.837+07:00,837086014695397534,430155,387636,281582,1301
1783770812856139820,2026-07-11T18:53:32.856+07:00,837086014695397534,430238,387732,281626,1325
1783770812874321638,2026-07-11T18:53:32.874+07:00,837086014695397534,430252,387769,281569,1305
1783770812892503456,2026-07-11T18:53:32.892+07:00,837086014695397534,430211,387704,281549,1270
1783770812910685274,2026-07-11T18:53:32.910+07:00,837086014695397534,430057,387525,281455,1338
1783770812928867092,2026-07-11T18:53:32.928+07:00,837086014695397534,429844,387434,281349,1349
1783770812947048910,2026-07-11T18:53:32.947+07:00,837086014695397534,429653,387325,281212,1288
1783770812965230728,2026-07-11T18:53:32.965+07:00,837086014695397534,429540,387229,281080,1340
1783770812983412546,2026-07-11T18:53:32.983+07:00,837086014695397534,429386,387202,281113,1340
1783770813001594364,2026-07-11T18:53:33.001+07:00,837086014695397534,429327,387187,281111,1289
1783770813019776182,2026-07-11T18:53:33.019+07:00,837086014695397534,429377,387151,281149,1328
1783770813037958000,2026-07-11T18:53:33.037+07:00,837086014695397534,429371,387171,281157,1303
1783770813056139818,2026-07-11T18:53:33.056+07:00,837086014695397534,429508,387284,281268,1387
1783770813074321636,2026-07-11T18:53:33.074+07:00,837086014695397534,429535,387396,281315,1349
1783770813092503454,2026-07-11T18:53:33.092+07:00,837086014695397534,429695,387482,281336,1348
1783770813110685272,2026-07-11T18:53:33.110+07:00,837086014695397534,429825,387592,281437,1353
1783770813128867090,2026-07-11T18:53:33.128+07:00,837086014695397534,429988,387678,281540,1367
1783770813147048908,2026-07-11T18:53:33.147+07:00,837086014695397534,430133,387768,281645,1337
1783770813165230726,2026-07-11T18:53:33.165+07:00,837086014695397534,430204,387921,281716,1372
1783770813183412544,2026-07-11T18:53:33.183+07:00,837086014695397534,430330,387952,281839,1359
1783770813201594362,2026-07-11T18:53:33.201+07:00,837086015459772724,430331,388035,281780,1266
1783770813219776180,2026-07-11T18:53:33.219+07:00,837086015459772724,430505,388075,281829,1340
1783770813237957998,2026-07-11T18:53:33.237+07:00,837086015459772724,430602,388233,281978,1362
1783770813256139816,2026-07-11T18:53:33.256+07:00,837086015459772724,430714,388316,281992,1339
1783770813274321634,2026-07-11T18:53:33.274+07:00,837086015459772724,430812,388411,281999,1359
1783770813292503452,2026-07-11T18:53:33.292+07:00,837086015459772724,430949,388484,282140,1360
1783770813310685270,2026-07-11T18:53:33.310+07:00,837086015459772724,431017,388576,282272,1371
1783770813328867088,2026-07-11T18:53:33.328+07:00,837086015459772724,430953,388518,282115,1388
1783770813347048906,2026-07-11T18:53:33.347+07:00,837086015459772724,430753,388416,282023,1382
1783770813365230724,2026-07-11T18:53:33.365+07:00,837086015459772724,430621,388340,281931,1385
1783770813383412542,2026-07-11T18:53:33.383+07:00,837086015459772724,430454,388150,281768,1429
1783770813401594360,2026-07-11T18:53:33.401+07:00,837086015459772724,430214,388048,281677,1390
1783770813419776178,2026-07-11T18:53:33.419+07:00,837086015459772724,430038,387888,281576,1344
1783770813437957996,2026-07-11T18:53:33.437+07:00,837086015459772724,429941,387921,281527,1343
1783770813456139814,2026-07-11T18:53:33.456+07:00,837086015459772724,429855,387833,281498,1345
1783770813474321632,2026-07-11T18:53:33.474+07:00,837086015459772724,429851,387850,281523,1315
1783770813492503450,2026-07-11T18:53:33.492+07:00,837086015459772724,429904,387848,281544,1362
1783770813510685268,2026-07-11T18:53:33.510+07:00,837086015459772724,429933,387904,281566,1383
1783770813528867086,2026-07-11T18:53:33.528+07:00,837086015459772724,429944,387921,281623,1362
1783770813547048904,2026-07-11T18:53:33.547+07:00,837086015459772724,430085,388031,281790,1341
1783770813565230722,2026-07-11T18:53:33.565+07:00,837086015459772724,430168,388094,281863,1418
1783770813583412540,2026-07-11T18:53:33.583+07:00,837086015459772724,430248,388214,281801,1336
1783770813601594358,2026-07-11T18:53:33.601+07:00,837086015459772724,430407,388311,281903,1388
1783770813619776176,2026-07-11T18:53:33.619+07:00,837086015459772724,430476,388360,281921,1344
1783770813637957994,2026-07-11T18:53:33.637+07:00,837086015459772724,430629,388449,282018,1356
1783770813656139812,2026-07-11T18:53:33.656+07:00,837086015459772724,430726,388501,282070,1343
1783770813674321630,2026-07-11T18:53:33.674+07:00,837086015459772724,430825,388519,282166,1382
1783770813692503448,2026-07-11T18:53:33.692+07:00,837086015459772724,430932,388613,282180,1384
1783770813710685266,2026-07-11T18:53:33.710+07:00,837086015459772724,430962,388744,282283,1360
1783770813728867084,2026-07-11T18:53:33.728+07:00,837086015459772724,431091,388844,282312,1348
1783770813747048902,2026-07-11T18:53:33.747+07:00,837086015459772724,431193,388903,282322,1299
1783770813765230720,2026-07-11T18:53:33.765+07:00,837086015459772724,431217,388946,282419,1331
1783770813783412538,2026-07-11T18:53:33.783+07:00,837086015459772724,431165,388901,282252,1347
1783770813801594356,2026-07-11T18:53:33.801+07:00,837086015459772724,430996,388728,282159,1332
1783770813819776174,2026-07-11T18:53:33.819+07:00,837086015459772724,430742,388659,282018,1318
1783770813837957992,2026-07-11T18:53:33.837+07:00,837086015459772724,430565,388424,281907,1305
1783770813856139810,2026-07-11T18:53:33.856+07:00,837086015459772724,430322,388269,281774,1326
1783770813874321628,2026-07-11T18:53:33.874+07:00,837086015459772724,430088,388254,281674,1308
1783770813892503446,2026-07-11T18:53:33.892+07:00,837086015459772724,430031,388158,281641,1385
1783770813910685264,2026-07-11T18:53:33.910+07:00,837086015459772724,429921,388041,281585,1370
1783770813928867082,2026-07-11T18:53:33.928+07:00,837086015459772724,429942,388081,281627,1357
1783770813947048900,2026-07-11T18:53:33.947+07:00,837086015459772724,429863,388137,281661,1362
1783770813965230718,2026-07-11T18:53:33.965+07:00,837086016224138758,429916,388166,281733,1365
1783770813983412536,2026-07-11T18:53:33.983+07:00,837086016224138758,429906,388166,281647,1315
1783770814001594354,2026-07-11T18:53:34.001+07:00,837086016224138758,430101,388299,281858,1384
1783770814019776172,2026-07-11T18:53:34.019+07:00,837086016224138758,430152,388342,281819,1357
1783770814037957990,2026-07-11T18:53:34.037+07:00,837086016224138758,430295,388399,281881,1368
1783770814056139808,2026-07-11T18:53:34.056+07:00,837086016224138758,430371,388485,281949,1308
1783770814074321626,2026-07-11T18:53:34.074+07:00,837086016224138758,430517,388547,282055,1359
1783770814092503444,2026-07-11T18:53:34.092+07:00,837086016224138758,430600,388625,282056,1345
1783770814110685262,2026-07-11T18:53:34.110+07:00,837086016224138758,430659,388776,282219,1430
1783770814128867080,2026-07-11T18:53:34.128+07:00,837086016224138758,430704,388776,282207,1356
1783770814147048898,2026-07-11T18:53:34.147+07:00,837086016224138758,430883,388855,282253,1392
1783770814165230716,2026-07-11T18:53:34.165+07:00,837086016224138758,430961,388987,282310,1342
1783770814183412534,2026-07-11T18:53:34.183+07:00,837086016224138758,431059,389045,282340,1395
1783770814201594352,2026-07-11T18:53:34.201+07:00,837086016224138758,431214,389127,282394,1320
1783770814219776170,2026-07-11T18:53:34.219+07:00,837086016224138758,431218,389135,282414,1331
1783770814237957988,2026-07-11T18:53:34.237+07:00,837086016224138758,431173,389107,282391,1374
1783770814256139806,2026-07-11T18:53:34.256+07:00,837086016224138758,430986,389020,282252,1360
1783770814274321624,2026-07-11T18:53:34.274+07:00,837086016224138758,430729,388796,282103,1380
1783770814292503442,2026-07-11T18:53:34.292+07:00,837086016224138758,430546,388695,281962,1396
1783770814310685260,2026-07-11T18:53:34.310+07:00,837086016224138758,430279,388484,281789,1365
1783770814328867078,2026-07-11T18:53:34.328+07:00,837086016224138758,430104,388377,281767,1332
1783770814347048896,2026-07-11T18:53:34.347+07:00,837086016224138758,429921,388248,281658,1321
1783770814365230714,2026-07-11T18:53:34.365+07:00,837086016224138758,429911,388263,281684,1362
1783770814383412532,2026-07-11T18:53:34.383+07:00,837086016224138758,429910,388318,281750,1368
1783770814401594350,2026-07-11T18:53:34.401+07:00,837086016224138758,429900,388338,281714,1370
1783770814419776168,2026-07-11T18:53:34.419+07:00,837086016224138758,429919,388318,281715,1356
1783770814437957986,2026-07-11T18:53:34.437+07:00,837086016224138758,430001,388339,281766,1368
1783770814456139804,2026-07-11T18:53:34.456+07:00,837086016224138758,430027,388412,281841,1368
1783770814474321622,2026-07-11T18:53:34.474+07:00,837086016224138758,430198,388511,281924,1358
1783770814492503440,2026-07-11T18:53:34.492+07:00,837086016224138758,430343,388572,281979,1391
1783770814510685258,2026-07-11T18:53:34.510+07:00,837086016224138758,430493,388735,282080,1330
1783770814528867076,2026-07-11T18:53:34.528+07:00,837086016224138758,430586,388798,282158,1340
1783770814547048894,2026-07-11T18:53:34.547+07:00,837086016224138758,430636,388864,282203,1287
1783770814565230712,2026-07-11T18:53:34.565+07:00,837086016224138758,430782,389045,282221,1309
1783770814583412530,2026-07-11T18:53:34.583+07:00,837086016224138758,430890,389064,282352,1331
1783770814601594348,2026-07-11T18:53:34.601+07:00,837086016224138758,430999,389169,282404,1342
1783770814619776166,2026-07-11T18:53:34.619+07:00,837086016224138758,431097,389238,282446,1334
1783770814637957984,2026-07-11T18:53:34.637+07:00,837086016224138758,431197,389330,282541,1383
1783770814656139802,2026-07-11T18:53:34.656+07:00,837086016224138758,431331,389430,282545,1405
1783770814674321620,2026-07-11T18:53:34.674+07:00,837086016224138758,431376,389456,282589,1366
1783770814692503438,2026-07-11T18:53:34.692+07:00,837086016224138758,431382,389418,282574,1427
1783770814710685256,2026-07-11T18:53:34.710+07:00,837086016224138758,431264,389355,282447,1403
1783770814728867074,2026-07-11T18:53:34.728+07:00,837086016988462068,431106,389236,282336,1437
1783770814747048892,2026-07-11T18:53:34.747+07:00,837086016988462068,430902,389120,282245,1375
1783770814765230710,2026-07-11T18:53:34.765+07:00,837086016988462068,430613,388899,282052,1365
1783770814783412528,2026-07-11T18:53:34.783+07:00,837086016988462068,430449,388830,281932,1406
1783770814801594346,2026-07-11T18:53:34.801+07:00,837086016988462068,430335,388800,281995,1369
1783770814819776164,2026-07-11T18:53:34.819+07:00,837086016988462068,430238,388693,281884,1306
1783770814837957982,2026-07-11T18:53:34.837+07:00,837086016988462068,430213,388709,281904,1366
1783770814856139800,2026-07-11T18:53:34.856+07:00,837086016988462068,430310,388748,281915,1379
1783770814874321618,2026-07-11T18:53:34.874+07:00,837086016988462068,430433,388780,282035,1439
1783770814892503436,2026-07-11T18:53:34.892+07:00,837086016988462068,430341,388841,282075,1393
1783770814910685254,2026-07-11T18:53:34.910+07:00,837086016988462068,430478,388930,282139,1308
1783770814928867072,2026-07-11T18:53:34.928+07:00,837086016988462068,430614,389048,282250,1372
1783770814947048890,2026-07-11T18:53:34.947+07:00,837086016988462068,430774,389139,282324,1386
1783770814965230708,2026-07-11T18:53:34.965+07:00,837086016988462068,430860,389289,282303,1409
1783770814983412526,2026-07-11T18:53:34.983+07:00,837086016988462068,430987,389317,282422,1377
1783770815001594344,2026-07-11T18:53:35.001+07:00,837086016988462068,431089,389366,282443,1348
1783770815019776162,2026-07-11T18:53:35.019+07:00,837086016988462068,431248,389491,282482,1331
1783770815037957980,2026-07-11T18:53:35.037+07:00,837086016988462068,431385,389544,282606,1307
1783770815056139798,2026-07-11T18:53:35.056+07:00,837086016988462068,431490,389694,282671,1282
1783770815074321616,2026-07-11T18:53:35.074+07:00,837086016988462068,431638,389767,282818,1351
1783770815092503434,2026-07-11T18:53:35.092+07:00,837086016988462068,431749,389910,282863,1375
1783770815110685252,2026-07-11T18:53:35.110+07:00,837086016988462068,431895,390043,282888,1397
1783770815128867070,2026-07-11T18:53:35.128+07:00,837086016988462068,431931,390038,282888,1353
1783770815147048888,2026-07-11T18:53:35.147+07:00,837086016988462068,432036,390054,282940,1369
1783770815165230706,2026-07-11T18:53:35.165+07:00,837086016988462068,431945,390056,282909,1406
1783770815183412524,2026-07-11T18:53:35.183+07:00,837086016988462068,431783,389926,282760,1389
1783770815201594342,2026-07-11T18:53:35.201+07:00,837086016988462068,431501,389722,282604,1315
1783770815219776160,2026-07-11T18:53:35.219+07:00,837086016988462068,431266,389599,282537,1357
1783770815237957978,2026-07-11T18:53:35.237+07:00,837086016988462068,431085,389514,282456,1374
1783770815256139796,2026-07-11T18:53:35.256+07:00,837086016988462068,430887,389392,282369,1358
1783770815274321614,2026-07-11T18:53:35.274+07:00,837086016988462068,430816,389268,282235,1313
1783770815292503432,2026-07-11T18:53:35.292+07:00,837086016988462068,430803,389264,282330,1354
1783770815310685250,2026-07-11T18:53:35.310+07:00,837086016988462068,430832,389282,282367,1354
1783770815328867068,2026-07-11T18:53:35.328+07:00,837086016988462068,430875,389289,282347,1349
1783770815347048886,2026-07-11T18:53:35.347+07:00,837086016988462068,430970,389421,282405,1386
1783770815365230704,2026-07-11T18:53:35.365+07:00,837086016988462068,431103,389519,282593,1376
1783770815383412522,2026-07-11T18:53:35.383+07:00,837086016988462068,431239,389576,282686,1374
1783770815401594340,2026-07-11T18:53:35.401+07:00,837086016988462068,431296,389698,282699,1309
1783770815419776158,2026-07-11T18:53:35.419+07:00,837086016988462068,431451,389781,282721,1333
1783770815437957976,2026-07-11T18:53:35.437+07:00,837086016988462068,431583,389922,282815,1353
1783770815456139794,2026-07-11T18:53:35.456+07:00,837086016988462068,431670,390017,282885,1352
1783770815474321612,2026-07-11T18:53:35.474+07:00,837086016988462068,431812,390095,282949,1390
1783770815492503430,2026-07-11T18:53:35.492+07:00,837086017752806740,431912,390222,283020,1334
1783770815510685248,2026-07-11T18:53:35.510+07:00,837086017752806740,432093,390272,283114,1359
1783770815528867066,2026-07-11T18:53:35.528+07:00,837086017752806740,432197,390359,283159,1371
1783770815547048884,2026-07-11T18:53:35.547+07:00,837086017752806740,432320,390503,283233,1401
1783770815565230702,2026-07-11T18:53:35.565+07:00,837086017752806740,432320,390533,283247,1360
1783770815583412520,2026-07-11T18:53:35.583+07:00,837086017752806740,432459,390601,283325,1403
1783770815601594338,2026-07-11T18:53:35.601+07:00,837086017752806740,432495,390571,283302,1345
1783770815619776156,2026-07-11T18:53:35.619+07:00,837086017752806740,432316,390427,283200,1304
1783770815637957974,2026-07-11T18:53:35.637+07:00,837086017752806740,432077,390334,283066,1327
1783770815656139792,2026-07-11T18:53:35.656+07:00,837086017752806740,431890,390210,282932,1414
1783770815674321610,2026-07-11T18:53:35.674+07:00,837086017752806740,431608,390019,282803,1357
1783770815692503428,2026-07-11T18:53:35.692+07:00,837086017752806740,431391,389768,282703,1370
1783770815710685246,2026-07-11T18:53:35.710+07:00,837086017752806740,431191,389632,282600,1343
1783770815728867064,2026-07-11T18:53:35.728+07:00,837086017752806740,431024,389579,282530,1349
1783770815747048882,2026-07-11T18:53:35.747+07:00,837086017752806740,430969,389487,282503,1264
1783770815765230700,2026-07-11T18:53:35.765+07:00,837086017752806740,430934,389508,282564,1307
1783770815783412518,2026-07-11T18:53:35.783+07:00,837086017752806740,430966,389532,282603,1291
1783770815801594336,2026-07-11T18:53:35.801+07:00,837086017752806740,431013,389517,282627,1286
1783770815819776154,2026-07-11T18:53:35.819+07:00,837086017752806740,431114,389580,282682,1336
1783770815837957972,2026-07-11T18:53:35.837+07:00,837086017752806740,431251,389691,282766,1326
1783770815856139790,2026-07-11T18:53:35.856+07:00,837086017752806740,431367,389779,282804,1319
1783770815874321608,2026-07-11T18:53:35.874+07:00,837086017752806740,431461,389856,282925,1315
1783770815892503426,2026-07-11T18:53:35.892+07:00,837086017752806740,431585,389954,282944,1296
1783770815910685244,2026-07-11T18:53:35.910+07:00,837086017752806740,431662,389923,283017,1309
1783770815928867062,2026-07-11T18:53:35.928+07:00,837086017752806740,431854,390121,283136,1384
1783770815947048880,2026-07-11T18:53:35.947+07:00,837086017752806740,431890,390128,283143,1330
1783770815965230698,2026-07-11T18:53:35.965+07:00,837086017752806740,431985,390128,283175,1351
1783770815983412516,2026-07-11T18:53:35.983+07:00,837086017752806740,432104,390292,283235,1338
1783770816001594334,2026-07-11T18:53:36.001+07:00,837086017752806740,432215,390356,283313,1342
1783770816019776152,2026-07-11T18:53:36.019+07:00,837086017752806740,432240,390370,283333,1313
1783770816037957970,2026-07-11T18:53:36.037+07:00,837086017752806740,432261,390413,283292,1316
1783770816056139788,2026-07-11T18:53:36.056+07:00,837086017752806740,432238,390433,283341,1366
1783770816074321606,2026-07-11T18:53:36.074+07:00,837086017752806740,432109,390295,283220,1323
1783770816092503424,2026-07-11T18:53:36.092+07:00,837086017752806740,431897,390046,283052,1339
1783770816110685242,2026-07-11T18:53:36.110+07:00,837086017752806740,431581,389888,282922,1360
1783770816128867060,2026-07-11T18:53:36.128+07:00,837086017752806740,431215,389645,282693,1318
1783770816147048878,2026-07-11T18:53:36.147+07:00,837086017752806740,431032,389429,282580,1336
1783770816165230696,2026-07-11T18:53:36.165+07:00,837086017752806740,430728,389248,282483,1349
1783770816183412514,2026-07-11T18:53:36.183+07:00,837086017752806740,430627,389111,282386,1288
1783770816201594332,2026-07-11T18:53:36.201+07:00,837086017752806740,430609,389057,282415,1323
1783770816219776150,2026-07-11T18:53:36.219+07:00,837086017752806740,430536,389044,282391,1330
1783770816237957968,2026-07-11T18:53:36.237+07:00,837086017752806740,430581,389067,282374,1373
1783770816256139786,2026-07-11T18:53:36.256+07:00,837086018517151412,430538,389114,282411,1307
1783770816274321604,2026-07-11T18:53:36.274+07:00,837086018517151412,430559,389131,282506,1294
1783770816292503422,2026-07-11T18:53:36.292+07:00,837086018517151412,430664,389190,282556,1288
1783770816310685240,2026-07-11T18:53:36.310+07:00,837086018517151412,430849,389210,282677,1327
1783770816328867058,2026-07-11T18:53:36.328+07:00,837086018517151412,430846,389328,282634,1292
1783770816347048876,2026-07-11T18:53:36.347+07:00,837086018517151412,430977,389341,282703,1309
1783770816365230694,2026-07-11T18:53:36.365+07:00,837086018517151412,431113,389476,282823,1371
1783770816383412512,2026-07-11T18:53:36.383+07:00,837086018517151412,431211,389530,282825,1343
1783770816401594330,2026-07-11T18:53:36.401+07:00,837086018517151412,431221,389581,282894,1337
1783770816419776148,2026-07-11T18:53:36.419+07:00,837086018517151412,431322,389612,282890,1299
1783770816437957966,2026-07-11T18:53:36.437+07:00,837086018517151412,431497,389728,282998,1391
1783770816456139784,2026-07-11T18:53:36.456+07:00,837086018517151412,431618,389809,283094,1342
1783770816474321602,2026-07-11T18:53:36.474+07:00,837086018517151412,431669,389773,283101,1311
1783770816492503420,2026-07-11T18:53:36.492+07:00,837086018517151412,431675,389789,283074,1309
1783770816510685238,2026-07-11T18:53:36.510+07:00,837086018517151412,431525,389733,283026,1283
1783770816528867056,2026-07-11T18:53:36.528+07:00,837086018517151412,431268,389489,282851,1308
1783770816547048874,2026-07-11T18:53:36.547+07:00,837086018517151412,430943,389308,282657,1290
1783770816565230692,2026-07-11T18:53:36.565+07:00,837086018517151412,430555,389040,282449,1292
1783770816583412510,2026-07-11T18:53:36.583+07:00,837086018517151412,430343,388797,282264,1285
1783770816601594328,2026-07-11T18:53:36.601+07:00,837086018517151412,430079,388609,282175,1308
1783770816619776146,2026-07-11T18:53:36.619+07:00,837086018517151412,429867,388407,282052,1269
1783770816637957964,2026-07-11T18:53:36.637+07:00,837086018517151412,429762,388336,282043,1344
1783770816656139782,2026-07-11T18:53:36.656+07:00,837086018517151412,429657,388231,281947,1299
1783770816674321600,2026-07-11T18:53:36.674+07:00,837086018517151412,429592,388198,281923,1276
1783770816692503418,2026-07-11T18:53:36.692+07:00,837086018517151412,429594,388212,281932,1298
1783770816710685236,2026-07-11T18:53:36.710+07:00,837086018517151412,429637,388264,282006,1293
1783770816728867054,2026-07-11T18:53:36.728+07:00,837086018517151412,429719,388266,282128,1292
1783770816747048872,2026-07-11T18:53:36.747+07:00,837086018517151412,429755,388351,282139,1293
1783770816765230690,2026-07-11T18:53:36.765+07:00,837086018517151412,429914,388444,282220,1317
1783770816783412508,2026-07-11T18:53:36.783+07:00,837086018517151412,430026,388472,282288,1294
1783770816801594326,2026-07-11T18:53:36.801+07:00,837086018517151412,430149,388577,282326,1290
1783770816819776144,2026-07-11T18:53:36.819+07:00,837086018517151412,430252,388710,282457,1371
1783770816837957962,2026-07-11T18:53:36.837+07:00,837086018517151412,430331,388782,282461,1356
1783770816856139780,2026-07-11T18:53:36.856+07:00,837086018517151412,430459,388818,282416,1311
1783770816874321598,2026-07-11T18:53:36.874+07:00,837086018517151412,430542,388979,282640,1330
1783770816892503416,2026-07-11T18:53:36.892+07:00,837086018517151412,430686,389081,282685,1310
1783770816910685234,2026-07-11T18:53:36.910+07:00,837086018517151412,430825,389151,282760,1315
1783770816928867052,2026-07-11T18:53:36.928+07:00,837086018517151412,430904,389275,282803,1287
1783770816947048870,2026-07-11T18:53:36.947+07:00,837086018517151412,430935,389215,282763,1322
1783770816965230688,2026-07-11T18:53:36.965+07:00,837086018517151412,430834,389193,282742,1340
1783770816983412506,2026-07-11T18:53:36.983+07:00,837086018517151412,430646,388992,282595,1322
1783770817001594324,2026-07-11T18:53:37.001+07:00,837086018517151412,430414,388783,282427,1349
1783770817019776142,2026-07-11T18:53:37.019+07:00,837086019281526602,430165,388583,282234,1376
1783770817037957960,2026-07-11T18:53:37.037+07:00,837086019281526602,429770,388316,282022,1318
1783770817056139778,2026-07-11T18:53:37.056+07:00,837086019281526602,429520,388157,281926,1377
1783770817074321596,2026-07-11T18:53:37.074+07:00,837086019281526602,429289,387938,281841,1292
1783770817092503414,2026-07-11T18:53:37.092+07:00,837086019281526602,429234,387868,281762,1310
1783770817110685232,2026-07-11T18:53:37.110+07:00,837086019281526602,429130,387807,281743,1326
1783770817128867050,2026-07-11T18:53:37.128+07:00,837086019281526602,429136,387792,281778,1343
1783770817147048868,2026-07-11T18:53:37.147+07:00,837086019281526602,429150,387789,281844,1334
1783770817165230686,2026-07-11T18:53:37.165+07:00,837086019281526602,429167,387838,281858,1313
1783770817183412504,2026-07-11T18:53:37.183+07:00,837086019281526602,429272,387923,281869,1331
1783770817201594322,2026-07-11T18:53:37.201+07:00,837086019281526602,429390,388050,281913,1305
1783770817219776140,2026-07-11T18:53:37.219+07:00,837086019281526602,429551,388152,282029,1301
1783770817237957958,2026-07-11T18:53:37.237+07:00,837086019281526602,429628,388258,282120,1277
1783770817256139776,2026-07-11T18:53:37.256+07:00,837086019281526602,429751,388371,282213,1316
1783770817274321594,2026-07-11T18:53:37.274+07:00,837086019281526602,429925,388503,282304,1341
1783770817292503412,2026-07-11T18:53:37.292+07:00,837086019281526602,430009,388604,282297,1267
1783770817310685230,2026-07-11T18:53:37.310+07:00,837086019281526602,430128,388674,282411,1290
1783770817328867048,2026-07-11T18:53:37.328+07:00,837086019281526602,430209,388741,282463,1228
1783770817347048866,2026-07-11T18:53:37.347+07:00,837086019281526602,430381,388876,282507,1305
1783770817365230684,2026-07-11T18:53:37.365+07:00,837086019281526602,430518,388976,282578,1250
1783770817383412502,2026-07-11T18:53:37.383+07:00,837086019281526602,430713,389166,282677,1293
1783770817401594320,2026-07-11T18:53:37.401+07:00,837086019281526602,430692,389120,282646,1325
1783770817419776138,2026-07-11T18:53:37.419+07:00,837086019281526602,430614,389046,282526,1348
1783770817437957956,2026-07-11T18:53:37.437+07:00,837086019281526602,430328,388877,282421,1303
1783770817456139774,2026-07-11T18:53:37.456+07:00,837086019281526602,429985,388675,282214,1300
1783770817474321592,2026-07-11T18:53:37.474+07:00,837086019281526602,429740,388483,282096,1277
1783770817492503410,2026-07-11T18:53:37.492+07:00,837086019281526602,429539,388301,281926,1313
1783770817510685228,2026-07-11T18:53:37.510+07:00,837086019281526602,429321,388135,281892,1353
1783770817528867046,2026-07-11T18:53:37.528+07:00,837086019281526602,429153,388010,281750,1275
1783770817547048864,2026-07-11T18:53:37.547+07:00,837086019281526602,429021,388008,281742,1248
1783770817565230682,2026-07-11T18:53:37.565+07:00,837086019281526602,429013,388006,281723,1311
1783770817583412500,2026-07-11T18:53:37.583+07:00,837086019281526602,429075,388066,281801,1350
1783770817601594318,2026-07-11T18:53:37.601+07:00,837086019281526602,429099,388116,281795,1311
1783770817619776136,2026-07-11T18:53:37.619+07:00,837086019281526602,429204,388168,281839,1311
1783770817637957954,2026-07-11T18:53:37.637+07:00,837086019281526602,429254,388253,281931,1320
1783770817656139772,2026-07-11T18:53:37.656+07:00,837086019281526602,429404,388369,281998,1317
1783770817674321590,2026-07-11T18:53:37.674+07:00,837086019281526602,429568,388486,282132,1383
1783770817692503408,2026-07-11T18:53:37.692+07:00,837086019281526602,429606,388533,282142,1317
1783770817710685226,2026-07-11T18:53:37.710+07:00,837086019281526602,429697,388591,282224,1375
1783770817728867044,2026-07-11T18:53:37.728+07:00,837086019281526602,429816,388630,282276,1341
1783770817747048862,2026-07-11T18:53:37.747+07:00,837086019281526602,429798,388671,282282,1299
1783770817765230680,2026-07-11T18:53:37.765+07:00,837086019281526602,429834,388711,282304,1324
1783770817783412498,2026-07-11T18:53:37.783+07:00,837086020045877376,429934,388668,282247,1307
1783770817801594316,2026-07-11T18:53:37.801+07:00,837086020045877376,430012,388713,282370,1327
1783770817819776134,2026-07-11T18:53:37.819+07:00,837086020045877376,430073,388673,282389,1376
1783770817837957952,2026-07-11T18:53:37.837+07:00,837086020045877376,430083,388638,282396,1300
1783770817856139770,2026-07-11T18:53:37.856+07:00,837086020045877376,430055,388619,282378,1328
1783770817874321588,2026-07-11T18:53:37.874+07:00,837086020045877376,429917,388411,282186,1348
1783770817892503406,2026-07-11T18:53:37.892+07:00,837086020045877376,429625,388127,281999,1319
1783770817910685224,2026-07-11T18:53:37.910+07:00,837086020045877376,429258,387905,281747,1309
1783770817928867042,2026-07-11T18:53:37.928+07:00,837086020045877376,428905,387745,281569,1354
1783770817947048860,2026-07-11T18:53:37.947+07:00,837086020045877376,428619,387500,281379,1299
1783770817965230678,2026-07-11T18:53:37.965+07:00,837086020045877376,428305,387298,281259,1325
1783770817983412496,2026-07-11T18:53:37.983+07:00,837086020045877376,428111,387169,281228,1328
1783770818001594314,2026-07-11T18:53:38.001+07:00,837086020045877376,428035,387089,281179,1336
1783770818019776132,2026-07-11T18:53:38.019+07:00,837086020045877376,428002,387079,281195,1342
1783770818037957950,2026-07-11T18:53:38.037+07:00,837086020045877376,428049,387100,281245,1367
1783770818056139768,2026-07-11T18:53:38.056+07:00,837086020045877376,428029,387092,281242,1356
1783770818074321586,2026-07-11T18:53:38.074+07:00,837086020045877376,428072,387123,281173,1316
1783770818092503404,2026-07-11T18:53:38.092+07:00,837086020045877376,428111,387179,281248,1321
1783770818110685222,2026-07-11T18:53:38.110+07:00,837086020045877376,428181,387212,281236,1305
1783770818128867040,2026-07-11T18:53:38.128+07:00,837086020045877376,428329,387379,281405,1347
1783770818147048858,2026-07-11T18:53:38.147+07:00,837086020045877376,428445,387481,281453,1359
1783770818165230676,2026-07-11T18:53:38.165+07:00,837086020045877376,428445,387464,281491,1301
1783770818183412494,2026-07-11T18:53:38.183+07:00,837086020045877376,428611,387496,281463,1380
1783770818201594312,2026-07-11T18:53:38.201+07:00,837086020045877376,428668,387525,281491,1418
1783770818219776130,2026-07-11T18:53:38.219+07:00,837086020045877376,428680,387595,281538,1387
1783770818237957948,2026-07-11T18:53:38.237+07:00,837086020045877376,428713,387571,281471,1343
1783770818256139766,2026-07-11T18:53:38.256+07:00,837086020045877376,428790,387626,281500,1313
1783770818274321584,2026-07-11T18:53:38.274+07:00,837086020045877376,428800,387553,281487,1361
1783770818292503402,2026-07-11T18:53:38.292+07:00,837086020045877376,428774,387445,281505,1332
1783770818310685220,2026-07-11T18:53:38.310+07:00,837086020045877376,428645,387306,281338,1359
1783770818328867038,2026-07-11T18:53:38.328+07:00,837086020045877376,428347,387018,281201,1326
1783770818347048856,2026-07-11T18:53:38.347+07:00,837086020045877376,428065,386813,280970,1315
1783770818365230674,2026-07-11T18:53:38.365+07:00,837086020045877376,427566,386327,280653,1308
1783770818383412492,2026-07-11T18:53:38.383+07:00,837086020045877376,427166,386007,280478,1377
1783770818401594310,2026-07-11T18:53:38.401+07:00,837086020045877376,426878,385691,280254,1382
1783770818419776128,2026-07-11T18:53:38.419+07:00,837086020045877376,426508,385347,280082,1306
1783770818437957946,2026-07-11T18:53:38.437+07:00,837086020045877376,426342,385210,279939,1352
1783770818456139764,2026-07-11T18:53:38.456+07:00,837086020045877376,426133,385109,279867,1368
1783770818474321582,2026-07-11T18:53:38.474+07:00,837086020045877376,426077,385057,279802,1322
1783770818492503400,2026-07-11T18:53:38.492+07:00,837086020045877376,425982,384941,279744,1300
1783770818510685218,2026-07-11T18:53:38.510+07:00,837086020045877376,426002,384947,279728,1359
1783770818528867036,2026-07-11T18:53:38.528+07:00,837086020045877376,426067,384982,279812,1289
1783770818547048854,2026-07-11T18:53:38.547+07:00,837086020810218996,426184,384985,279894,1348
1783770818565230672,2026-07-11T18:53:38.565+07:00,837086020810218996,426244,384978,279853,1281
1783770818583412490,2026-07-11T18:53:38.583+07:00,837086020810218996,426313,384945,279869,1273
1783770818601594308,2026-07-11T18:53:38.601+07:00,837086020810218996,426410,385036,279928,1307
1783770818619776126,2026-07-11T18:53:38.619+07:00,837086020810218996,426477,384984,279932,1277
1783770818637957944,2026-07-11T18:53:38.637+07:00,837086020810218996,426520,385068,279900,1259
1783770818656139762,2026-07-11T18:53:38.656+07:00,837086020810218996,426596,385113,279981,1313
1783770818674321580,2026-07-11T18:53:38.674+07:00,837086020810218996,426696,385224,279976,1340
1783770818692503398,2026-07-11T18:53:38.692+07:00,837086020810218996,426875,385320,280084,1345
1783770818710685216,2026-07-11T18:53:38.710+07:00,837086020810218996,426942,385347,280111,1344
1783770818728867034,2026-07-11T18:53:38.728+07:00,837086020810218996,426980,385344,280113,1288
1783770818747048852,2026-07-11T18:53:38.747+07:00,837086020810218996,427111,385345,280176,1304
1783770818765230670,2026-07-11T18:53:38.765+07:00,837086020810218996,426996,385335,280058,1344
1783770818783412488,2026-07-11T18:53:38.783+07:00,837086020810218996,426830,385183,279910,1360
1783770818801594306,2026-07-11T18:53:38.801+07:00,837086020810218996,426598,384987,279702,1397
1783770818819776124,2026-07-11T18:53:38.819+07:00,837086020810218996,426302,384760,279491,1353
1783770818837957942,2026-07-11T18:53:38.837+07:00,837086020810218996,426027,384503,279286,1389
1783770818856139760,2026-07-11T18:53:38.856+07:00,837086020810218996,425707,384307,279121,1384
1783770818874321578,2026-07-11T18:53:38.874+07:00,837086020810218996,425433,384177,279010,1347
1783770818892503396,2026-07-11T18:53:38.892+07:00,837086020810218996,425349,384008,278939,1348
1783770818910685214,2026-07-11T18:53:38.910+07:00,837086020810218996,425235,383950,278891,1338
1783770818928867032,2026-07-11T18:53:38.928+07:00,837086020810218996,425181,383932,278835,1324
1783770818947048850,2026-07-11T18:53:38.947+07:00,837086020810218996,425219,383965,278828,1267
1783770818965230668,2026-07-11T18:53:38.965+07:00,837086020810218996,425313,384065,278905,1360
1783770818983412486,2026-07-11T18:53:38.983+07:00,837086020810218996,425424,384170,278939,1340
1783770819001594304,2026-07-11T18:53:39.001+07:00,837086020810218996,425614,384266,279040,1333
1783770819019776122,2026-07-11T18:53:39.019+07:00,837086020810218996,425753,384376,279129,1406
1783770819037957940,2026-07-11T18:53:39.037+07:00,837086020810218996,425934,384538,279091,1300
1783770819056139758,2026-07-11T18:53:39.056+07:00,837086020810218996,426150,384725,279222,1308
1783770819074321576,2026-07-11T18:53:39.074+07:00,837086020810218996,426280,384874,279351,1366
1783770819092503394,2026-07-11T18:53:39.092+07:00,837086020810218996,426461,385086,279428,1388
1783770819110685212,2026-07-11T18:53:39.110+07:00,837086020810218996,426605,385222,279506,1345
1783770819128867030,2026-07-11T18:53:39.128+07:00,837086020810218996,426823,385434,279579,1335
1783770819147048848,2026-07-11T18:53:39.147+07:00,837086020810218996,426994,385606,279702,1370
1783770819165230666,2026-07-11T18:53:39.165+07:00,837086020810218996,427123,385742,279801,1293
1783770819183412484,2026-07-11T18:53:39.183+07:00,837086020810218996,427326,385938,279895,1382
1783770819201594302,2026-07-11T18:53:39.201+07:00,837086020810218996,427475,385953,279924,1328
1783770819219776120,2026-07-11T18:53:39.219+07:00,837086020810218996,427410,386032,279851,1314
1783770819237957938,2026-07-11T18:53:39.237+07:00,837086020810218996,427299,385976,279702,1284
1783770819256139756,2026-07-11T18:53:39.256+07:00,837086020810218996,427100,385912,279645,1338
1783770819274321574,2026-07-11T18:53:39.274+07:00,837086020810218996,426826,385785,279459,1367
1783770819292503392,2026-07-11T18:53:39.292+07:00,837086020810218996,426611,385588,279364,1349
1783770819310685210,2026-07-11T18:53:39.310+07:00,837086021574530106,426479,385573,279249,1317
1783770819328867028,2026-07-11T18:53:39.328+07:00,837086021574530106,426303,385502,279194,1340
1783770819347048846,2026-07-11T18:53:39.347+07:00,837086021574530106,426280,385559,279203,1376
1783770819365230664,2026-07-11T18:53:39.365+07:00,837086021574530106,426241,385540,279166,1292
1783770819383412482,2026-07-11T18:53:39.383+07:00,837086021574530106,426367,385676,279244,1376
1783770819401594300,2026-07-11T18:53:39.401+07:00,837086021574530106,426427,385650,279311,1359
1783770819419776118,2026-07-11T18:53:39.419+07:00,837086021574530106,426497,385886,279385,1340
1783770819437957936,2026-07-11T18:53:39.437+07:00,837086021574530106,426562,385894,279446,1280
1783770819456139754,2026-07-11T18:53:39.456+07:00,837086021574530106,426735,386036,279555,1302
1783770819474321572,2026-07-11T18:53:39.474+07:00,837086021574530106,426954,386178,279707,1356
1783770819492503390,2026-07-11T18:53:39.492+07:00,837086021574530106,427079,386331,279748,1319
1783770819510685208,2026-07-11T18:53:39.510+07:00,837086021574530106,427155,386434,279825,1269
1783770819528867026,2026-07-11T18:53:39.528+07:00,837086021574530106,427298,386552,279951,1307
1783770819547048844,2026-07-11T18:53:39.547+07:00,837086021574530106,427532,386719,280101,1316
1783770819565230662,2026-07-11T18:53:39.565+07:00,837086021574530106,427691,386827,280049,1355
1783770819583412480,2026-07-11T18:53:39.583+07:00,837086021574530106,427848,386951,280196,1377
1783770819601594298,2026-07-11T18:53:39.601+07:00,837086021574530106,427968,386987,280227,1356
1783770819619776116,2026-07-11T18:53:39.619+07:00,837086021574530106,428129,387149,280297,1308
1783770819637957934,2026-07-11T18:53:39.637+07:00,837086021574530106,428260,387261,280389,1300
1783770819656139752,2026-07-11T18:53:39.656+07:00,837086021574530106,428193,387241,280323,1330
1783770819674321570,2026-07-11T18:53:39.674+07:00,837086021574530106,427999,387133,280194,1302
1783770819692503388,2026-07-11T18:53:39.692+07:00,837086021574530106,427718,386934,280005,1305
1783770819710685206,2026-07-11T18:53:39.710+07:00,837086021574530106,427504,386809,279950,1374
1783770819728867024,2026-07-11T18:53:39.728+07:00,837086021574530106,427225,386716,279794,1382
1783770819747048842,2026-07-11T18:53:39.747+07:00,837086021574530106,426958,386480,279659,1287
1783770819765230660,2026-07-11T18:53:39.765+07:00,837086021574530106,426864,386373,279574,1327
1783770819783412478,2026-07-11T18:53:39.783+07:00,837086021574530106,426758,386341,279546,1360
1783770819801594296,2026-07-11T18:53:39.801+07:00,837086021574530106,426659,386307,279514,1384
1783770819819776114,2026-07-11T18:53:39.819+07:00,837086021574530106,426647,386305,279546,1367
1783770819837957932,2026-07-11T18:53:39.837+07:00,837086021574530106,426681,386368,279538,1347
1783770819856139750,2026-07-11T18:53:39.856+07:00,837086021574530106,426724,386426,279566,1349
1783770819874321568,2026-07-11T18:53:39.874+07:00,837086021574530106,426811,386468,279643,1339
1783770819892503386,2026-07-11T18:53:39.892+07:00,837086021574530106,426931,386512,279701,1347
1783770819910685204,2026-07-11T18:53:39.910+07:00,837086021574530106,427091,386620,279775,1362
1783770819928867022,2026-07-11T18:53:39.928+07:00,837086021574530106,427217,386706,279771,1273
1783770819947048840,2026-07-11T18:53:39.947+07:00,837086021574530106,427340,386765,279880,1304
1783770819965230658,2026-07-11T18:53:39.965+07:00,837086021574530106,427441,386835,279933,1360
1783770819983412476,2026-07-11T18:53:39.983+07:00,837086021574530106,427486,386926,279998,1344
1783770820001594294,2026-07-11T18:53:40.001+07:00,837086021574530106,427597,387090,280066,1300
1783770820019776112,2026-07-11T18:53:40.019+07:00,837086021574530106,427688,387076,280109,1292
1783770820037957930,2026-07-11T18:53:40.037+07:00,837086021574530106,427815,387087,280107,1327
1783770820056139748,2026-07-11T18:53:40.056+07:00,837086021574530106,427970,387261,280223,1348
1783770820074321566,2026-07-11T18:53:40.074+07:00,837086022338932762,427838,387247,280133,1293
1783770820092503384,2026-07-11T18:53:40.092+07:00,837086022338932762,427780,387157,280105,1330
