host_timestamp_ns,host_timestamp_iso,pmd_timestamp,ppg0,ppg1,ppg2,ambient
1784138276807909300,2026-07-16T00:57:56.807+07:00,837453477612382319,375252,470950,446408,172719
1784138276826091118,2026-07-16T00:57:56.826+07:00,837453477612382319,375259,470926,446421,172764
1784138276844272936,2026-07-16T00:57:56.844+07:00,837453477612382319,375258,470985,446482,172714
1784138276862454754,2026-07-16T00:57:56.862+07:00,837453477612382319,375331,471063,446515,172725
1784138276880636572,2026-07-16T00:57:56.880+07:00,837453477612382319,375342,471101,446581,172701
1784138276898818390,2026-07-16T00:57:56.898+07:00,837453477612382319,375376,471149,446587,172707
1784138276917000208,2026-07-16T00:57:56.917+07:00,837453477612382319,375350,471134,446531,172673
1784138276935182026,2026-07-16T00:57:56.935+07:00,837453477612382319,375435,471209,446608,172753
1784138276953363844,2026-07-16T00:57:56.953+07:00,837453477612382319,375501,471315,446623,172764
1784138276971545662,2026-07-16T00:57:56.971+07:00,837453477612382319,375412,471343,446636,172691
1784138276989727480,2026-07-16T00:57:56.989+07:00,837453477612382319,375415,471296,446699,172716
1784138277007909298,2026-07-16T00:57:57.007+07:00,837453477612382319,375443,471434,446765,172706
1784138277026091116,2026-07-16T00:57:57.026+07:00,837453477612382319,375465,471585,446777,172702
1784138277044272934,2026-07-16T00:57:57.044+07:00,837453477612382319,375535,471539,446802,172745
1784138277062454752,2026-07-16T00:57:57.062+07:00,837453477612382319,375546,471616,446879,172698
1784138277080636570,2026-07-16T00:57:57.080+07:00,837453477612382319,375603,471701,446914,172702
1784138277098818388,2026-07-16T00:57:57.098+07:00,837453477612382319,375685,471747,447067,172734
1784138277117000206,2026-07-16T00:57:57.117+07:00,837453477612382319,375675,471769,447041,172673
1784138277135182024,2026-07-16T00:57:57.135+07:00,837453477612382319,375694,471868,447113,172724
1784138277153363842,2026-07-16T00:57:57.153+07:00,837453477612382319,375744,471950,447232,172714
1784138277171545660,2026-07-16T00:57:57.171+07:00,837453477612382319,375855,472034,447239,172767
1784138277189727478,2026-07-16T00:57:57.189+07:00,837453477612382319,375843,472114,447261,172714
1784138277207909296,2026-07-16T00:57:57.207+07:00,837453477612382319,375830,472138,447304,172761
1784138277226091114,2026-07-16T00:57:57.226+07:00,837453477612382319,375876,472158,447354,172764
1784138277244272932,2026-07-16T00:57:57.244+07:00,837453477612382319,375956,472313,447388,172743
1784138277262454750,2026-07-16T00:57:57.262+07:00,837453477612382319,375961,472349,447441,172689
1784138277280636568,2026-07-16T00:57:57.280+07:00,837453477612382319,376036,472464,447573,172746
1784138277298818386,2026-07-16T00:57:57.298+07:00,837453477612382319,376061,472494,447645,172737
1784138277317000204,2026-07-16T00:57:57.317+07:00,837453477612382319,376094,472588,447749,172727
1784138277335182022,2026-07-16T00:57:57.335+07:00,837453477612382319,376177,472708,447829,172751
1784138277353363840,2026-07-16T00:57:57.353+07:00,837453477612382319,376211,472792,447868,172677
1784138277371545658,2026-07-16T00:57:57.371+07:00,837453477612382319,376199,472875,447869,172690
1784138277389727476,2026-07-16T00:57:57.389+07:00,837453477612382319,376361,472992,447948,172759
1784138277407909294,2026-07-16T00:57:57.407+07:00,837453477612382319,376322,473082,448028,172759
1784138277426091112,2026-07-16T00:57:57.426+07:00,837453477612382319,376381,473146,448051,172768
1784138277444272930,2026-07-16T00:57:57.444+07:00,837453477612382319,376413,473160,448047,172740
1784138277462454748,2026-07-16T00:57:57.462+07:00,837453477612382319,376390,473045,448033,172772
1784138277480636566,2026-07-16T00:57:57.480+07:00,837453477612382319,376404,473086,448023,172754
1784138277498818384,2026-07-16T00:57:57.498+07:00,837453477612382319,376349,473013,447941,172710
1784138277517000202,2026-07-16T00:57:57.517+07:00,837453477612382319,376313,472900,447851,172733
1784138277535182020,2026-07-16T00:57:57.535+07:00,837453477612382319,376162,472808,447815,172717
1784138277553363838,2026-07-16T00:57:57.553+07:00,837453477612382319,376131,472742,447842,172697
1784138277571545656,2026-07-16T00:57:57.571+07:00,837453477612382319,376075,472724,447760,172738
1784138277589727474,2026-07-16T00:57:57.589+07:00,837453478485764749,376110,472676,447733,172748
1784138277607909292,2026-07-16T00:57:57.607+07:00,837453478485764749,376067,472571,447663,172716
1784138277626091110,2026-07-16T00:57:57.626+07:00,837453478485764749,375979,472518,447611,172685
1784138277644272928,2026-07-16T00:57:57.644+07:00,837453478485764749,375969,472514,447600,172689
1784138277662454746,2026-07-16T00:57:57.662+07:00,837453478485764749,375942,472414,447541,172706
1784138277680636564,2026-07-16T00:57:57.680+07:00,837453478485764749,375898,472415,447523,172729
1784138277698818382,2026-07-16T00:57:57.698+07:00,837453478485764749,375863,472495,447535,172763
1784138277717000200,2026-07-16T00:57:57.717+07:00,837453478485764749,375839,472516,447420,172704
1784138277735182018,2026-07-16T00:57:57.735+07:00,837453478485764749,375886,472456,447470,172784
1784138277753363836,2026-07-16T00:57:57.753+07:00,837453478485764749,375762,472403,447409,172730
1784138277771545654,2026-07-16T00:57:57.771+07:00,837453478485764749,375799,472382,447389,172716
1784138277789727472,2026-07-16T00:57:57.789+07:00,837453478485764749,375815,472372,447412,172791
1784138277807909290,2026-07-16T00:57:57.807+07:00,837453478485764749,375742,472339,447332,172747
1784138277826091108,2026-07-16T00:57:57.826+07:00,837453478485764749,375775,472353,447345,172766
1784138277844272926,2026-07-16T00:57:57.844+07:00,837453478485764749,375691,472298,447308,172678
1784138277862454744,2026-07-16T00:57:57.862+07:00,837453478485764749,375720,472320,447350,172723
1784138277880636562,2026-07-16T00:57:57.880+07:00,837453478485764749,375671,472385,447347,172752
1784138277898818380,2026-07-16T00:57:57.898+07:00,837453478485764749,375704,472446,447415,172768
1784138277917000198,2026-07-16T00:57:57.917+07:00,837453478485764749,375731,472475,447390,172762
1784138277935182016,2026-07-16T00:57:57.935+07:00,837453478485764749,375719,472435,447366,172707
1784138277953363834,2026-07-16T00:57:57.953+07:00,837453478485764749,375738,472504,447414,172732
1784138277971545652,2026-07-16T00:57:57.971+07:00,837453478485764749,375738,472576,447488,172767
1784138277989727470,2026-07-16T00:57:57.989+07:00,837453478485764749,375797,472602,447417,172709
1784138278007909288,2026-07-16T00:57:58.007+07:00,837453478485764749,375811,472682,447513,172710
1784138278026091106,2026-07-16T00:57:58.026+07:00,837453478485764749,375768,472717,447453,172725
1784138278044272924,2026-07-16T00:57:58.044+07:00,837453478485764749,375822,472779,447476,172687
1784138278062454742,2026-07-16T00:57:58.062+07:00,837453478485764749,375864,472787,447458,172714
1784138278080636560,2026-07-16T00:57:58.080+07:00,837453478485764749,375832,472802,447447,172725
1784138278098818378,2026-07-16T00:57:58.098+07:00,837453478485764749,375803,472874,447426,172710
1784138278117000196,2026-07-16T00:57:58.117+07:00,837453478485764749,375824,472939,447479,172761
1784138278135182014,2026-07-16T00:57:58.135+07:00,837453478485764749,375858,473010,447461,172707
1784138278153363832,2026-07-16T00:57:58.153+07:00,837453478485764749,375829,472981,447504,172741
1784138278171545650,2026-07-16T00:57:58.171+07:00,837453478485764749,375778,473036,447397,172726
1784138278189727468,2026-07-16T00:57:58.189+07:00,837453478485764749,375769,473030,447349,172709
1784138278207909286,2026-07-16T00:57:58.207+07:00,837453478485764749,375781,473089,447325,172715
1784138278226091104,2026-07-16T00:57:58.226+07:00,837453478485764749,375801,473121,447350,172731
1784138278244272922,2026-07-16T00:57:58.244+07:00,837453478485764749,375794,473215,447328,172764
1784138278262454740,2026-07-16T00:57:58.262+07:00,837453478485764749,375747,473179,447205,172696
1784138278280636558,2026-07-16T00:57:58.280+07:00,837453478485764749,375792,473231,447235,172737
1784138278298818376,2026-07-16T00:57:58.298+07:00,837453478485764749,375781,473238,447265,172759
1784138278317000194,2026-07-16T00:57:58.317+07:00,837453478485764749,375821,473323,447276,172691
1784138278335182012,2026-07-16T00:57:58.335+07:00,837453478485764749,375864,473418,447245,172713
1784138278353363830,2026-07-16T00:57:58.353+07:00,837453478485764749,375854,473462,447257,172696
1784138278371545648,2026-07-16T00:57:58.371+07:00,837453478485764749,375848,473645,447330,172738
1784138278389727466,2026-07-16T00:57:58.389+07:00,837453478485764749,375863,473648,447212,172694
1784138278407909284,2026-07-16T00:57:58.407+07:00,837453478485764749,375864,473687,447175,172780
1784138278426091102,2026-07-16T00:57:58.426+07:00,837453478485764749,375833,473693,447080,172700
1784138278444272920,2026-07-16T00:57:58.444+07:00,837453478485764749,375786,473694,447092,172730
1784138278462454738,2026-07-16T00:57:58.462+07:00,837453479249947675,375790,473793,447025,172760
1784138278480636556,2026-07-16T00:57:58.480+07:00,837453479249947675,375747,473742,446889,172737
1784138278498818374,2026-07-16T00:57:58.498+07:00,837453479249947675,375673,473697,446806,172728
1784138278517000192,2026-07-16T00:57:58.517+07:00,837453479249947675,375559,473528,446597,172732
1784138278535182010,2026-07-16T00:57:58.535+07:00,837453479249947675,375395,473501,446450,172703
1784138278553363828,2026-07-16T00:57:58.553+07:00,837453479249947675,375280,473413,446317,172668
1784138278571545646,2026-07-16T00:57:58.571+07:00,837453479249947675,375156,473399,446158,172726
1784138278589727464,2026-07-16T00:57:58.589+07:00,837453479249947675,375107,473301,446032,172742
1784138278607909282,2026-07-16T00:57:58.607+07:00,837453479249947675,374922,473148,445805,172718
1784138278626091100,2026-07-16T00:57:58.626+07:00,837453479249947675,374805,473079,445658,172658
1784138278644272918,2026-07-16T00:57:58.644+07:00,837453479249947675,374778,472991,445533,172745
1784138278662454736,2026-07-16T00:57:58.662+07:00,837453479249947675,374633,472857,445367,172720
1784138278680636554,2026-07-16T00:57:58.680+07:00,837453479249947675,374570,472952,445310,172700
1784138278698818372,2026-07-16T00:57:58.698+07:00,837453479249947675,374485,472930,445165,172711
1784138278717000190,2026-07-16T00:57:58.717+07:00,837453479249947675,374412,472823,444962,172712
1784138278735182008,2026-07-16T00:57:58.735+07:00,837453479249947675,374323,472767,444720,172724
1784138278753363826,2026-07-16T00:57:58.753+07:00,837453479249947675,374116,472571,444388,172726
1784138278771545644,2026-07-16T00:57:58.771+07:00,837453479249947675,374018,472462,444104,172680
1784138278789727462,2026-07-16T00:57:58.789+07:00,837453479249947675,373894,472316,443880,172752
1784138278807909280,2026-07-16T00:57:58.807+07:00,837453479249947675,373841,472214,443640,172714
1784138278826091098,2026-07-16T00:57:58.826+07:00,837453479249947675,373817,472147,443420,172711
1784138278844272916,2026-07-16T00:57:58.844+07:00,837453479249947675,373758,472093,443239,172717
1784138278862454734,2026-07-16T00:57:58.862+07:00,837453479249947675,373790,472074,443187,172760
1784138278880636552,2026-07-16T00:57:58.880+07:00,837453479249947675,373721,472096,442998,172702
1784138278898818370,2026-07-16T00:57:58.898+07:00,837453479249947675,373693,472034,442920,172727
1784138278917000188,2026-07-16T00:57:58.917+07:00,837453479249947675,373737,472007,442846,172742
1784138278935182006,2026-07-16T00:57:58.935+07:00,837453479249947675,373717,471976,442754,172706
1784138278953363824,2026-07-16T00:57:58.953+07:00,837453479249947675,373669,471889,442515,172709
1784138278971545642,2026-07-16T00:57:58.971+07:00,837453479249947675,373677,471904,442456,172741
1784138278989727460,2026-07-16T00:57:58.989+07:00,837453479249947675,373686,471809,442354,172763
1784138279007909278,2026-07-16T00:57:59.007+07:00,837453479249947675,373741,471818,442299,172679
1784138279026091096,2026-07-16T00:57:59.026+07:00,837453479249947675,373812,471882,442364,172731
1784138279044272914,2026-07-16T00:57:59.044+07:00,837453479249947675,373875,471985,442379,172692
1784138279062454732,2026-07-16T00:57:59.062+07:00,837453479249947675,374028,472113,442458,172719
1784138279080636550,2026-07-16T00:57:59.080+07:00,837453479249947675,374149,472336,442643,172712
1784138279098818368,2026-07-16T00:57:59.098+07:00,837453479249947675,374436,472552,442881,172813
1784138279117000186,2026-07-16T00:57:59.117+07:00,837453479249947675,374615,472851,443045,172711
1784138279135182004,2026-07-16T00:57:59.135+07:00,837453479249947675,374850,473102,443302,172687
1784138279153363822,2026-07-16T00:57:59.153+07:00,837453479249947675,375041,473425,443602,172740
1784138279171545640,2026-07-16T00:57:59.171+07:00,837453479249947675,375166,473623,443764,172713
1784138279189727458,2026-07-16T00:57:59.189+07:00,837453479249947675,375371,473882,443973,172710
1784138279207909276,2026-07-16T00:57:59.207+07:00,837453479249947675,375411,474014,444072,172729
1784138279226091094,2026-07-16T00:57:59.226+07:00,837453480014130601,375548,474238,444220,172651
1784138279244272912,2026-07-16T00:57:59.244+07:00,837453480014130601,375687,474520,444468,172726
1784138279262454730,2026-07-16T00:57:59.262+07:00,837453480014130601,375827,474909,444738,172754
1784138279280636548,2026-07-16T00:57:59.280+07:00,837453480014130601,375921,475177,444843,172736
1784138279298818366,2026-07-16T00:57:59.298+07:00,837453480014130601,375941,475505,445080,172748
1784138279317000184,2026-07-16T00:57:59.317+07:00,837453480014130601,375997,475788,445273,172748
1784138279335182002,2026-07-16T00:57:59.335+07:00,837453480014130601,376019,475905,445388,172777
1784138279353363820,2026-07-16T00:57:59.353+07:00,837453480014130601,375977,476048,445484,172717
1784138279371545638,2026-07-16T00:57:59.371+07:00,837453480014130601,375950,476158,445468,172761
1784138279389727456,2026-07-16T00:57:59.389+07:00,837453480014130601,375858,476168,445508,172737
1784138279407909274,2026-07-16T00:57:59.407+07:00,837453480014130601,375725,476020,445477,172737
1784138279426091092,2026-07-16T00:57:59.426+07:00,837453480014130601,375668,476061,445487,172771
1784138279444272910,2026-07-16T00:57:59.444+07:00,837453480014130601,375587,475952,445507,172742
1784138279462454728,2026-07-16T00:57:59.462+07:00,837453480014130601,375489,475885,445546,172745
1784138279480636546,2026-07-16T00:57:59.480+07:00,837453480014130601,375428,475846,445519,172753
1784138279498818364,2026-07-16T00:57:59.498+07:00,837453480014130601,375331,475740,445470,172768
1784138279517000182,2026-07-16T00:57:59.517+07:00,837453480014130601,375192,475528,445425,172702
1784138279535182000,2026-07-16T00:57:59.535+07:00,837453480014130601,375045,475363,445291,172769
1784138279553363818,2026-07-16T00:57:59.553+07:00,837453480014130601,374919,475200,445267,172783
1784138279571545636,2026-07-16T00:57:59.571+07:00,837453480014130601,374844,475065,445126,172745
1784138279589727454,2026-07-16T00:57:59.589+07:00,837453480014130601,374747,474969,444979,172719
1784138279607909272,2026-07-16T00:57:59.607+07:00,837453480014130601,374628,474818,444873,172701
1784138279626091090,2026-07-16T00:57:59.626+07:00,837453480014130601,374497,474644,444710,172720
1784138279644272908,2026-07-16T00:57:59.644+07:00,837453480014130601,374416,474492,444548,172753
1784138279662454726,2026-07-16T00:57:59.662+07:00,837453480014130601,374311,474379,444516,172734
1784138279680636544,2026-07-16T00:57:59.680+07:00,837453480014130601,374284,474274,444485,172753
1784138279698818362,2026-07-16T00:57:59.698+07:00,837453480014130601,374225,474226,444499,172727
1784138279717000180,2026-07-16T00:57:59.717+07:00,837453480014130601,374199,474150,444452,172693
1784138279735181998,2026-07-16T00:57:59.735+07:00,837453480014130601,374215,474181,444497,172725
1784138279753363816,2026-07-16T00:57:59.753+07:00,837453480014130601,374239,474260,444513,172747
1784138279771545634,2026-07-16T00:57:59.771+07:00,837453480014130601,374335,474247,444674,172662
1784138279789727452,2026-07-16T00:57:59.789+07:00,837453480014130601,374461,474321,444747,172709
1784138279807909270,2026-07-16T00:57:59.807+07:00,837453480014130601,374515,474378,444851,172685
1784138279826091088,2026-07-16T00:57:59.826+07:00,837453480014130601,374604,474485,444959,172692
1784138279844272906,2026-07-16T00:57:59.844+07:00,837453480014130601,374763,474550,445096,172672
1784138279862454724,2026-07-16T00:57:59.862+07:00,837453480014130601,374767,474574,445146,172681
1784138279880636542,2026-07-16T00:57:59.880+07:00,837453480014130601,374855,474703,445282,172706
1784138279898818360,2026-07-16T00:57:59.898+07:00,837453480014130601,374890,474769,445258,172694
1784138279917000178,2026-07-16T00:57:59.917+07:00,837453480014130601,374898,474777,445348,172749
1784138279935181996,2026-07-16T00:57:59.935+07:00,837453480014130601,374923,474871,445451,172711
1784138279953363814,2026-07-16T00:57:59.953+07:00,837453480014130601,374936,474840,445350,172723
1784138279971545632,2026-07-16T00:57:59.971+07:00,837453480014130601,374942,474834,445311,172768
1784138279989727450,2026-07-16T00:57:59.989+07:00,837453480778339469,374925,474798,445371,172716
1784138280007909268,2026-07-16T00:58:00.007+07:00,837453480778339469,374928,474902,445319,172777
1784138280026091086,2026-07-16T00:58:00.026+07:00,837453480778339469,374924,474825,445307,172733
1784138280044272904,2026-07-16T00:58:00.044+07:00,837453480778339469,374929,474691,445205,172689
1784138280062454722,2026-07-16T00:58:00.062+07:00,837453480778339469,374857,474684,445116,172744
1784138280080636540,2026-07-16T00:58:00.080+07:00,837453480778339469,374732,474620,445025,172725
1784138280098818358,2026-07-16T00:58:00.098+07:00,837453480778339469,374753,474564,445018,172776
1784138280117000176,2026-07-16T00:58:00.117+07:00,837453480778339469,374670,474518,444842,172716
1784138280135181994,2026-07-16T00:58:00.135+07:00,837453480778339469,374642,474420,444717,172734
1784138280153363812,2026-07-16T00:58:00.153+07:00,837453480778339469,374628,474429,444685,172755
1784138280171545630,2026-07-16T00:58:00.171+07:00,837453480778339469,374529,474390,444620,172736
1784138280189727448,2026-07-16T00:58:00.189+07:00,837453480778339469,374351,474317,444499,172716
1784138280207909266,2026-07-16T00:58:00.207+07:00,837453480778339469,374271,474410,444434,172716
1784138280226091084,2026-07-16T00:58:00.226+07:00,837453480778339469,374109,474229,444325,172742
1784138280244272902,2026-07-16T00:58:00.244+07:00,837453480778339469,373981,474096,444211,172730
1784138280262454720,2026-07-16T00:58:00.262+07:00,837453480778339469,373799,473870,444025,172682
1784138280280636538,2026-07-16T00:58:00.280+07:00,837453480778339469,373647,473587,443819,172765
1784138280298818356,2026-07-16T00:58:00.298+07:00,837453480778339469,373356,473285,443542,172708
1784138280317000174,2026-07-16T00:58:00.317+07:00,837453480778339469,373089,473063,443205,172777
1784138280335181992,2026-07-16T00:58:00.335+07:00,837453480778339469,372855,472837,443024,172760
1784138280353363810,2026-07-16T00:58:00.353+07:00,837453480778339469,372598,472601,442780,172767
1784138280371545628,2026-07-16T00:58:00.371+07:00,837453480778339469,372369,472278,442612,172751
1784138280389727446,2026-07-16T00:58:00.389+07:00,837453480778339469,372106,471960,442382,172700
1784138280407909264,2026-07-16T00:58:00.407+07:00,837453480778339469,371935,471686,442178,172702
1784138280426091082,2026-07-16T00:58:00.426+07:00,837453480778339469,371831,471426,441992,172752
1784138280444272900,2026-07-16T00:58:00.444+07:00,837453480778339469,371631,471175,441731,172696
1784138280462454718,2026-07-16T00:58:00.462+07:00,837453480778339469,371571,470995,441581,172750
1784138280480636536,2026-07-16T00:58:00.480+07:00,837453480778339469,371506,470836,441438,172766
1784138280498818354,2026-07-16T00:58:00.498+07:00,837453480778339469,371485,470703,441358,172771
1784138280517000172,2026-07-16T00:58:00.517+07:00,837453480778339469,371369,470538,441169,172728
1784138280535181990,2026-07-16T00:58:00.535+07:00,837453480778339469,371302,470423,441185,172702
1784138280553363808,2026-07-16T00:58:00.553+07:00,837453480778339469,371232,470345,441119,172787
1784138280571545626,2026-07-16T00:58:00.571+07:00,837453480778339469,371171,470223,441027,172782
1784138280589727444,2026-07-16T00:58:00.589+07:00,837453480778339469,371134,470066,440884,172789
1784138280607909262,2026-07-16T00:58:00.607+07:00,837453480778339469,371053,469966,440752,172762
1784138280626091080,2026-07-16T00:58:00.626+07:00,837453480778339469,371025,469839,440650,172719
1784138280644272898,2026-07-16T00:58:00.644+07:00,837453480778339469,371022,469855,440616,172730
1784138280662454716,2026-07-16T00:58:00.662+07:00,837453480778339469,371157,469834,440709,172717
1784138280680636534,2026-07-16T00:58:00.680+07:00,837453480778339469,371126,469805,440850,172758
1784138280698818352,2026-07-16T00:58:00.698+07:00,837453480778339469,371060,469697,440973,172702
1784138280717000170,2026-07-16T00:58:00.717+07:00,837453480778339469,370837,469494,440902,172730
1784138280735181988,2026-07-16T00:58:00.735+07:00,837453480778339469,370803,469696,440951,172797
1784138280753363806,2026-07-16T00:58:00.753+07:00,837453481542526971,370805,470065,441028,172737
1784138280771545624,2026-07-16T00:58:00.771+07:00,837453481542526971,370781,470290,441022,172741
1784138280789727442,2026-07-16T00:58:00.789+07:00,837453481542526971,370729,470135,440988,172743
1784138280807909260,2026-07-16T00:58:00.807+07:00,837453481542526971,370610,469962,441057,172742
1784138280826091078,2026-07-16T00:58:00.826+07:00,837453481542526971,370603,469865,441044,172744
1784138280844272896,2026-07-16T00:58:00.844+07:00,837453481542526971,370683,469996,441122,172774
1784138280862454714,2026-07-16T00:58:00.862+07:00,837453481542526971,370601,470060,441293,172725
1784138280880636532,2026-07-16T00:58:00.880+07:00,837453481542526971,370445,470097,441386,172781
1784138280898818350,2026-07-16T00:58:00.898+07:00,837453481542526971,370284,470153,441543,172768
1784138280917000168,2026-07-16T00:58:00.917+07:00,837453481542526971,370108,470209,441628,172742
1784138280935181986,2026-07-16T00:58:00.935+07:00,837453481542526971,370005,470266,441720,172768
1784138280953363804,2026-07-16T00:58:00.953+07:00,837453481542526971,369925,470176,441782,172770
1784138280971545622,2026-07-16T00:58:00.971+07:00,837453481542526971,370053,469974,441738,172774
1784138280989727440,2026-07-16T00:58:00.989+07:00,837453481542526971,370116,469768,441666,172775
1784138281007909258,2026-07-16T00:58:01.007+07:00,837453481542526971,370316,469612,441570,172785
1784138281026091076,2026-07-16T00:58:01.026+07:00,837453481542526971,370608,469534,441619,172780
1784138281044272894,2026-07-16T00:58:01.044+07:00,837453481542526971,370820,469477,441625,172713
1784138281062454712,2026-07-16T00:58:01.062+07:00,837453481542526971,371148,469730,441861,172730
1784138281080636530,2026-07-16T00:58:01.080+07:00,837453481542526971,371419,470047,442036,172693
1784138281098818348,2026-07-16T00:58:01.098+07:00,837453481542526971,371566,470164,442225,172699
1784138281117000166,2026-07-16T00:58:01.117+07:00,837453481542526971,371672,470293,442357,172727
1784138281135181984,2026-07-16T00:58:01.135+07:00,837453481542526971,371732,470384,442380,172820
1784138281153363802,2026-07-16T00:58:01.153+07:00,837453481542526971,371640,470338,442342,172762
1784138281171545620,2026-07-16T00:58:01.171+07:00,837453481542526971,371624,470273,442347,172755
1784138281189727438,2026-07-16T00:58:01.189+07:00,837453481542526971,371608,470157,442261,172796
1784138281207909256,2026-07-16T00:58:01.207+07:00,837453481542526971,371575,470098,442219,172753
1784138281226091074,2026-07-16T00:58:01.226+07:00,837453481542526971,371565,470067,442294,172767
1784138281244272892,2026-07-16T00:58:01.244+07:00,837453481542526971,371555,469915,442278,172703
1784138281262454710,2026-07-16T00:58:01.262+07:00,837453481542526971,371549,470038,442457,172791
1784138281280636528,2026-07-16T00:58:01.280+07:00,837453481542526971,371606,470172,442602,172779
1784138281298818346,2026-07-16T00:58:01.298+07:00,837453481542526971,371855,470371,442954,172827
1784138281317000164,2026-07-16T00:58:01.317+07:00,837453481542526971,371758,470246,442973,172796
1784138281335181982,2026-07-16T00:58:01.335+07:00,837453481542526971,371875,470494,443019,172806
1784138281353363800,2026-07-16T00:58:01.353+07:00,837453481542526971,371992,470849,443107,172723
1784138281371545618,2026-07-16T00:58:01.371+07:00,837453481542526971,372138,471158,443198,172746
1784138281389727436,2026-07-16T00:58:01.389+07:00,837453481542526971,372265,471317,443322,172826
1784138281407909254,2026-07-16T00:58:01.407+07:00,837453481542526971,372389,471592,443497,172750
1784138281426091072,2026-07-16T00:58:01.426+07:00,837453481542526971,372515,471819,443745,172805
1784138281444272890,2026-07-16T00:58:01.444+07:00,837453481542526971,372619,472063,444017,172841
1784138281462454708,2026-07-16T00:58:01.462+07:00,837453481542526971,372551,472201,444098,172760
1784138281480636526,2026-07-16T00:58:01.480+07:00,837453481542526971,372562,472309,444282,172769
1784138281498818344,2026-07-16T00:58:01.498+07:00,837453481542526971,372618,472574,444430,172750
1784138281517000162,2026-07-16T00:58:01.517+07:00,837453482288484560,372668,472636,444537,172795
1784138281535181980,2026-07-16T00:58:01.535+07:00,837453482288484560,372713,472721,444559,172742
1784138281553363798,2026-07-16T00:58:01.553+07:00,837453482288484560,372714,472733,444632,172769
1784138281571545616,2026-07-16T00:58:01.571+07:00,837453482288484560,372667,472676,444576,172735
1784138281589727434,2026-07-16T00:58:01.589+07:00,837453482288484560,372640,472668,444543,172805
1784138281607909252,2026-07-16T00:58:01.607+07:00,837453482288484560,372577,472623,444410,172751
1784138281626091070,2026-07-16T00:58:01.626+07:00,837453482288484560,372629,472601,444427,172772
1784138281644272888,2026-07-16T00:58:01.644+07:00,837453482288484560,372569,472665,444394,172762
1784138281662454706,2026-07-16T00:58:01.662+07:00,837453482288484560,372648,472656,444389,172761
1784138281680636524,2026-07-16T00:58:01.680+07:00,837453482288484560,372615,472670,444365,172803
1784138281698818342,2026-07-16T00:58:01.698+07:00,837453482288484560,372663,472629,444353,172785
1784138281717000160,2026-07-16T00:58:01.717+07:00,837453482288484560,372635,472584,444280,172769
1784138281735181978,2026-07-16T00:58:01.735+07:00,837453482288484560,372631,472649,444294,172771
1784138281753363796,2026-07-16T00:58:01.753+07:00,837453482288484560,372640,472682,444298,172775
1784138281771545614,2026-07-16T00:58:01.771+07:00,837453482288484560,372698,472688,444325,172789
1784138281789727432,2026-07-16T00:58:01.789+07:00,837453482288484560,372688,472775,444355,172772
1784138281807909250,2026-07-16T00:58:01.807+07:00,837453482288484560,372709,472758,444380,172748
1784138281826091068,2026-07-16T00:58:01.826+07:00,837453482288484560,372740,472780,444433,172769
1784138281844272886,2026-07-16T00:58:01.844+07:00,837453482288484560,372760,472811,444466,172785
1784138281862454704,2026-07-16T00:58:01.862+07:00,837453482288484560,372789,472851,444495,172732
1784138281880636522,2026-07-16T00:58:01.880+07:00,837453482288484560,372854,472908,444591,172723
1784138281898818340,2026-07-16T00:58:01.898+07:00,837453482288484560,372894,472980,444653,172741
1784138281917000158,2026-07-16T00:58:01.917+07:00,837453482288484560,372885,473081,444695,172757
1784138281935181976,2026-07-16T00:58:01.935+07:00,837453482288484560,372909,473045,444665,172769
1784138281953363794,2026-07-16T00:58:01.953+07:00,837453482288484560,372850,472982,444603,172719
1784138281971545612,2026-07-16T00:58:01.971+07:00,837453482288484560,372737,472868,444459,172770
1784138281989727430,2026-07-16T00:58:01.989+07:00,837453482288484560,372673,472669,444402,172765
1784138282007909248,2026-07-16T00:58:02.007+07:00,837453482288484560,372593,472539,444312,172742
1784138282026091066,2026-07-16T00:58:02.026+07:00,837453482288484560,372549,472458,444209,172710
1784138282044272884,2026-07-16T00:58:02.044+07:00,837453482288484560,372559,472370,444112,172700
1784138282062454702,2026-07-16T00:58:02.062+07:00,837453482288484560,372529,472338,444141,172796
1784138282080636520,2026-07-16T00:58:02.080+07:00,837453482288484560,372477,472270,444077,172754
1784138282098818338,2026-07-16T00:58:02.098+07:00,837453482288484560,372503,472298,444032,172719
1784138282117000156,2026-07-16T00:58:02.117+07:00,837453482288484560,372550,472264,444140,172817
1784138282135181974,2026-07-16T00:58:02.135+07:00,837453482288484560,372527,472314,444128,172798
1784138282153363792,2026-07-16T00:58:02.153+07:00,837453482288484560,372548,472351,444061,172720
1784138282171545610,2026-07-16T00:58:02.171+07:00,837453482288484560,372593,472394,444113,172760
1784138282189727428,2026-07-16T00:58:02.189+07:00,837453482288484560,372579,472372,444126,172736
1784138282207909246,2026-07-16T00:58:02.207+07:00,837453482288484560,372622,472375,444095,172751
1784138282226091064,2026-07-16T00:58:02.226+07:00,837453482288484560,372619,472362,444072,172780
1784138282244272882,2026-07-16T00:58:02.244+07:00,837453482288484560,372636,472358,444062,172791
1784138282262454700,2026-07-16T00:58:02.262+07:00,837453483198226134,372662,472449,444111,172749
1784138282280636518,2026-07-16T00:58:02.280+07:00,837453483198226134,372676,472420,444078,172753
1784138282298818336,2026-07-16T00:58:02.298+07:00,837453483198226134,372715,472495,444130,172819
1784138282317000154,2026-07-16T00:58:02.317+07:00,837453483198226134,372700,472448,444106,172701
1784138282335181972,2026-07-16T00:58:02.335+07:00,837453483198226134,372731,472433,444125,172792
1784138282353363790,2026-07-16T00:58:02.353+07:00,837453483198226134,372778,472464,444117,172794
1784138282371545608,2026-07-16T00:58:02.371+07:00,837453483198226134,372844,472567,444201,172763
1784138282389727426,2026-07-16T00:58:02.389+07:00,837453483198226134,372836,472643,444172,172813
1784138282407909244,2026-07-16T00:58:02.407+07:00,837453483198226134,372758,472569,444177,172733
1784138282426091062,2026-07-16T00:58:02.426+07:00,837453483198226134,372803,472674,444181,172757
1784138282444272880,2026-07-16T00:58:02.444+07:00,837453483198226134,372902,472746,444247,172788
1784138282462454698,2026-07-16T00:58:02.462+07:00,837453483198226134,372919,472819,444254,172783
1784138282480636516,2026-07-16T00:58:02.480+07:00,837453483198226134,372997,472880,444298,172757
1784138282498818334,2026-07-16T00:58:02.498+07:00,837453483198226134,372939,472904,444302,172754
1784138282517000152,2026-07-16T00:58:02.517+07:00,837453483198226134,373066,472996,444384,172766
1784138282535181970,2026-07-16T00:58:02.535+07:00,837453483198226134,373108,473028,444448,172810
1784138282553363788,2026-07-16T00:58:02.553+07:00,837453483198226134,373180,473139,444487,172799
1784138282571545606,2026-07-16T00:58:02.571+07:00,837453483198226134,373237,473202,444570,172788
1784138282589727424,2026-07-16T00:58:02.589+07:00,837453483198226134,373244,473315,444624,172760
1784138282607909242,2026-07-16T00:58:02.607+07:00,837453483198226134,373260,473403,444652,172731
1784138282626091060,2026-07-16T00:58:02.626+07:00,837453483198226134,373305,473450,444725,172750
1784138282644272878,2026-07-16T00:58:02.644+07:00,837453483198226134,373384,473556,444821,172771
1784138282662454696,2026-07-16T00:58:02.662+07:00,837453483198226134,373351,473598,444861,172748
1784138282680636514,2026-07-16T00:58:02.680+07:00,837453483198226134,373355,473673,444826,172742
1784138282698818332,2026-07-16T00:58:02.698+07:00,837453483198226134,373362,473658,444827,172829
1784138282717000150,2026-07-16T00:58:02.717+07:00,837453483198226134,373363,473622,444804,172776
1784138282735181968,2026-07-16T00:58:02.735+07:00,837453483198226134,373354,473579,444740,172770
1784138282753363786,2026-07-16T00:58:02.753+07:00,837453483198226134,373301,473514,444665,172772
1784138282771545604,2026-07-16T00:58:02.771+07:00,837453483198226134,373250,473503,444670,172763
1784138282789727422,2026-07-16T00:58:02.789+07:00,837453483198226134,373211,473468,444608,172781
1784138282807909240,2026-07-16T00:58:02.807+07:00,837453483198226134,373215,473366,444603,172797
1784138282826091058,2026-07-16T00:58:02.826+07:00,837453483198226134,373229,473274,444534,172785
1784138282844272876,2026-07-16T00:58:02.844+07:00,837453483198226134,373180,473190,444533,172718
1784138282862454694,2026-07-16T00:58:02.862+07:00,837453483198226134,373131,473240,444450,172811
1784138282880636512,2026-07-16T00:58:02.880+07:00,837453483198226134,373102,473224,444415,172771
1784138282898818330,2026-07-16T00:58:02.898+07:00,837453483198226134,373117,473154,444385,172755
1784138282917000148,2026-07-16T00:58:02.917+07:00,837453483198226134,373103,473239,444413,172752
1784138282935181966,2026-07-16T00:58:02.935+07:00,837453483198226134,373120,473188,444407,172764
1784138282953363784,2026-07-16T00:58:02.953+07:00,837453483198226134,373216,473251,444452,172751
1784138282971545602,2026-07-16T00:58:02.971+07:00,837453483198226134,373170,473286,444438,172743
1784138282989727420,2026-07-16T00:58:02.989+07:00,837453483198226134,373119,473313,444428,172774
1784138283007909238,2026-07-16T00:58:03.007+07:00,837453483198226134,373229,473382,444461,172781
1784138283026091056,2026-07-16T00:58:03.026+07:00,837453483198226134,373185,473366,444481,172784
1784138283044272874,2026-07-16T00:58:03.044+07:00,837453483198226134,373213,473385,444476,172745
1784138283062454692,2026-07-16T00:58:03.062+07:00,837453483198226134,373257,473473,444543,172752
1784138283080636510,2026-07-16T00:58:03.080+07:00,837453483198226134,373274,473521,444548,172762
1784138283098818328,2026-07-16T00:58:03.098+07:00,837453483198226134,373276,473511,444533,172738
1784138283117000146,2026-07-16T00:58:03.117+07:00,837453483198226134,373304,473565,444573,172775
1784138283135181964,2026-07-16T00:58:03.135+07:00,837453483198226134,373324,473669,444657,172769
1784138283153363782,2026-07-16T00:58:03.153+07:00,837453483198226134,373351,473732,444677,172729
1784138283171545600,2026-07-16T00:58:03.171+07:00,837453483980634409,373440,473878,444797,172768
1784138283189727418,2026-07-16T00:58:03.189+07:00,837453483980634409,373484,473954,444815,172747
1784138283207909236,2026-07-16T00:58:03.207+07:00,837453483980634409,373459,474016,444826,172717
1784138283226091054,2026-07-16T00:58:03.226+07:00,837453483980634409,373544,474133,444916,172777
1784138283244272872,2026-07-16T00:58:03.244+07:00,837453483980634409,373629,474177,445026,172824
1784138283262454690,2026-07-16T00:58:03.262+07:00,837453483980634409,373686,474262,445033,172779
1784138283280636508,2026-07-16T00:58:03.280+07:00,837453483980634409,373705,474300,445100,172728
1784138283298818326,2026-07-16T00:58:03.298+07:00,837453483980634409,373766,474391,445145,172726
1784138283317000144,2026-07-16T00:58:03.317+07:00,837453483980634409,373751,474487,445151,172713
1784138283335181962,2026-07-16T00:58:03.335+07:00,837453483980634409,373870,474528,445231,172699
1784138283353363780,2026-07-16T00:58:03.353+07:00,837453483980634409,373981,474709,445351,172783
1784138283371545598,2026-07-16T00:58:03.371+07:00,837453483980634409,374000,474774,445399,172721
1784138283389727416,2026-07-16T00:58:03.389+07:00,837453483980634409,373976,474920,445406,172734
1784138283407909234,2026-07-16T00:58:03.407+07:00,837453483980634409,374114,475090,445583,172762
1784138283426091052,2026-07-16T00:58:03.426+07:00,837453483980634409,374135,475106,445631,172742
1784138283444272870,2026-07-16T00:58:03.444+07:00,837453483980634409,374187,475208,445666,172791
1784138283462454688,2026-07-16T00:58:03.462+07:00,837453483980634409,374201,475217,445651,172746
1784138283480636506,2026-07-16T00:58:03.480+07:00,837453483980634409,374211,475209,445653,172724
1784138283498818324,2026-07-16T00:58:03.498+07:00,837453483980634409,374270,475254,445692,172805
1784138283517000142,2026-07-16T00:58:03.517+07:00,837453483980634409,374227,475229,445660,172779
1784138283535181960,2026-07-16T00:58:03.535+07:00,837453483980634409,374289,475307,445757,172820
1784138283553363778,2026-07-16T00:58:03.553+07:00,837453483980634409,374262,475324,445749,172761
1784138283571545596,2026-07-16T00:58:03.571+07:00,837453483980634409,374262,475266,445770,172703
1784138283589727414,2026-07-16T00:58:03.589+07:00,837453483980634409,374295,475349,445833,172711
1784138283607909232,2026-07-16T00:58:03.607+07:00,837453483980634409,374311,475339,445826,172727
1784138283626091050,2026-07-16T00:58:03.626+07:00,837453483980634409,374374,475480,445911,172753
1784138283644272868,2026-07-16T00:58:03.644+07:00,837453483980634409,374450,475469,445960,172789
1784138283662454686,2026-07-16T00:58:03.662+07:00,837453483980634409,374363,475540,445988,172753
1784138283680636504,2026-07-16T00:58:03.680+07:00,837453483980634409,374499,475634,446033,172768
1784138283698818322,2026-07-16T00:58:03.698+07:00,837453483980634409,374522,475681,446152,172764
1784138283717000140,2026-07-16T00:58:03.717+07:00,837453483980634409,374568,475753,446194,172801
1784138283735181958,2026-07-16T00:58:03.735+07:00,837453483980634409,374641,475865,446263,172791
1784138283753363776,2026-07-16T00:58:03.753+07:00,837453483980634409,374681,475961,446281,172768
1784138283771545594,2026-07-16T00:58:03.771+07:00,837453483980634409,374721,476095,446367,172795
1784138283789727412,2026-07-16T00:58:03.789+07:00,837453483980634409,374754,476131,446412,172809
1784138283807909230,2026-07-16T00:58:03.807+07:00,837453483980634409,374772,476258,446504,172725
1784138283826091048,2026-07-16T00:58:03.826+07:00,837453483980634409,374840,476364,446613,172716
1784138283844272866,2026-07-16T00:58:03.844+07:00,837453483980634409,374910,476455,446693,172769
1784138283862454684,2026-07-16T00:58:03.862+07:00,837453483980634409,375018,476546,446788,172830
1784138283880636502,2026-07-16T00:58:03.880+07:00,837453483980634409,375073,476636,446824,172767
1784138283898818320,2026-07-16T00:58:03.898+07:00,837453483980634409,375131,476824,446975,172803
1784138283917000138,2026-07-16T00:58:03.917+07:00,837453483980634409,375133,476892,447006,172783
1784138283935181956,2026-07-16T00:58:03.935+07:00,837453483980634409,375245,477002,447139,172776
1784138283953363774,2026-07-16T00:58:03.953+07:00,837453484744817335,375273,477081,447217,172758
1784138283971545592,2026-07-16T00:58:03.971+07:00,837453484744817335,375355,477284,447289,172768
1784138283989727410,2026-07-16T00:58:03.989+07:00,837453484744817335,375414,477303,447422,172729
1784138284007909228,2026-07-16T00:58:04.007+07:00,837453484744817335,375438,477460,447478,172735
1784138284026091046,2026-07-16T00:58:04.026+07:00,837453484744817335,375515,477549,447549,172772
1784138284044272864,2026-07-16T00:58:04.044+07:00,837453484744817335,375628,477690,447576,172782
1784138284062454682,2026-07-16T00:58:04.062+07:00,837453484744817335,375710,477888,447712,172771
1784138284080636500,2026-07-16T00:58:04.080+07:00,837453484744817335,375776,478000,447786,172789
1784138284098818318,2026-07-16T00:58:04.098+07:00,837453484744817335,375845,478123,447867,172800
1784138284117000136,2026-07-16T00:58:04.117+07:00,837453484744817335,375886,478280,447976,172785
1784138284135181954,2026-07-16T00:58:04.135+07:00,837453484744817335,375976,478345,448088,172830
1784138284153363772,2026-07-16T00:58:04.153+07:00,837453484744817335,376003,478447,448161,172784
1784138284171545590,2026-07-16T00:58:04.171+07:00,837453484744817335,376059,478507,448254,172771
1784138284189727408,2026-07-16T00:58:04.189+07:00,837453484744817335,376188,478633,448356,172787
1784138284207909226,2026-07-16T00:58:04.207+07:00,837453484744817335,376194,478733,448376,172741
1784138284226091044,2026-07-16T00:58:04.226+07:00,837453484744817335,376191,478802,448356,172710
1784138284244272862,2026-07-16T00:58:04.244+07:00,837453484744817335,376230,478900,448471,172746
1784138284262454680,2026-07-16T00:58:04.262+07:00,837453484744817335,376269,478924,448531,172787
1784138284280636498,2026-07-16T00:58:04.280+07:00,837453484744817335,376282,478911,448465,172708
1784138284298818316,2026-07-16T00:58:04.298+07:00,837453484744817335,376328,479000,448517,172743
1784138284317000134,2026-07-16T00:58:04.317+07:00,837453484744817335,376302,479049,448600,172786
1784138284335181952,2026-07-16T00:58:04.335+07:00,837453484744817335,376315,479066,448626,172734
1784138284353363770,2026-07-16T00:58:04.353+07:00,837453484744817335,376403,479135,448673,172771
1784138284371545588,2026-07-16T00:58:04.371+07:00,837453484744817335,376420,479135,448739,172796
1784138284389727406,2026-07-16T00:58:04.389+07:00,837453484744817335,376419,479161,448781,172792
1784138284407909224,2026-07-16T00:58:04.407+07:00,837453484744817335,376441,479255,448844,172787
1784138284426091042,2026-07-16T00:58:04.426+07:00,837453484744817335,376458,479309,448866,172742
1784138284444272860,2026-07-16T00:58:04.444+07:00,837453484744817335,376570,479402,448963,172712
1784138284462454678,2026-07-16T00:58:04.462+07:00,837453484744817335,376592,479486,449050,172676
1784138284480636496,2026-07-16T00:58:04.480+07:00,837453484744817335,376647,479541,449093,172758
1784138284498818314,2026-07-16T00:58:04.498+07:00,837453484744817335,376655,479679,449187,172796
1784138284517000132,2026-07-16T00:58:04.517+07:00,837453484744817335,376657,479714,449267,172788
1784138284535181950,2026-07-16T00:58:04.535+07:00,837453484744817335,376817,479829,449332,172770
1784138284553363768,2026-07-16T00:58:04.553+07:00,837453484744817335,376827,479885,449386,172816
1784138284571545586,2026-07-16T00:58:04.571+07:00,837453484744817335,376840,479995,449406,172791
1784138284589727404,2026-07-16T00:58:04.589+07:00,837453484744817335,376904,480083,449491,172803
1784138284607909222,2026-07-16T00:58:04.607+07:00,837453484744817335,376997,480174,449574,172797
1784138284626091040,2026-07-16T00:58:04.626+07:00,837453484744817335,377014,480253,449644,172757
1784138284644272858,2026-07-16T00:58:04.644+07:00,837453484744817335,377065,480407,449722,172786
1784138284662454676,2026-07-16T00:58:04.662+07:00,837453484744817335,377044,480518,449676,172777
1784138284680636494,2026-07-16T00:58:04.680+07:00,837453484744817335,377174,480560,449819,172781
1784138284698818312,2026-07-16T00:58:04.698+07:00,837453484744817335,377142,480672,449939,172791
1784138284717000130,2026-07-16T00:58:04.717+07:00,837453485509030779,377257,480763,450032,172812
1784138284735181948,2026-07-16T00:58:04.735+07:00,837453485509030779,377301,480834,450081,172798
1784138284753363766,2026-07-16T00:58:04.753+07:00,837453485509030779,377406,480948,450143,172793
1784138284771545584,2026-07-16T00:58:04.771+07:00,837453485509030779,377371,480977,450180,172769
1784138284789727402,2026-07-16T00:58:04.789+07:00,837453485509030779,377338,481071,450238,172738
1784138284807909220,2026-07-16T00:58:04.807+07:00,837453485509030779,377451,481198,450333,172743
1784138284826091038,2026-07-16T00:58:04.826+07:00,837453485509030779,377468,481221,450337,172743
1784138284844272856,2026-07-16T00:58:04.844+07:00,837453485509030779,377550,481362,450379,172784
1784138284862454674,2026-07-16T00:58:04.862+07:00,837453485509030779,377596,481441,450417,172784
1784138284880636492,2026-07-16T00:58:04.880+07:00,837453485509030779,377650,481562,450555,172794
1784138284898818310,2026-07-16T00:58:04.898+07:00,837453485509030779,377699,481691,450637,172778
1784138284917000128,2026-07-16T00:58:04.917+07:00,837453485509030779,377755,481742,450728,172817
1784138284935181946,2026-07-16T00:58:04.935+07:00,837453485509030779,377764,481877,450767,172761
1784138284953363764,2026-07-16T00:58:04.953+07:00,837453485509030779,377836,481938,450874,172785
1784138284971545582,2026-07-16T00:58:04.971+07:00,837453485509030779,377874,482040,450921,172786
1784138284989727400,2026-07-16T00:58:04.989+07:00,837453485509030779,377885,482077,450940,172810
1784138285007909218,2026-07-16T00:58:05.007+07:00,837453485509030779,377934,482167,450983,172791
1784138285026091036,2026-07-16T00:58:05.026+07:00,837453485509030779,377977,482140,450992,172880
1784138285044272854,2026-07-16T00:58:05.044+07:00,837453485509030779,377851,482104,450908,172766
1784138285062454672,2026-07-16T00:58:05.062+07:00,837453485509030779,377841,482086,450859,172810
1784138285080636490,2026-07-16T00:58:05.080+07:00,837453485509030779,377854,482087,450888,172742
1784138285098818308,2026-07-16T00:58:05.098+07:00,837453485509030779,377843,482055,450912,172781
1784138285117000126,2026-07-16T00:58:05.117+07:00,837453485509030779,377842,482016,450900,172793
1784138285135181944,2026-07-16T00:58:05.135+07:00,837453485509030779,377819,481993,450877,172788
1784138285153363762,2026-07-16T00:58:05.153+07:00,837453485509030779,377838,481991,450861,172831
1784138285171545580,2026-07-16T00:58:05.171+07:00,837453485509030779,377706,481989,450827,172767
1784138285189727398,2026-07-16T00:58:05.189+07:00,837453485509030779,377695,481930,450833,172764
1784138285207909216,2026-07-16T00:58:05.207+07:00,837453485509030779,377712,481955,450808,172752
1784138285226091034,2026-07-16T00:58:05.226+07:00,837453485509030779,377713,481993,450836,172803
1784138285244272852,2026-07-16T00:58:05.244+07:00,837453485509030779,377644,481953,450826,172806
1784138285262454670,2026-07-16T00:58:05.262+07:00,837453485509030779,377651,481944,450778,172734
1784138285280636488,2026-07-16T00:58:05.280+07:00,837453485509030779,377689,482005,450765,172782
1784138285298818306,2026-07-16T00:58:05.298+07:00,837453485509030779,377689,482019,450855,172749
1784138285317000124,2026-07-16T00:58:05.317+07:00,837453485509030779,377729,482079,450809,172783
1784138285335181942,2026-07-16T00:58:05.335+07:00,837453485509030779,377753,482022,450833,172781
1784138285353363760,2026-07-16T00:58:05.353+07:00,837453485509030779,377749,482123,450822,172832
1784138285371545578,2026-07-16T00:58:05.371+07:00,837453485509030779,377719,482108,450849,172791
1784138285389727396,2026-07-16T00:58:05.389+07:00,837453485509030779,377688,482093,450851,172752
1784138285407909214,2026-07-16T00:58:05.407+07:00,837453485509030779,377676,482123,450901,172741
1784138285426091032,2026-07-16T00:58:05.426+07:00,837453485509030779,377630,482124,450891,172753
1784138285444272850,2026-07-16T00:58:05.444+07:00,837453485509030779,377709,482203,450916,172817
1784138285462454668,2026-07-16T00:58:05.462+07:00,837453485509030779,377748,482220,450983,172746
1784138285480636486,2026-07-16T00:58:05.480+07:00,837453486291439066,377765,482262,451011,172763
1784138285498818304,2026-07-16T00:58:05.498+07:00,837453486291439066,377768,482289,450940,172786
1784138285517000122,2026-07-16T00:58:05.517+07:00,837453486291439066,377740,482375,451013,172760
1784138285535181940,2026-07-16T00:58:05.535+07:00,837453486291439066,377692,482335,451009,172727
1784138285553363758,2026-07-16T00:58:05.553+07:00,837453486291439066,377803,482456,451024,172779
1784138285571545576,2026-07-16T00:58:05.571+07:00,837453486291439066,377822,482501,451158,172781
1784138285589727394,2026-07-16T00:58:05.589+07:00,837453486291439066,377759,482589,451105,172779
1784138285607909212,2026-07-16T00:58:05.607+07:00,837453486291439066,377834,482604,451166,172777
1784138285626091030,2026-07-16T00:58:05.626+07:00,837453486291439066,377853,482660,451159,172805
1784138285644272848,2026-07-16T00:58:05.644+07:00,837453486291439066,377914,482711,451218,172830
1784138285662454666,2026-07-16T00:58:05.662+07:00,837453486291439066,377921,482774,451225,172814
1784138285680636484,2026-07-16T00:58:05.680+07:00,837453486291439066,377934,482809,451354,172793
1784138285698818302,2026-07-16T00:58:05.698+07:00,837453486291439066,377945,482787,451229,172817
1784138285717000120,2026-07-16T00:58:05.717+07:00,837453486291439066,377980,482893,451283,172796
1784138285735181938,2026-07-16T00:58:05.735+07:00,837453486291439066,378029,482910,451296,172782
1784138285753363756,2026-07-16T00:58:05.753+07:00,837453486291439066,377989,482929,451303,172737
1784138285771545574,2026-07-16T00:58:05.771+07:00,837453486291439066,377971,483006,451322,172765
1784138285789727392,2026-07-16T00:58:05.789+07:00,837453486291439066,378059,483035,451385,172824
1784138285807909210,2026-07-16T00:58:05.807+07:00,837453486291439066,378039,483026,451355,172837
1784138285826091028,2026-07-16T00:58:05.826+07:00,837453486291439066,377980,482956,451330,172762
1784138285844272846,2026-07-16T00:58:05.844+07:00,837453486291439066,377949,482921,451271,172754
1784138285862454664,2026-07-16T00:58:05.862+07:00,837453486291439066,377901,482888,451284,172772
1784138285880636482,2026-07-16T00:58:05.880+07:00,837453486291439066,377822,482770,451212,172749
1784138285898818300,2026-07-16T00:58:05.898+07:00,837453486291439066,377815,482776,451156,172804
1784138285917000118,2026-07-16T00:58:05.917+07:00,837453486291439066,377754,482670,451122,172745
1784138285935181936,2026-07-16T00:58:05.935+07:00,837453486291439066,377741,482623,451056,172783
1784138285953363754,2026-07-16T00:58:05.953+07:00,837453486291439066,377738,482646,451064,172798
1784138285971545572,2026-07-16T00:58:05.971+07:00,837453486291439066,377676,482556,450958,172794
1784138285989727390,2026-07-16T00:58:05.989+07:00,837453486291439066,377612,482446,450987,172824
1784138286007909208,2026-07-16T00:58:06.007+07:00,837453486291439066,377596,482434,450959,172799
1784138286026091026,2026-07-16T00:58:06.026+07:00,837453486291439066,377564,482357,450896,172778
1784138286044272844,2026-07-16T00:58:06.044+07:00,837453486291439066,377551,482367,450881,172748
1784138286062454662,2026-07-16T00:58:06.062+07:00,837453486291439066,377500,482324,450910,172783
1784138286080636480,2026-07-16T00:58:06.080+07:00,837453486291439066,377514,482264,450876,172697
1784138286098818298,2026-07-16T00:58:06.098+07:00,837453486291439066,377457,482271,450830,172718
1784138286117000116,2026-07-16T00:58:06.117+07:00,837453486291439066,377413,482258,450804,172745
1784138286135181934,2026-07-16T00:58:06.135+07:00,837453486291439066,377399,482250,450767,172701
1784138286153363752,2026-07-16T00:58:06.153+07:00,837453486291439066,377432,482340,450799,172745
1784138286171545570,2026-07-16T00:58:06.171+07:00,837453486291439066,377376,482208,450716,172746
1784138286189727388,2026-07-16T00:58:06.189+07:00,837453486291439066,377374,482290,450788,172776
1784138286207909206,2026-07-16T00:58:06.207+07:00,837453486291439066,377377,482259,450735,172770
1784138286226091024,2026-07-16T00:58:06.226+07:00,837453486291439066,377385,482261,450774,172799
1784138286244272842,2026-07-16T00:58:06.244+07:00,837453486291439066,377307,482129,450651,172724
1784138286262454660,2026-07-16T00:58:06.262+07:00,837453487128462352,377337,482123,450668,172781
1784138286280636478,2026-07-16T00:58:06.280+07:00,837453487128462352,377315,482196,450682,172757
1784138286298818296,2026-07-16T00:58:06.298+07:00,837453487128462352,377332,482244,450726,172831
1784138286317000114,2026-07-16T00:58:06.317+07:00,837453487128462352,377325,482239,450686,172809
1784138286335181932,2026-07-16T00:58:06.335+07:00,837453487128462352,377365,482238,450733,172717
1784138286353363750,2026-07-16T00:58:06.353+07:00,837453487128462352,377394,482292,450819,172711
1784138286371545568,2026-07-16T00:58:06.371+07:00,837453487128462352,377433,482337,450811,172774
1784138286389727386,2026-07-16T00:58:06.389+07:00,837453487128462352,377372,482264,450745,172757
1784138286407909204,2026-07-16T00:58:06.407+07:00,837453487128462352,377314,482300,450768,172745
1784138286426091022,2026-07-16T00:58:06.426+07:00,837453487128462352,377329,482308,450743,172721
1784138286444272840,2026-07-16T00:58:06.444+07:00,837453487128462352,377376,482375,450783,172785
1784138286462454658,2026-07-16T00:58:06.462+07:00,837453487128462352,377473,482334,450797,172744
1784138286480636476,2026-07-16T00:58:06.480+07:00,837453487128462352,377444,482438,450896,172771
1784138286498818294,2026-07-16T00:58:06.498+07:00,837453487128462352,377490,482466,450840,172754
1784138286517000112,2026-07-16T00:58:06.517+07:00,837453487128462352,377485,482502,450871,172755
1784138286535181930,2026-07-16T00:58:06.535+07:00,837453487128462352,377486,482523,450932,172792
1784138286553363748,2026-07-16T00:58:06.553+07:00,837453487128462352,377494,482484,450947,172792
1784138286571545566,2026-07-16T00:58:06.571+07:00,837453487128462352,377398,482473,450914,172690
1784138286589727384,2026-07-16T00:58:06.589+07:00,837453487128462352,377383,482451,450851,172701
1784138286607909202,2026-07-16T00:58:06.607+07:00,837453487128462352,377377,482394,450801,172772
1784138286626091020,2026-07-16T00:58:06.626+07:00,837453487128462352,377279,482268,450763,172728
1784138286644272838,2026-07-16T00:58:06.644+07:00,837453487128462352,377235,482233,450702,172844
1784138286662454656,2026-07-16T00:58:06.662+07:00,837453487128462352,377170,482051,450593,172785
1784138286680636474,2026-07-16T00:58:06.680+07:00,837453487128462352,377095,481941,450524,172776
1784138286698818292,2026-07-16T00:58:06.698+07:00,837453487128462352,376971,481785,450369,172758
1784138286717000110,2026-07-16T00:58:06.717+07:00,837453487128462352,376962,481719,450322,172767
1784138286735181928,2026-07-16T00:58:06.735+07:00,837453487128462352,376866,481600,450274,172767
1784138286753363746,2026-07-16T00:58:06.753+07:00,837453487128462352,376786,481528,450218,172769
1784138286771545564,2026-07-16T00:58:06.771+07:00,837453487128462352,376722,481381,450129,172754
1784138286789727382,2026-07-16T00:58:06.789+07:00,837453487128462352,376649,481423,450104,172771
1784138286807909200,2026-07-16T00:58:06.807+07:00,837453487128462352,376666,481405,450030,172775
1784138286826091018,2026-07-16T00:58:06.826+07:00,837453487128462352,376658,481339,449974,172758
1784138286844272836,2026-07-16T00:58:06.844+07:00,837453487128462352,376665,481248,450021,172757
1784138286862454654,2026-07-16T00:58:06.862+07:00,837453487128462352,376605,481179,449972,172776
1784138286880636472,2026-07-16T00:58:06.880+07:00,837453487128462352,376527,481134,449934,172797
1784138286898818290,2026-07-16T00:58:06.898+07:00,837453487128462352,376529,481134,449906,172806
1784138286917000108,2026-07-16T00:58:06.917+07:00,837453487128462352,376443,481061,449833,172757
1784138286935181926,2026-07-16T00:58:06.935+07:00,837453487128462352,376426,481036,449830,172775
1784138286953363744,2026-07-16T00:58:06.953+07:00,837453487128462352,376447,481050,449774,172795
1784138286971545562,2026-07-16T00:58:06.971+07:00,837453487128462352,376488,480971,449759,172805
1784138286989727380,2026-07-16T00:58:06.989+07:00,837453487128462352,376368,480923,449691,172720
1784138287007909198,2026-07-16T00:58:07.007+07:00,837453487128462352,376442,480924,449724,172817
1784138287026091016,2026-07-16T00:58:07.026+07:00,837453487128462352,376404,480927,449686,172778
1784138287044272834,2026-07-16T00:58:07.044+07:00,837453487128462352,376385,480889,449658,172781
1784138287062454652,2026-07-16T00:58:07.062+07:00,837453487128462352,376316,480838,449624,172763
1784138287080636470,2026-07-16T00:58:07.080+07:00,837453487128462352,376372,480870,449670,172806
1784138287098818288,2026-07-16T00:58:07.098+07:00,837453487929080718,376366,480900,449686,172805
1784138287117000106,2026-07-16T00:58:07.117+07:00,837453487929080718,376396,480887,449701,172769
1784138287135181924,2026-07-16T00:58:07.135+07:00,837453487929080718,376420,480913,449701,172805
1784138287153363742,2026-07-16T00:58:07.153+07:00,837453487929080718,376432,480911,449727,172779
1784138287171545560,2026-07-16T00:58:07.171+07:00,837453487929080718,376358,480857,449639,172778
1784138287189727378,2026-07-16T00:58:07.189+07:00,837453487929080718,376375,480917,449610,172822
1784138287207909196,2026-07-16T00:58:07.207+07:00,837453487929080718,376340,480924,449646,172840
1784138287226091014,2026-07-16T00:58:07.226+07:00,837453487929080718,376382,480967,449639,172778
1784138287244272832,2026-07-16T00:58:07.244+07:00,837453487929080718,376382,481003,449704,172817
1784138287262454650,2026-07-16T00:58:07.262+07:00,837453487929080718,376320,480920,449687,172753
1784138287280636468,2026-07-16T00:58:07.280+07:00,837453487929080718,376375,480961,449695,172759
1784138287298818286,2026-07-16T00:58:07.298+07:00,837453487929080718,376428,480975,449700,172763
1784138287317000104,2026-07-16T00:58:07.317+07:00,837453487929080718,376423,481074,449674,172812
1784138287335181922,2026-07-16T00:58:07.335+07:00,837453487929080718,376435,481067,449737,172819
1784138287353363740,2026-07-16T00:58:07.353+07:00,837453487929080718,376436,480970,449767,172774
1784138287371545558,2026-07-16T00:58:07.371+07:00,837453487929080718,376418,480971,449689,172814
1784138287389727376,2026-07-16T00:58:07.389+07:00,837453487929080718,376327,480818,449602,172831
1784138287407909194,2026-07-16T00:58:07.407+07:00,837453487929080718,376240,480677,449482,172836
1784138287426091012,2026-07-16T00:58:07.426+07:00,837453487929080718,376089,480489,449338,172763
1784138287444272830,2026-07-16T00:58:07.444+07:00,837453487929080718,375999,480378,449278,172828
1784138287462454648,2026-07-16T00:58:07.462+07:00,837453487929080718,375958,480268,449177,172809
1784138287480636466,2026-07-16T00:58:07.480+07:00,837453487929080718,375806,480014,449025,172795
1784138287498818284,2026-07-16T00:58:07.498+07:00,837453487929080718,375689,479872,448894,172780
1784138287517000102,2026-07-16T00:58:07.517+07:00,837453487929080718,375641,479800,448768,172856
1784138287535181920,2026-07-16T00:58:07.535+07:00,837453487929080718,375530,479590,448639,172776
1784138287553363738,2026-07-16T00:58:07.553+07:00,837453487929080718,375423,479508,448539,172812
1784138287571545556,2026-07-16T00:58:07.571+07:00,837453487929080718,375344,479299,448463,172780
1784138287589727374,2026-07-16T00:58:07.589+07:00,837453487929080718,375265,479193,448389,172779
1784138287607909192,2026-07-16T00:58:07.607+07:00,837453487929080718,375225,479166,448307,172776
1784138287626091010,2026-07-16T00:58:07.626+07:00,837453487929080718,375131,479083,448235,172796
1784138287644272828,2026-07-16T00:58:07.644+07:00,837453487929080718,375094,479052,448150,172801
1784138287662454646,2026-07-16T00:58:07.662+07:00,837453487929080718,375048,478945,448024,172786
1784138287680636464,2026-07-16T00:58:07.680+07:00,837453487929080718,375029,478849,448036,172831
1784138287698818282,2026-07-16T00:58:07.698+07:00,837453487929080718,374955,478765,447945,172768
1784138287717000100,2026-07-16T00:58:07.717+07:00,837453487929080718,374881,478648,447896,172728
1784138287735181918,2026-07-16T00:58:07.735+07:00,837453487929080718,374881,478596,447843,172762
1784138287753363736,2026-07-16T00:58:07.753+07:00,837453487929080718,374787,478524,447814,172779
1784138287771545554,2026-07-16T00:58:07.771+07:00,837453487929080718,374841,478507,447775,172850
1784138287789727372,2026-07-16T00:58:07.789+07:00,837453487929080718,374760,478487,447713,172812
1784138287807909190,2026-07-16T00:58:07.807+07:00,837453487929080718,374798,478417,447715,172809
1784138287826091008,2026-07-16T00:58:07.826+07:00,837453487929080718,374723,478354,447621,172743
1784138287844272826,2026-07-16T00:58:07.844+07:00,837453487929080718,374735,478315,447608,172737
1784138287862454644,2026-07-16T00:58:07.862+07:00,837453487929080718,374699,478302,447527,172749
1784138287880636462,2026-07-16T00:58:07.880+07:00,837453487929080718,374684,478290,447545,172753
1784138287898818280,2026-07-16T00:58:07.898+07:00,837453488711473733,374720,478332,447620,172820
1784138287917000098,2026-07-16T00:58:07.917+07:00,837453488711473733,374683,478301,447547,172692
1784138287935181916,2026-07-16T00:58:07.935+07:00,837453488711473733,374729,478318,447647,172758
1784138287953363734,2026-07-16T00:58:07.953+07:00,837453488711473733,374786,478259,447637,172738
1784138287971545552,2026-07-16T00:58:07.971+07:00,837453488711473733,374789,478333,447627,172772
1784138287989727370,2026-07-16T00:58:07.989+07:00,837453488711473733,374732,478288,447558,172749
1784138288007909188,2026-07-16T00:58:08.007+07:00,837453488711473733,374779,478261,447578,172752
1784138288026091006,2026-07-16T00:58:08.026+07:00,837453488711473733,374747,478340,447614,172816
1784138288044272824,2026-07-16T00:58:08.044+07:00,837453488711473733,374755,478327,447647,172799
1784138288062454642,2026-07-16T00:58:08.062+07:00,837453488711473733,374787,478271,447658,172832
1784138288080636460,2026-07-16T00:58:08.080+07:00,837453488711473733,374779,478321,447707,172774
1784138288098818278,2026-07-16T00:58:08.098+07:00,837453488711473733,374767,478352,447656,172777
1784138288117000096,2026-07-16T00:58:08.117+07:00,837453488711473733,374803,478398,447695,172785
1784138288135181914,2026-07-16T00:58:08.135+07:00,837453488711473733,374843,478366,447683,172745
1784138288153363732,2026-07-16T00:58:08.153+07:00,837453488711473733,374868,478376,447655,172801
1784138288171545550,2026-07-16T00:58:08.171+07:00,837453488711473733,374832,478386,447714,172768
1784138288189727368,2026-07-16T00:58:08.189+07:00,837453488711473733,374920,478427,447730,172745
1784138288207909186,2026-07-16T00:58:08.207+07:00,837453488711473733,374895,478398,447779,172767
1784138288226091004,2026-07-16T00:58:08.226+07:00,837453488711473733,374830,478413,447735,172710
1784138288244272822,2026-07-16T00:58:08.244+07:00,837453488711473733,374861,478333,447683,172757
1784138288262454640,2026-07-16T00:58:08.262+07:00,837453488711473733,374855,478370,447636,172754
1784138288280636458,2026-07-16T00:58:08.280+07:00,837453488711473733,374812,478178,447556,172791
1784138288298818276,2026-07-16T00:58:08.298+07:00,837453488711473733,374635,477962,447378,172794
1784138288317000094,2026-07-16T00:58:08.317+07:00,837453488711473733,374505,477771,447233,172797
1784138288335181912,2026-07-16T00:58:08.335+07:00,837453488711473733,374370,477572,447128,172764
1784138288353363730,2026-07-16T00:58:08.353+07:00,837453488711473733,374287,477387,446995,172770
1784138288371545548,2026-07-16T00:58:08.371+07:00,837453488711473733,374137,477200,446818,172768
1784138288389727366,2026-07-16T00:58:08.389+07:00,837453488711473733,374025,477071,446671,172749
1784138288407909184,2026-07-16T00:58:08.407+07:00,837453488711473733,373997,476974,446641,172777
1784138288426091002,2026-07-16T00:58:08.426+07:00,837453488711473733,373918,476801,446527,172781
1784138288444272820,2026-07-16T00:58:08.444+07:00,837453488711473733,373783,476636,446374,172768
1784138288462454638,2026-07-16T00:58:08.462+07:00,837453488711473733,373706,476524,446314,172823
1784138288480636456,2026-07-16T00:58:08.480+07:00,837453488711473733,373664,476443,446208,172786
1784138288498818274,2026-07-16T00:58:08.498+07:00,837453488711473733,373679,476399,446185,172769
1784138288517000092,2026-07-16T00:58:08.517+07:00,837453488711473733,373592,476265,446135,172786
1784138288535181910,2026-07-16T00:58:08.535+07:00,837453488711473733,373553,476227,446086,172805
1784138288553363728,2026-07-16T00:58:08.553+07:00,837453488711473733,373512,476165,446057,172811
1784138288571545546,2026-07-16T00:58:08.571+07:00,837453488711473733,373505,476073,445990,172789
1784138288589727364,2026-07-16T00:58:08.589+07:00,837453488711473733,373451,476012,445915,172764
1784138288607909182,2026-07-16T00:58:08.607+07:00,837453488711473733,373429,475963,445881,172744
1784138288626091000,2026-07-16T00:58:08.626+07:00,837453488711473733,373370,475897,445868,172723
1784138288644272818,2026-07-16T00:58:08.644+07:00,837453488711473733,373337,475869,445764,172762
1784138288662454636,2026-07-16T00:58:08.662+07:00,837453488711473733,373313,475817,445745,172761
1784138288680636454,2026-07-16T00:58:08.680+07:00,837453489548408513,373281,475758,445693,172723
1784138288698818272,2026-07-16T00:58:08.698+07:00,837453489548408513,373332,475804,445717,172796
1784138288717000090,2026-07-16T00:58:08.717+07:00,837453489548408513,373301,475694,445638,172787
1784138288735181908,2026-07-16T00:58:08.735+07:00,837453489548408513,373299,475672,445626,172757
1784138288753363726,2026-07-16T00:58:08.753+07:00,837453489548408513,373358,475695,445678,172838
1784138288771545544,2026-07-16T00:58:08.771+07:00,837453489548408513,373303,475724,445685,172776
1784138288789727362,2026-07-16T00:58:08.789+07:00,837453489548408513,373302,475662,445675,172779
1784138288807909180,2026-07-16T00:58:08.807+07:00,837453489548408513,373299,475673,445742,172779
1784138288826090998,2026-07-16T00:58:08.826+07:00,837453489548408513,373268,475711,445712,172849
1784138288844272816,2026-07-16T00:58:08.844+07:00,837453489548408513,373285,475649,445676,172786
1784138288862454634,2026-07-16T00:58:08.862+07:00,837453489548408513,373327,475675,445720,172728
1784138288880636452,2026-07-16T00:58:08.880+07:00,837453489548408513,373369,475679,445734,172744
1784138288898818270,2026-07-16T00:58:08.898+07:00,837453489548408513,373380,475720,445784,172758
1784138288917000088,2026-07-16T00:58:08.917+07:00,837453489548408513,373381,475706,445716,172728
1784138288935181906,2026-07-16T00:58:08.935+07:00,837453489548408513,373378,475780,445706,172718
1784138288953363724,2026-07-16T00:58:08.953+07:00,837453489548408513,373429,475740,445829,172802
1784138288971545542,2026-07-16T00:58:08.971+07:00,837453489548408513,373433,475788,445851,172716
1784138288989727360,2026-07-16T00:58:08.989+07:00,837453489548408513,373517,475868,445924,172772
1784138289007909178,2026-07-16T00:58:09.007+07:00,837453489548408513,373541,475882,445863,172764
1784138289026090996,2026-07-16T00:58:09.026+07:00,837453489548408513,373494,475985,445926,172767
1784138289044272814,2026-07-16T00:58:09.044+07:00,837453489548408513,373496,475960,445971,172766
1784138289062454632,2026-07-16T00:58:09.062+07:00,837453489548408513,373540,475967,446002,172768
1784138289080636450,2026-07-16T00:58:09.080+07:00,837453489548408513,373666,476088,446037,172844
1784138289098818268,2026-07-16T00:58:09.098+07:00,837453489548408513,373567,476060,446003,172789
1784138289117000086,2026-07-16T00:58:09.117+07:00,837453489548408513,373588,476155,446036,172776
1784138289135181904,2026-07-16T00:58:09.135+07:00,837453489548408513,373620,476156,446077,172789
1784138289153363722,2026-07-16T00:58:09.153+07:00,837453489548408513,373634,476165,446105,172829
1784138289171545540,2026-07-16T00:58:09.171+07:00,837453489548408513,373569,476044,446017,172836
1784138289189727358,2026-07-16T00:58:09.189+07:00,837453489548408513,373576,475986,445953,172788
1784138289207909176,2026-07-16T00:58:09.207+07:00,837453489548408513,373476,475864,445855,172863
1784138289226090994,2026-07-16T00:58:09.226+07:00,837453489548408513,373401,475679,445710,172802
1784138289244272812,2026-07-16T00:58:09.244+07:00,837453489548408513,373177,475472,445568,172730
1784138289262454630,2026-07-16T00:58:09.262+07:00,837453489548408513,373130,475382,445404,172779
1784138289280636448,2026-07-16T00:58:09.280+07:00,837453489548408513,373083,475237,445365,172772
1784138289298818266,2026-07-16T00:58:09.298+07:00,837453489548408513,372959,475096,445204,172771
1784138289317000084,2026-07-16T00:58:09.317+07:00,837453489548408513,372905,474973,445158,172811
1784138289335181902,2026-07-16T00:58:09.335+07:00,837453489548408513,372788,474844,445068,172809
1784138289353363720,2026-07-16T00:58:09.353+07:00,837453489548408513,372776,474688,445024,172805
1784138289371545538,2026-07-16T00:58:09.371+07:00,837453489548408513,372725,474646,444935,172827
1784138289389727356,2026-07-16T00:58:09.389+07:00,837453489548408513,372686,474605,444861,172795
1784138289407909174,2026-07-16T00:58:09.407+07:00,837453489548408513,372629,474604,444840,172798
1784138289426090992,2026-07-16T00:58:09.426+07:00,837453489548408513,372589,474463,444778,172728
1784138289444272810,2026-07-16T00:58:09.444+07:00,837453489548408513,372530,474460,444768,172742
1784138289462454628,2026-07-16T00:58:09.462+07:00,837453489548408513,372505,474422,444709,172748
1784138289480636446,2026-07-16T00:58:09.480+07:00,837453489548408513,372423,474391,444605,172745
1784138289498818264,2026-07-16T00:58:09.498+07:00,837453489548408513,372366,474327,444580,172721
1784138289517000082,2026-07-16T00:58:09.517+07:00,837453490294515644,372391,474278,444571,172754
1784138289535181900,2026-07-16T00:58:09.535+07:00,837453490294515644,372416,474262,444515,172742
1784138289553363718,2026-07-16T00:58:09.553+07:00,837453490294515644,372343,474133,444462,172744
1784138289571545536,2026-07-16T00:58:09.571+07:00,837453490294515644,372395,474271,444501,172822
1784138289589727354,2026-07-16T00:58:09.589+07:00,837453490294515644,372387,474252,444473,172755
1784138289607909172,2026-07-16T00:58:09.607+07:00,837453490294515644,372325,474190,444436,172748
1784138289626090990,2026-07-16T00:58:09.626+07:00,837453490294515644,372350,474172,444473,172797
1784138289644272808,2026-07-16T00:58:09.644+07:00,837453490294515644,372346,474206,444465,172777
1784138289662454626,2026-07-16T00:58:09.662+07:00,837453490294515644,372378,474187,444499,172806
1784138289680636444,2026-07-16T00:58:09.680+07:00,837453490294515644,372359,474150,444466,172786
1784138289698818262,2026-07-16T00:58:09.698+07:00,837453490294515644,372396,474223,444468,172787
1784138289717000080,2026-07-16T00:58:09.717+07:00,837453490294515644,372431,474238,444527,172738
1784138289735181898,2026-07-16T00:58:09.735+07:00,837453490294515644,372423,474241,444480,172737
1784138289753363716,2026-07-16T00:58:09.753+07:00,837453490294515644,372418,474255,444491,172802
1784138289771545534,2026-07-16T00:58:09.771+07:00,837453490294515644,372424,474223,444498,172769
1784138289789727352,2026-07-16T00:58:09.789+07:00,837453490294515644,372501,474325,444567,172771
1784138289807909170,2026-07-16T00:58:09.807+07:00,837453490294515644,372527,474357,444522,172764
1784138289826090988,2026-07-16T00:58:09.826+07:00,837453490294515644,372499,474430,444578,172763
1784138289844272806,2026-07-16T00:58:09.844+07:00,837453490294515644,372491,474372,444556,172753
1784138289862454624,2026-07-16T00:58:09.862+07:00,837453490294515644,372542,474466,444646,172813
1784138289880636442,2026-07-16T00:58:09.880+07:00,837453490294515644,372534,474459,444614,172768
1784138289898818260,2026-07-16T00:58:09.898+07:00,837453490294515644,372574,474527,444669,172770
1784138289917000078,2026-07-16T00:58:09.917+07:00,837453490294515644,372537,474585,444725,172735
1784138289935181896,2026-07-16T00:58:09.935+07:00,837453490294515644,372562,474564,444687,172759
1784138289953363714,2026-07-16T00:58:09.953+07:00,837453490294515644,372604,474652,444759,172788
1784138289971545532,2026-07-16T00:58:09.971+07:00,837453490294515644,372641,474634,444834,172761
1784138289989727350,2026-07-16T00:58:09.989+07:00,837453490294515644,372701,474672,444827,172760
1784138290007909168,2026-07-16T00:58:10.007+07:00,837453490294515644,372618,474700,444749,172699
1784138290026090986,2026-07-16T00:58:10.026+07:00,837453490294515644,372663,474673,444800,172786
1784138290044272804,2026-07-16T00:58:10.044+07:00,837453490294515644,372543,474528,444679,172752
1784138290062454622,2026-07-16T00:58:10.062+07:00,837453490294515644,372426,474497,444550,172751
1784138290080636440,2026-07-16T00:58:10.080+07:00,837453490294515644,372433,474334,444484,172788
1784138290098818258,2026-07-16T00:58:10.098+07:00,837453490294515644,372326,474133,444350,172759
1784138290117000076,2026-07-16T00:58:10.117+07:00,837453490294515644,372252,474067,444362,172729
1784138290135181894,2026-07-16T00:58:10.135+07:00,837453490294515644,372152,473942,444232,172760
1784138290153363712,2026-07-16T00:58:10.153+07:00,837453490294515644,372073,473843,444143,172748
1784138290171545530,2026-07-16T00:58:10.171+07:00,837453490294515644,372040,473723,444072,172725
1784138290189727348,2026-07-16T00:58:10.189+07:00,837453490294515644,371960,473667,443981,172783
1784138290207909166,2026-07-16T00:58:10.207+07:00,837453490294515644,371966,473616,444002,172787
1784138290226090984,2026-07-16T00:58:10.226+07:00,837453490294515644,371869,473624,443938,172765
1784138290244272802,2026-07-16T00:58:10.244+07:00,837453490294515644,371943,473629,443935,172829
1784138290262454620,2026-07-16T00:58:10.262+07:00,837453491149683407,371884,473529,443843,172802
1784138290280636438,2026-07-16T00:58:10.280+07:00,837453491149683407,371865,473553,443851,172784
1784138290298818256,2026-07-16T00:58:10.298+07:00,837453491149683407,371862,473523,443779,172752
1784138290317000074,2026-07-16T00:58:10.317+07:00,837453491149683407,371832,473519,443863,172729
1784138290335181892,2026-07-16T00:58:10.335+07:00,837453491149683407,371832,473499,443774,172700
1784138290353363710,2026-07-16T00:58:10.353+07:00,837453491149683407,371843,473505,443800,172738
1784138290371545528,2026-07-16T00:58:10.371+07:00,837453491149683407,371799,473472,443789,172691
1784138290389727346,2026-07-16T00:58:10.389+07:00,837453491149683407,371796,473421,443740,172749
1784138290407909164,2026-07-16T00:58:10.407+07:00,837453491149683407,371845,473444,443746,172796
1784138290426090982,2026-07-16T00:58:10.426+07:00,837453491149683407,371794,473386,443697,172738
1784138290444272800,2026-07-16T00:58:10.444+07:00,837453491149683407,371820,473439,443693,172727
1784138290462454618,2026-07-16T00:58:10.462+07:00,837453491149683407,371834,473494,443735,172762
1784138290480636436,2026-07-16T00:58:10.480+07:00,837453491149683407,371831,473504,443736,172755
1784138290498818254,2026-07-16T00:58:10.498+07:00,837453491149683407,371804,473543,443797,172776
1784138290517000072,2026-07-16T00:58:10.517+07:00,837453491149683407,371844,473555,443814,172783
1784138290535181890,2026-07-16T00:58:10.535+07:00,837453491149683407,371850,473563,443867,172754
1784138290553363708,2026-07-16T00:58:10.553+07:00,837453491149683407,371918,473581,443843,172795
1784138290571545526,2026-07-16T00:58:10.571+07:00,837453491149683407,371852,473650,443865,172802
1784138290589727344,2026-07-16T00:58:10.589+07:00,837453491149683407,371920,473684,443878,172795
1784138290607909162,2026-07-16T00:58:10.607+07:00,837453491149683407,371933,473642,443873,172743
1784138290626090980,2026-07-16T00:58:10.626+07:00,837453491149683407,371955,473707,443938,172765
1784138290644272798,2026-07-16T00:58:10.644+07:00,837453491149683407,371967,473795,444009,172763
1784138290662454616,2026-07-16T00:58:10.662+07:00,837453491149683407,372041,473838,444028,172730
1784138290680636434,2026-07-16T00:58:10.680+07:00,837453491149683407,372061,473857,444007,172762
1784138290698818252,2026-07-16T00:58:10.698+07:00,837453491149683407,372087,473885,444082,172736
1784138290717000070,2026-07-16T00:58:10.717+07:00,837453491149683407,372054,473959,444061,172760
1784138290735181888,2026-07-16T00:58:10.735+07:00,837453491149683407,372078,473953,444068,172731
1784138290753363706,2026-07-16T00:58:10.753+07:00,837453491149683407,372161,474077,444193,172784
1784138290771545524,2026-07-16T00:58:10.771+07:00,837453491149683407,372196,474130,444223,172785
1784138290789727342,2026-07-16T00:58:10.789+07:00,837453491149683407,372229,474095,444256,172783
1784138290807909160,2026-07-16T00:58:10.807+07:00,837453491149683407,372157,474079,444184,172742
1784138290826090978,2026-07-16T00:58:10.826+07:00,837453491149683407,372129,474047,444110,172747
1784138290844272796,2026-07-16T00:58:10.844+07:00,837453491149683407,372034,473943,444043,172697
1784138290862454614,2026-07-16T00:58:10.862+07:00,837453491149683407,371977,473880,444028,172775
1784138290880636432,2026-07-16T00:58:10.880+07:00,837453491149683407,371950,473761,443919,172784
1784138290898818250,2026-07-16T00:58:10.898+07:00,837453491149683407,371954,473709,443909,172805
1784138290917000068,2026-07-16T00:58:10.917+07:00,837453491149683407,371895,473626,443766,172793
1784138290935181886,2026-07-16T00:58:10.935+07:00,837453491149683407,371745,473507,443661,172786
1784138290953363704,2026-07-16T00:58:10.953+07:00,837453491149683407,371754,473434,443556,172771
1784138290971545522,2026-07-16T00:58:10.971+07:00,837453491149683407,371663,473291,443488,172793
1784138290989727340,2026-07-16T00:58:10.989+07:00,837453491149683407,371549,473189,443433,172764
1784138291007909158,2026-07-16T00:58:11.007+07:00,837453491149683407,371490,473164,443327,172753
1784138291026090976,2026-07-16T00:58:11.026+07:00,837453491149683407,371513,473099,443221,172772
1784138291044272794,2026-07-16T00:58:11.044+07:00,837453491149683407,371427,472969,443196,172755
1784138291062454612,2026-07-16T00:58:11.062+07:00,837453491149683407,371402,472862,443162,172709
1784138291080636430,2026-07-16T00:58:11.080+07:00,837453491149683407,371373,472762,443051,172650
1784138291098818248,2026-07-16T00:58:11.098+07:00,837453491149683407,371271,472779,443038,172779
1784138291117000066,2026-07-16T00:58:11.117+07:00,837453491986694489,371260,472735,442921,172746
1784138291135181884,2026-07-16T00:58:11.135+07:00,837453491986694489,371187,472719,442926,172734
1784138291153363702,2026-07-16T00:58:11.153+07:00,837453491986694489,371229,472666,442916,172752
1784138291171545520,2026-07-16T00:58:11.171+07:00,837453491986694489,371192,472543,442859,172724
1784138291189727338,2026-07-16T00:58:11.189+07:00,837453491986694489,371157,472550,442824,172743
1784138291207909156,2026-07-16T00:58:11.207+07:00,837453491986694489,371137,472549,442825,172779
1784138291226090974,2026-07-16T00:58:11.226+07:00,837453491986694489,371136,472531,442760,172732
1784138291244272792,2026-07-16T00:58:11.244+07:00,837453491986694489,371066,472509,442728,172696
1784138291262454610,2026-07-16T00:58:11.262+07:00,837453491986694489,371066,472519,442699,172698
1784138291280636428,2026-07-16T00:58:11.280+07:00,837453491986694489,371115,472530,442792,172758
1784138291298818246,2026-07-16T00:58:11.298+07:00,837453491986694489,371111,472558,442785,172691
1784138291317000064,2026-07-16T00:58:11.317+07:00,837453491986694489,371198,472569,442790,172720
1784138291335181882,2026-07-16T00:58:11.335+07:00,837453491986694489,371187,472623,442837,172794
1784138291353363700,2026-07-16T00:58:11.353+07:00,837453491986694489,371188,472615,442898,172769
1784138291371545518,2026-07-16T00:58:11.371+07:00,837453491986694489,371226,472659,442895,172750
1784138291389727336,2026-07-16T00:58:11.389+07:00,837453491986694489,371295,472722,442926,172793
1784138291407909154,2026-07-16T00:58:11.407+07:00,837453491986694489,371346,472808,442963,172801
1784138291426090972,2026-07-16T00:58:11.426+07:00,837453491986694489,371400,472785,443015,172726
1784138291444272790,2026-07-16T00:58:11.444+07:00,837453491986694489,371352,472850,443024,172721
1784138291462454608,2026-07-16T00:58:11.462+07:00,837453491986694489,371337,472862,443010,172712
1784138291480636426,2026-07-16T00:58:11.480+07:00,837453491986694489,371414,472838,443019,172710
1784138291498818244,2026-07-16T00:58:11.498+07:00,837453491986694489,371392,472892,443036,172791
1784138291517000062,2026-07-16T00:58:11.517+07:00,837453491986694489,371476,472944,443053,172749
1784138291535181880,2026-07-16T00:58:11.535+07:00,837453491986694489,371395,472943,443048,172713
1784138291553363698,2026-07-16T00:58:11.553+07:00,837453491986694489,371441,472994,443015,172748
1784138291571545516,2026-07-16T00:58:11.571+07:00,837453491986694489,371425,473020,443020,172724
1784138291589727334,2026-07-16T00:58:11.589+07:00,837453491986694489,371437,472993,443034,172766
1784138291607909152,2026-07-16T00:58:11.607+07:00,837453491986694489,371469,473011,443088,172755
1784138291626090970,2026-07-16T00:58:11.626+07:00,837453491986694489,371412,473000,442990,172733
1784138291644272788,2026-07-16T00:58:11.644+07:00,837453491986694489,371396,472856,442935,172758
1784138291662454606,2026-07-16T00:58:11.662+07:00,837453491986694489,371385,472859,442908,172760
1784138291680636424,2026-07-16T00:58:11.680+07:00,837453491986694489,371265,472703,442734,172708
1784138291698818242,2026-07-16T00:58:11.698+07:00,837453491986694489,371187,472563,442681,172762
1784138291717000060,2026-07-16T00:58:11.717+07:00,837453491986694489,371118,472424,442624,172765
1784138291735181878,2026-07-16T00:58:11.735+07:00,837453491986694489,371027,472281,442441,172748
1784138291753363696,2026-07-16T00:58:11.753+07:00,837453491986694489,371008,472266,442408,172804
1784138291771545514,2026-07-16T00:58:11.771+07:00,837453491986694489,370925,472107,442321,172809
1784138291789727332,2026-07-16T00:58:11.789+07:00,837453491986694489,370847,472043,442197,172728
1784138291807909150,2026-07-16T00:58:11.807+07:00,837453491986694489,370796,471935,442150,172746
1784138291826090968,2026-07-16T00:58:11.826+07:00,837453491986694489,370726,471940,442153,172770
1784138291844272786,2026-07-16T00:58:11.844+07:00,837453491986694489,370763,471861,442084,172738
1784138291862454604,2026-07-16T00:58:11.862+07:00,837453491986694489,370763,471793,442053,172761
1784138291880636422,2026-07-16T00:58:11.880+07:00,837453491986694489,370709,471780,442026,172781
1784138291898818240,2026-07-16T00:58:11.898+07:00,837453491986694489,370690,471829,442018,172784
1784138291917000058,2026-07-16T00:58:11.917+07:00,837453491986694489,370683,471749,441938,172712
1784138291935181876,2026-07-16T00:58:11.935+07:00,837453491986694489,370668,471637,441874,172656
1784138291953363694,2026-07-16T00:58:11.953+07:00,837453492750932345,370703,471654,441905,172712
1784138291971545512,2026-07-16T00:58:11.971+07:00,837453492750932345,370686,471693,441933,172711
1784138291989727330,2026-07-16T00:58:11.989+07:00,837453492750932345,370672,471667,441904,172788
1784138292007909148,2026-07-16T00:58:12.007+07:00,837453492750932345,370641,471628,441926,172781
1784138292026090966,2026-07-16T00:58:12.026+07:00,837453492750932345,370651,471632,441949,172721
1784138292044272784,2026-07-16T00:58:12.044+07:00,837453492750932345,370709,471650,441869,172746
1784138292062454602,2026-07-16T00:58:12.062+07:00,837453492750932345,370699,471683,441944,172743
1784138292080636420,2026-07-16T00:58:12.080+07:00,837453492750932345,370689,471649,441908,172736
1784138292098818238,2026-07-16T00:58:12.098+07:00,837453492750932345,370760,471763,442005,172731
1784138292117000056,2026-07-16T00:58:12.117+07:00,837453492750932345,370798,471765,442023,172717
1784138292135181874,2026-07-16T00:58:12.135+07:00,837453492750932345,370781,471826,442073,172737
1784138292153363692,2026-07-16T00:58:12.153+07:00,837453492750932345,370842,471898,442111,172747
1784138292171545510,2026-07-16T00:58:12.171+07:00,837453492750932345,370841,471937,442113,172710
1784138292189727328,2026-07-16T00:58:12.189+07:00,837453492750932345,371022,472019,442237,172781
1784138292207909146,2026-07-16T00:58:12.207+07:00,837453492750932345,371011,472100,442287,172770
1784138292226090964,2026-07-16T00:58:12.226+07:00,837453492750932345,371075,472147,442348,172755
1784138292244272782,2026-07-16T00:58:12.244+07:00,837453492750932345,371100,472242,442415,172787
1784138292262454600,2026-07-16T00:58:12.262+07:00,837453492750932345,371156,472308,442494,172806
1784138292280636418,2026-07-16T00:58:12.280+07:00,837453492750932345,371156,472320,442491,172765
1784138292298818236,2026-07-16T00:58:12.298+07:00,837453492750932345,371182,472387,442527,172716
1784138292317000054,2026-07-16T00:58:12.317+07:00,837453492750932345,371231,472329,442522,172715
1784138292335181872,2026-07-16T00:58:12.335+07:00,837453492750932345,371262,472401,442562,172727
1784138292353363690,2026-07-16T00:58:12.353+07:00,837453492750932345,371287,472407,442619,172753
1784138292371545508,2026-07-16T00:58:12.371+07:00,837453492750932345,371229,472475,442635,172768
1784138292389727326,2026-07-16T00:58:12.389+07:00,837453492750932345,371289,472505,442680,172764
1784138292407909144,2026-07-16T00:58:12.407+07:00,837453492750932345,371281,472539,442643,172757
1784138292426090962,2026-07-16T00:58:12.426+07:00,837453492750932345,371299,472501,442548,172742
1784138292444272780,2026-07-16T00:58:12.444+07:00,837453492750932345,371250,472412,442557,172820
1784138292462454598,2026-07-16T00:58:12.462+07:00,837453492750932345,371228,472414,442483,172822
1784138292480636416,2026-07-16T00:58:12.480+07:00,837453492750932345,371135,472297,442461,172762
1784138292498818234,2026-07-16T00:58:12.498+07:00,837453492750932345,371099,472131,442365,172796
1784138292517000052,2026-07-16T00:58:12.517+07:00,837453492750932345,371072,472082,442295,172745
1784138292535181870,2026-07-16T00:58:12.535+07:00,837453492750932345,371016,472019,442213,172770
1784138292553363688,2026-07-16T00:58:12.553+07:00,837453492750932345,370976,471901,442145,172778
1784138292571545506,2026-07-16T00:58:12.571+07:00,837453492750932345,370938,471856,442148,172784
1784138292589727324,2026-07-16T00:58:12.589+07:00,837453492750932345,370901,471701,442069,172778
1784138292607909142,2026-07-16T00:58:12.607+07:00,837453492750932345,370867,471706,442061,172786
1784138292626090960,2026-07-16T00:58:12.626+07:00,837453492750932345,370853,471728,441997,172748
1784138292644272778,2026-07-16T00:58:12.644+07:00,837453492750932345,370851,471680,441959,172762
1784138292662454596,2026-07-16T00:58:12.662+07:00,837453492750932345,370865,471614,441926,172751
1784138292680636414,2026-07-16T00:58:12.680+07:00,837453492750932345,370858,471631,441969,172743
1784138292698818232,2026-07-16T00:58:12.698+07:00,837453492750932345,370828,471627,441961,172720
1784138292717000050,2026-07-16T00:58:12.717+07:00,837453493515122899,370899,471710,442064,172767
1784138292735181868,2026-07-16T00:58:12.735+07:00,837453493515122899,370931,471716,442143,172731
1784138292753363686,2026-07-16T00:58:12.753+07:00,837453493515122899,370977,471788,442152,172770
1784138292771545504,2026-07-16T00:58:12.771+07:00,837453493515122899,371066,471832,442295,172767
1784138292789727322,2026-07-16T00:58:12.789+07:00,837453493515122899,371038,471919,442331,172700
1784138292807909140,2026-07-16T00:58:12.807+07:00,837453493515122899,371171,471965,442384,172777
1784138292826090958,2026-07-16T00:58:12.826+07:00,837453493515122899,371246,472074,442459,172772
1784138292844272776,2026-07-16T00:58:12.844+07:00,837453493515122899,371260,472048,442554,172764
1784138292862454594,2026-07-16T00:58:12.862+07:00,837453493515122899,371270,472163,442649,172755
1784138292880636412,2026-07-16T00:58:12.880+07:00,837453493515122899,371383,472156,442686,172770
1784138292898818230,2026-07-16T00:58:12.898+07:00,837453493515122899,371448,472296,442779,172816
1784138292917000048,2026-07-16T00:58:12.917+07:00,837453493515122899,371472,472276,442862,172781
1784138292935181866,2026-07-16T00:58:12.935+07:00,837453493515122899,371480,472325,442922,172765
1784138292953363684,2026-07-16T00:58:12.953+07:00,837453493515122899,371644,472497,443055,172751
1784138292971545502,2026-07-16T00:58:12.971+07:00,837453493515122899,371698,472604,443111,172796
1784138292989727320,2026-07-16T00:58:12.989+07:00,837453493515122899,371723,472672,443190,172779
1784138293007909138,2026-07-16T00:58:13.007+07:00,837453493515122899,371795,472753,443311,172804
1784138293026090956,2026-07-16T00:58:13.026+07:00,837453493515122899,371877,472839,443384,172766
1784138293044272774,2026-07-16T00:58:13.044+07:00,837453493515122899,371908,472927,443541,172776
1784138293062454592,2026-07-16T00:58:13.062+07:00,837453493515122899,372000,473038,443532,172794
1784138293080636410,2026-07-16T00:58:13.080+07:00,837453493515122899,372068,473129,443598,172725
1784138293098818228,2026-07-16T00:58:13.098+07:00,837453493515122899,372073,473147,443677,172719
1784138293117000046,2026-07-16T00:58:13.117+07:00,837453493515122899,372157,473253,443759,172723
1784138293135181864,2026-07-16T00:58:13.135+07:00,837453493515122899,372230,473360,443756,172721
1784138293153363682,2026-07-16T00:58:13.153+07:00,837453493515122899,372322,473495,443877,172804
1784138293171545500,2026-07-16T00:58:13.171+07:00,837453493515122899,372380,473539,443944,172710
1784138293189727318,2026-07-16T00:58:13.189+07:00,837453493515122899,372449,473593,444095,172791
1784138293207909136,2026-07-16T00:58:13.207+07:00,837453493515122899,372537,473831,444178,172788
1784138293226090954,2026-07-16T00:58:13.226+07:00,837453493515122899,372538,473903,444266,172741
1784138293244272772,2026-07-16T00:58:13.244+07:00,837453493515122899,372683,474031,444394,172729
1784138293262454590,2026-07-16T00:58:13.262+07:00,837453493515122899,372714,474092,444441,172769
1784138293280636408,2026-07-16T00:58:13.280+07:00,837453493515122899,372742,474086,444439,172755
1784138293298818226,2026-07-16T00:58:13.298+07:00,837453493515122899,372742,474079,444406,172748
1784138293317000044,2026-07-16T00:58:13.317+07:00,837453493515122899,372710,473966,444320,172767
1784138293335181862,2026-07-16T00:58:13.335+07:00,837453493515122899,372675,473996,444293,172791
1784138293353363680,2026-07-16T00:58:13.353+07:00,837453493515122899,372618,473803,444107,172726
1784138293371545498,2026-07-16T00:58:13.371+07:00,837453493515122899,372543,473639,444015,172699
1784138293389727316,2026-07-16T00:58:13.389+07:00,837453493515122899,372488,473626,444014,172744
1784138293407909134,2026-07-16T00:58:13.407+07:00,837453493515122899,372435,473477,443926,172752
1784138293426090952,2026-07-16T00:58:13.426+07:00,837453493515122899,372402,473444,443860,172798
1784138293444272770,2026-07-16T00:58:13.444+07:00,837453493515122899,372366,473345,443798,172757
1784138293462454588,2026-07-16T00:58:13.462+07:00,837453493515122899,372368,473385,443809,172774
1784138293480636406,2026-07-16T00:58:13.480+07:00,837453494388543489,372403,473362,443844,172760
1784138293498818224,2026-07-16T00:58:13.498+07:00,837453494388543489,372418,473330,443826,172685
1784138293517000042,2026-07-16T00:58:13.517+07:00,837453494388543489,372347,473353,443791,172711
1784138293535181860,2026-07-16T00:58:13.535+07:00,837453494388543489,372413,473313,443818,172753
1784138293553363678,2026-07-16T00:58:13.553+07:00,837453494388543489,372360,473317,443786,172720
1784138293571545496,2026-07-16T00:58:13.571+07:00,837453494388543489,372356,473340,443824,172776
1784138293589727314,2026-07-16T00:58:13.589+07:00,837453494388543489,372278,473269,443762,172745
1784138293607909132,2026-07-16T00:58:13.607+07:00,837453494388543489,372326,473387,443793,172781
1784138293626090950,2026-07-16T00:58:13.626+07:00,837453494388543489,372375,473327,443762,172831
1784138293644272768,2026-07-16T00:58:13.644+07:00,837453494388543489,372435,473333,443764,172757
1784138293662454586,2026-07-16T00:58:13.662+07:00,837453494388543489,372496,473371,443723,172810
1784138293680636404,2026-07-16T00:58:13.680+07:00,837453494388543489,372468,473308,443758,172787
1784138293698818222,2026-07-16T00:58:13.698+07:00,837453494388543489,372454,473385,443803,172779
1784138293717000040,2026-07-16T00:58:13.717+07:00,837453494388543489,372400,473379,443823,172731
1784138293735181858,2026-07-16T00:58:13.735+07:00,837453494388543489,372380,473392,443803,172717
1784138293753363676,2026-07-16T00:58:13.753+07:00,837453494388543489,372436,473424,443812,172802
1784138293771545494,2026-07-16T00:58:13.771+07:00,837453494388543489,372478,473535,443859,172763
1784138293789727312,2026-07-16T00:58:13.789+07:00,837453494388543489,372432,473515,443802,172720
1784138293807909130,2026-07-16T00:58:13.807+07:00,837453494388543489,372528,473592,443945,172782
1784138293826090948,2026-07-16T00:58:13.826+07:00,837453494388543489,372533,473598,443983,172797
1784138293844272766,2026-07-16T00:58:13.844+07:00,837453494388543489,372526,473665,444039,172763
1784138293862454584,2026-07-16T00:58:13.862+07:00,837453494388543489,372606,473683,444075,172776
1784138293880636402,2026-07-16T00:58:13.880+07:00,837453494388543489,372633,473728,444069,172735
1784138293898818220,2026-07-16T00:58:13.898+07:00,837453494388543489,372705,473832,444148,172847
1784138293917000038,2026-07-16T00:58:13.917+07:00,837453494388543489,372741,473951,444137,172767
1784138293935181856,2026-07-16T00:58:13.935+07:00,837453494388543489,372739,473957,444188,172784
1784138293953363674,2026-07-16T00:58:13.953+07:00,837453494388543489,372713,473954,444184,172743
1784138293971545492,2026-07-16T00:58:13.971+07:00,837453494388543489,372815,474077,444285,172828
1784138293989727310,2026-07-16T00:58:13.989+07:00,837453494388543489,372773,474037,444250,172796
1784138294007909128,2026-07-16T00:58:14.007+07:00,837453494388543489,372897,474041,444248,172822
1784138294026090946,2026-07-16T00:58:14.026+07:00,837453494388543489,372816,474101,444254,172783
1784138294044272764,2026-07-16T00:58:14.044+07:00,837453494388543489,372764,474098,444263,172783
1784138294062454582,2026-07-16T00:58:14.062+07:00,837453494388543489,372850,474158,444252,172738
1784138294080636400,2026-07-16T00:58:14.080+07:00,837453494388543489,372830,474184,444316,172803
1784138294098818218,2026-07-16T00:58:14.098+07:00,837453494388543489,372920,474237,444359,172800
1784138294117000036,2026-07-16T00:58:14.117+07:00,837453494388543489,372880,474250,444344,172742
1784138294135181854,2026-07-16T00:58:14.135+07:00,837453494388543489,372822,474203,444285,172766
1784138294153363672,2026-07-16T00:58:14.153+07:00,837453494388543489,372877,474184,444203,172806
1784138294171545490,2026-07-16T00:58:14.171+07:00,837453494388543489,372784,474118,444168,172843
1784138294189727308,2026-07-16T00:58:14.189+07:00,837453494388543489,372713,474033,444102,172752
1784138294207909126,2026-07-16T00:58:14.207+07:00,837453494388543489,372694,473930,444051,172754
1784138294226090944,2026-07-16T00:58:14.226+07:00,837453494388543489,372673,473852,444006,172774
1784138294244272762,2026-07-16T00:58:14.244+07:00,837453494388543489,372581,473828,443933,172754
1784138294262454580,2026-07-16T00:58:14.262+07:00,837453494388543489,372561,473774,443910,172816
1784138294280636398,2026-07-16T00:58:14.280+07:00,837453494388543489,372554,473732,443906,172815
1784138294298818216,2026-07-16T00:58:14.298+07:00,837453494388543489,372557,473658,443844,172780
1784138294317000034,2026-07-16T00:58:14.317+07:00,837453494388543489,372470,473643,443783,172789
1784138294335181852,2026-07-16T00:58:14.335+07:00,837453494388543489,372469,473600,443739,172816
1784138294353363670,2026-07-16T00:58:14.353+07:00,837453495225575931,372535,473694,443758,172766
1784138294371545488,2026-07-16T00:58:14.371+07:00,837453495225575931,372574,473685,443860,172815
1784138294389727306,2026-07-16T00:58:14.389+07:00,837453495225575931,372546,473683,443846,172738
1784138294407909124,2026-07-16T00:58:14.407+07:00,837453495225575931,372561,473672,443804,172765
1784138294426090942,2026-07-16T00:58:14.426+07:00,837453495225575931,372614,473751,443888,172745
1784138294444272760,2026-07-16T00:58:14.444+07:00,837453495225575931,372604,473779,443919,172800
1784138294462454578,2026-07-16T00:58:14.462+07:00,837453495225575931,372601,473788,443873,172738
1784138294480636396,2026-07-16T00:58:14.480+07:00,837453495225575931,372697,473889,443977,172823
1784138294498818214,2026-07-16T00:58:14.498+07:00,837453495225575931,372731,473981,444076,172838
1784138294517000032,2026-07-16T00:58:14.517+07:00,837453495225575931,372660,473915,444027,172759
1784138294535181850,2026-07-16T00:58:14.535+07:00,837453495225575931,372757,473935,444027,172737
1784138294553363668,2026-07-16T00:58:14.553+07:00,837453495225575931,372762,474036,444124,172776
1784138294571545486,2026-07-16T00:58:14.571+07:00,837453495225575931,372834,474091,444128,172785
1784138294589727304,2026-07-16T00:58:14.589+07:00,837453495225575931,372855,474153,444120,172781
1784138294607909122,2026-07-16T00:58:14.607+07:00,837453495225575931,372863,474233,444229,172754
1784138294626090940,2026-07-16T00:58:14.626+07:00,837453495225575931,372944,474321,444313,172762
1784138294644272758,2026-07-16T00:58:14.644+07:00,837453495225575931,373021,474358,444356,172758
1784138294662454576,2026-07-16T00:58:14.662+07:00,837453495225575931,373038,474417,444414,172710
1784138294680636394,2026-07-16T00:58:14.680+07:00,837453495225575931,373056,474436,444382,172717
1784138294698818212,2026-07-16T00:58:14.698+07:00,837453495225575931,373196,474588,444520,172784
1784138294717000030,2026-07-16T00:58:14.717+07:00,837453495225575931,373204,474674,444585,172787
1784138294735181848,2026-07-16T00:58:14.735+07:00,837453495225575931,373217,474709,444648,172746
1784138294753363666,2026-07-16T00:58:14.753+07:00,837453495225575931,373242,474791,444717,172772
1784138294771545484,2026-07-16T00:58:14.771+07:00,837453495225575931,373317,474921,444825,172768
1784138294789727302,2026-07-16T00:58:14.789+07:00,837453495225575931,373359,474978,444796,172767
1784138294807909120,2026-07-16T00:58:14.807+07:00,837453495225575931,373368,475065,444841,172761
1784138294826090938,2026-07-16T00:58:14.826+07:00,837453495225575931,373420,475202,444913,172823
1784138294844272756,2026-07-16T00:58:14.844+07:00,837453495225575931,373474,475233,444945,172789
1784138294862454574,2026-07-16T00:58:14.862+07:00,837453495225575931,373526,475336,445077,172766
1784138294880636392,2026-07-16T00:58:14.880+07:00,837453495225575931,373584,475434,445150,172816
1784138294898818210,2026-07-16T00:58:14.898+07:00,837453495225575931,373663,475510,445202,172786
1784138294917000028,2026-07-16T00:58:14.917+07:00,837453495225575931,373740,475685,445283,172764
1784138294935181846,2026-07-16T00:58:14.935+07:00,837453495225575931,373714,475687,445315,172759
1784138294953363664,2026-07-16T00:58:14.953+07:00,837453495225575931,373807,475816,445419,172763
1784138294971545482,2026-07-16T00:58:14.971+07:00,837453495225575931,373820,475843,445411,172782
1784138294989727300,2026-07-16T00:58:14.989+07:00,837453495225575931,373843,475887,445509,172686
1784138295007909118,2026-07-16T00:58:15.007+07:00,837453495225575931,373964,475976,445563,172787
1784138295026090936,2026-07-16T00:58:15.026+07:00,837453495225575931,373945,476016,445522,172762
1784138295044272754,2026-07-16T00:58:15.044+07:00,837453495225575931,373853,476030,445538,172810
1784138295062454572,2026-07-16T00:58:15.062+07:00,837453495225575931,373868,476003,445576,172762
1784138295080636390,2026-07-16T00:58:15.080+07:00,837453495225575931,373850,475942,445536,172788
1784138295098818208,2026-07-16T00:58:15.098+07:00,837453495225575931,373863,475920,445578,172793
1784138295117000026,2026-07-16T00:58:15.117+07:00,837453495225575931,373864,475899,445541,172809
1784138295135181844,2026-07-16T00:58:15.135+07:00,837453495225575931,373822,475888,445479,172743
1784138295153363662,2026-07-16T00:58:15.153+07:00,837453495225575931,373867,475874,445473,172791
1784138295171545480,2026-07-16T00:58:15.171+07:00,837453495225575931,373774,475848,445455,172788
1784138295189727298,2026-07-16T00:58:15.189+07:00,837453496062608373,373800,475870,445470,172834
1784138295207909116,2026-07-16T00:58:15.207+07:00,837453496062608373,373721,475829,445420,172780
1784138295226090934,2026-07-16T00:58:15.226+07:00,837453496062608373,373715,475783,445450,172753
1784138295244272752,2026-07-16T00:58:15.244+07:00,837453496062608373,373716,475818,445425,172742
1784138295262454570,2026-07-16T00:58:15.262+07:00,837453496062608373,373710,475793,445443,172696
1784138295280636388,2026-07-16T00:58:15.280+07:00,837453496062608373,373803,475902,445456,172737
1784138295298818206,2026-07-16T00:58:15.298+07:00,837453496062608373,373792,475953,445496,172732
1784138295317000024,2026-07-16T00:58:15.317+07:00,837453496062608373,373805,476035,445527,172778
1784138295335181842,2026-07-16T00:58:15.335+07:00,837453496062608373,373759,475987,445565,172730
1784138295353363660,2026-07-16T00:58:15.353+07:00,837453496062608373,373813,475977,445575,172782
1784138295371545478,2026-07-16T00:58:15.371+07:00,837453496062608373,373895,476070,445639,172792
1784138295389727296,2026-07-16T00:58:15.389+07:00,837453496062608373,373897,476094,445641,172704
1784138295407909114,2026-07-16T00:58:15.407+07:00,837453496062608373,373932,476098,445734,172758
1784138295426090932,2026-07-16T00:58:15.426+07:00,837453496062608373,373998,476185,445729,172824
1784138295444272750,2026-07-16T00:58:15.444+07:00,837453496062608373,374046,476228,445826,172757
1784138295462454568,2026-07-16T00:58:15.462+07:00,837453496062608373,374053,476246,445917,172813
1784138295480636386,2026-07-16T00:58:15.480+07:00,837453496062608373,374003,476369,445953,172777
1784138295498818204,2026-07-16T00:58:15.498+07:00,837453496062608373,374075,476430,445969,172758
1784138295517000022,2026-07-16T00:58:15.517+07:00,837453496062608373,374105,476455,445982,172731
1784138295535181840,2026-07-16T00:58:15.535+07:00,837453496062608373,374223,476541,446097,172776
1784138295553363658,2026-07-16T00:58:15.553+07:00,837453496062608373,374215,476549,446082,172774
1784138295571545476,2026-07-16T00:58:15.571+07:00,837453496062608373,374212,476713,446124,172791
1784138295589727294,2026-07-16T00:58:15.589+07:00,837453496062608373,374236,476805,446252,172818
1784138295607909112,2026-07-16T00:58:15.607+07:00,837453496062608373,374289,476826,446208,172814
1784138295626090930,2026-07-16T00:58:15.626+07:00,837453496062608373,374311,476922,446252,172820
1784138295644272748,2026-07-16T00:58:15.644+07:00,837453496062608373,374347,477021,446407,172812
1784138295662454566,2026-07-16T00:58:15.662+07:00,837453496062608373,374343,477087,446395,172729
1784138295680636384,2026-07-16T00:58:15.680+07:00,837453496062608373,374403,477129,446452,172781
1784138295698818202,2026-07-16T00:58:15.698+07:00,837453496062608373,374375,477242,446481,172757
1784138295717000020,2026-07-16T00:58:15.717+07:00,837453496062608373,374415,477253,446530,172759
1784138295735181838,2026-07-16T00:58:15.735+07:00,837453496062608373,374482,477362,446583,172767
1784138295753363656,2026-07-16T00:58:15.753+07:00,837453496062608373,374499,477381,446585,172814
1784138295771545474,2026-07-16T00:58:15.771+07:00,837453496062608373,374464,477449,446601,172766
1784138295789727292,2026-07-16T00:58:15.789+07:00,837453496062608373,374512,477484,446654,172782
1784138295807909110,2026-07-16T00:58:15.807+07:00,837453496062608373,374523,477539,446622,172810
1784138295826090928,2026-07-16T00:58:15.826+07:00,837453496062608373,374523,477619,446685,172780
1784138295844272746,2026-07-16T00:58:15.844+07:00,837453496062608373,374635,477643,446784,172792
1784138295862454564,2026-07-16T00:58:15.862+07:00,837453496062608373,374632,477715,446825,172750
1784138295880636382,2026-07-16T00:58:15.880+07:00,837453496062608373,374653,477828,446907,172769
1784138295898818200,2026-07-16T00:58:15.898+07:00,837453496062608373,374737,477922,447031,172771
1784138295917000018,2026-07-16T00:58:15.917+07:00,837453496062608373,374830,478002,447111,172755
1784138295935181836,2026-07-16T00:58:15.935+07:00,837453496062608373,374819,478114,447183,172774
1784138295953363654,2026-07-16T00:58:15.953+07:00,837453496062608373,374859,478251,447221,172795
1784138295971545472,2026-07-16T00:58:15.971+07:00,837453496062608373,374829,478203,447262,172765
1784138295989727290,2026-07-16T00:58:15.989+07:00,837453496062608373,374922,478198,447243,172778
1784138296007909108,2026-07-16T00:58:16.007+07:00,837453496062608373,374910,478242,447192,172771
1784138296026090926,2026-07-16T00:58:16.026+07:00,837453496899640825,374973,478271,447264,172847
1784138296044272744,2026-07-16T00:58:16.044+07:00,837453496899640825,374932,478290,447303,172838
1784138296062454562,2026-07-16T00:58:16.062+07:00,837453496899640825,374924,478322,447285,172784
1784138296080636380,2026-07-16T00:58:16.080+07:00,837453496899640825,374945,478279,447380,172750
1784138296098818198,2026-07-16T00:58:16.098+07:00,837453496899640825,374914,478375,447418,172754
1784138296117000016,2026-07-16T00:58:16.117+07:00,837453496899640825,374954,478371,447464,172749
1784138296135181834,2026-07-16T00:58:16.135+07:00,837453496899640825,375000,478364,447493,172774
1784138296153363652,2026-07-16T00:58:16.153+07:00,837453496899640825,375020,478437,447544,172778
1784138296171545470,2026-07-16T00:58:16.171+07:00,837453496899640825,374999,478407,447563,172821
1784138296189727288,2026-07-16T00:58:16.189+07:00,837453496899640825,375052,478483,447610,172813
1784138296207909106,2026-07-16T00:58:16.207+07:00,837453496899640825,375134,478471,447597,172833
1784138296226090924,2026-07-16T00:58:16.226+07:00,837453496899640825,375121,478439,447537,172785
1784138296244272742,2026-07-16T00:58:16.244+07:00,837453496899640825,375147,478441,447590,172798
1784138296262454560,2026-07-16T00:58:16.262+07:00,837453496899640825,375060,478446,447551,172840
1784138296280636378,2026-07-16T00:58:16.280+07:00,837453496899640825,375031,478436,447528,172801
1784138296298818196,2026-07-16T00:58:16.298+07:00,837453496899640825,375014,478421,447478,172792
1784138296317000014,2026-07-16T00:58:16.317+07:00,837453496899640825,375027,478412,447499,172744
1784138296335181832,2026-07-16T00:58:16.335+07:00,837453496899640825,374980,478459,447490,172731
1784138296353363650,2026-07-16T00:58:16.353+07:00,837453496899640825,374994,478468,447545,172762
1784138296371545468,2026-07-16T00:58:16.371+07:00,837453496899640825,375019,478528,447533,172758
1784138296389727286,2026-07-16T00:58:16.389+07:00,837453496899640825,375009,478522,447597,172721
1784138296407909104,2026-07-16T00:58:16.407+07:00,837453496899640825,374978,478642,447665,172737
1784138296426090922,2026-07-16T00:58:16.426+07:00,837453496899640825,375029,478684,447720,172732
1784138296444272740,2026-07-16T00:58:16.444+07:00,837453496899640825,375153,478767,447814,172726
1784138296462454558,2026-07-16T00:58:16.462+07:00,837453496899640825,375178,478785,447859,172746
1784138296480636376,2026-07-16T00:58:16.480+07:00,837453496899640825,375229,478896,447946,172742
1784138296498818194,2026-07-16T00:58:16.498+07:00,837453496899640825,375251,478949,448039,172738
1784138296517000012,2026-07-16T00:58:16.517+07:00,837453496899640825,375310,479046,448083,172721
1784138296535181830,2026-07-16T00:58:16.535+07:00,837453496899640825,375434,479167,448133,172693
1784138296553363648,2026-07-16T00:58:16.553+07:00,837453496899640825,375482,479249,448221,172770
1784138296571545466,2026-07-16T00:58:16.571+07:00,837453496899640825,375439,479314,448251,172721
1784138296589727284,2026-07-16T00:58:16.589+07:00,837453496899640825,375571,479448,448389,172758
1784138296607909102,2026-07-16T00:58:16.607+07:00,837453496899640825,375654,479531,448479,172720
1784138296626090920,2026-07-16T00:58:16.626+07:00,837453496899640825,375718,479623,448563,172784
1784138296644272738,2026-07-16T00:58:16.644+07:00,837453496899640825,375718,479705,448581,172751
1784138296662454556,2026-07-16T00:58:16.662+07:00,837453496899640825,375792,479754,448630,172742
1784138296680636374,2026-07-16T00:58:16.680+07:00,837453496899640825,375808,479859,448744,172771
1784138296698818192,2026-07-16T00:58:16.698+07:00,837453496899640825,375818,479937,448847,172749
1784138296717000010,2026-07-16T00:58:16.717+07:00,837453496899640825,375930,480003,448869,172721
1784138296735181828,2026-07-16T00:58:16.735+07:00,837453496899640825,375943,480119,448960,172720
1784138296753363646,2026-07-16T00:58:16.753+07:00,837453496899640825,376027,480197,449026,172732
1784138296771545464,2026-07-16T00:58:16.771+07:00,837453496899640825,376066,480224,449073,172762
1784138296789727282,2026-07-16T00:58:16.789+07:00,837453496899640825,376138,480295,449155,172768
1784138296807909100,2026-07-16T00:58:16.807+07:00,837453496899640825,376139,480406,449165,172761
1784138296826090918,2026-07-16T00:58:16.826+07:00,837453496899640825,376152,480428,449174,172714
1784138296844272736,2026-07-16T00:58:16.844+07:00,837453496899640825,376137,480457,449241,172746
1784138296862454554,2026-07-16T00:58:16.862+07:00,837453497754854364,376101,480463,449153,172771
1784138296880636372,2026-07-16T00:58:16.880+07:00,837453497754854364,376099,480440,449138,172720
1784138296898818190,2026-07-16T00:58:16.898+07:00,837453497754854364,376088,480429,449115,172754
1784138296917000008,2026-07-16T00:58:16.917+07:00,837453497754854364,376016,480381,449146,172724
1784138296935181826,2026-07-16T00:58:16.935+07:00,837453497754854364,375983,480343,449081,172719
1784138296953363644,2026-07-16T00:58:16.953+07:00,837453497754854364,375961,480313,449105,172755
1784138296971545462,2026-07-16T00:58:16.971+07:00,837453497754854364,375918,480231,449013,172734
1784138296989727280,2026-07-16T00:58:16.989+07:00,837453497754854364,375888,480202,448951,172736
1784138297007909098,2026-07-16T00:58:17.007+07:00,837453497754854364,375995,480271,449018,172784
1784138297026090916,2026-07-16T00:58:17.026+07:00,837453497754854364,375857,480162,448927,172758
1784138297044272734,2026-07-16T00:58:17.044+07:00,837453497754854364,375796,480118,448924,172712
1784138297062454552,2026-07-16T00:58:17.062+07:00,837453497754854364,375835,480146,448966,172760
1784138297080636370,2026-07-16T00:58:17.080+07:00,837453497754854364,375781,480123,448904,172732
1784138297098818188,2026-07-16T00:58:17.098+07:00,837453497754854364,375719,480119,448874,172724
1784138297117000006,2026-07-16T00:58:17.117+07:00,837453497754854364,375768,480109,448912,172743
1784138297135181824,2026-07-16T00:58:17.135+07:00,837453497754854364,375673,480141,448872,172741
1784138297153363642,2026-07-16T00:58:17.153+07:00,837453497754854364,375671,480147,448882,172701
1784138297171545460,2026-07-16T00:58:17.171+07:00,837453497754854364,375692,480130,448872,172709
1784138297189727278,2026-07-16T00:58:17.189+07:00,837453497754854364,375739,480101,448837,172731
1784138297207909096,2026-07-16T00:58:17.207+07:00,837453497754854364,375737,480131,448876,172752
1784138297226090914,2026-07-16T00:58:17.226+07:00,837453497754854364,375714,480130,448851,172714
1784138297244272732,2026-07-16T00:58:17.244+07:00,837453497754854364,375700,480170,448853,172720
1784138297262454550,2026-07-16T00:58:17.262+07:00,837453497754854364,375661,480143,448882,172729
1784138297280636368,2026-07-16T00:58:17.280+07:00,837453497754854364,375634,480087,448838,172706
1784138297298818186,2026-07-16T00:58:17.298+07:00,837453497754854364,375723,480146,448875,172723
1784138297317000004,2026-07-16T00:58:17.317+07:00,837453497754854364,375687,480123,448802,172701
1784138297335181822,2026-07-16T00:58:17.335+07:00,837453497754854364,375687,480151,448884,172724
1784138297353363640,2026-07-16T00:58:17.353+07:00,837453497754854364,375654,480124,448846,172692
1784138297371545458,2026-07-16T00:58:17.371+07:00,837453497754854364,375656,480209,448910,172784
1784138297389727276,2026-07-16T00:58:17.389+07:00,837453497754854364,375598,480138,448835,172693
1784138297407909094,2026-07-16T00:58:17.407+07:00,837453497754854364,375631,480163,448831,172735
1784138297426090912,2026-07-16T00:58:17.426+07:00,837453497754854364,375706,480245,448921,172787
1784138297444272730,2026-07-16T00:58:17.444+07:00,837453497754854364,375637,480209,448858,172741
1784138297462454548,2026-07-16T00:58:17.462+07:00,837453497754854364,375674,480262,448911,172714
1784138297480636366,2026-07-16T00:58:17.480+07:00,837453497754854364,375634,480255,448901,172802
1784138297498818184,2026-07-16T00:58:17.498+07:00,837453497754854364,375670,480298,448962,172752
1784138297517000002,2026-07-16T00:58:17.517+07:00,837453497754854364,375660,480297,448870,172752
1784138297535181820,2026-07-16T00:58:17.535+07:00,837453497754854364,375718,480392,448977,172762
1784138297553363638,2026-07-16T00:58:17.553+07:00,837453497754854364,375703,480360,449017,172731
1784138297571545456,2026-07-16T00:58:17.571+07:00,837453497754854364,375695,480358,449018,172760
1784138297589727274,2026-07-16T00:58:17.589+07:00,837453497754854364,375696,480370,449038,172760
1784138297607909092,2026-07-16T00:58:17.607+07:00,837453497754854364,375669,480452,449074,172763
1784138297626090910,2026-07-16T00:58:17.626+07:00,837453497754854364,375741,480420,449044,172803
1784138297644272728,2026-07-16T00:58:17.644+07:00,837453497754854364,375734,480447,449079,172771
1784138297662454546,2026-07-16T00:58:17.662+07:00,837453497754854364,375801,480508,449048,172836
1784138297680636364,2026-07-16T00:58:17.680+07:00,837453497754854364,375773,480596,449038,172760
1784138297698818182,2026-07-16T00:58:17.698+07:00,837453497754854364,375814,480672,449134,172740
1784138297717000000,2026-07-16T00:58:17.717+07:00,837453498555405588,375776,480589,449089,172740
1784138297735181818,2026-07-16T00:58:17.735+07:00,837453498555405588,375799,480616,449196,172753
1784138297753363636,2026-07-16T00:58:17.753+07:00,837453498555405588,375752,480607,449125,172745
1784138297771545454,2026-07-16T00:58:17.771+07:00,837453498555405588,375677,480528,449064,172720
1784138297789727272,2026-07-16T00:58:17.789+07:00,837453498555405588,375706,480593,449039,172800
1784138297807909090,2026-07-16T00:58:17.807+07:00,837453498555405588,375640,480518,448939,172802
1784138297826090908,2026-07-16T00:58:17.826+07:00,837453498555405588,375564,480434,448903,172778
1784138297844272726,2026-07-16T00:58:17.844+07:00,837453498555405588,375483,480340,448756,172760
1784138297862454544,2026-07-16T00:58:17.862+07:00,837453498555405588,375406,480220,448733,172713
1784138297880636362,2026-07-16T00:58:17.880+07:00,837453498555405588,375375,480126,448673,172778
1784138297898818180,2026-07-16T00:58:17.898+07:00,837453498555405588,375240,479992,448601,172771
1784138297916999998,2026-07-16T00:58:17.917+07:00,837453498555405588,375194,479927,448504,172741
1784138297935181816,2026-07-16T00:58:17.935+07:00,837453498555405588,375119,479838,448493,172687
1784138297953363634,2026-07-16T00:58:17.953+07:00,837453498555405588,375128,479840,448442,172711
1784138297971545452,2026-07-16T00:58:17.971+07:00,837453498555405588,375074,479740,448352,172741
1784138297989727270,2026-07-16T00:58:17.989+07:00,837453498555405588,375026,479676,448302,172800
1784138298007909088,2026-07-16T00:58:18.007+07:00,837453498555405588,374990,479613,448298,172753
1784138298026090906,2026-07-16T00:58:18.026+07:00,837453498555405588,374983,479578,448307,172700
1784138298044272724,2026-07-16T00:58:18.044+07:00,837453498555405588,374984,479626,448317,172761
1784138298062454542,2026-07-16T00:58:18.062+07:00,837453498555405588,374962,479560,448260,172725
1784138298080636360,2026-07-16T00:58:18.080+07:00,837453498555405588,374863,479483,448163,172747
1784138298098818178,2026-07-16T00:58:18.098+07:00,837453498555405588,374881,479406,448195,172751
1784138298116999996,2026-07-16T00:58:18.117+07:00,837453498555405588,374756,479361,448099,172745
1784138298135181814,2026-07-16T00:58:18.135+07:00,837453498555405588,374799,479304,448075,172785
1784138298153363632,2026-07-16T00:58:18.153+07:00,837453498555405588,374694,479229,447949,172699
1784138298171545450,2026-07-16T00:58:18.171+07:00,837453498555405588,374673,479171,447917,172780
1784138298189727268,2026-07-16T00:58:18.189+07:00,837453498555405588,374712,479268,447985,172815
1784138298207909086,2026-07-16T00:58:18.207+07:00,837453498555405588,374689,479155,447946,172802
1784138298226090904,2026-07-16T00:58:18.226+07:00,837453498555405588,374686,479236,448044,172789
1784138298244272722,2026-07-16T00:58:18.244+07:00,837453498555405588,374711,479151,448075,172768
1784138298262454540,2026-07-16T00:58:18.262+07:00,837453498555405588,374714,479225,448035,172729
1784138298280636358,2026-07-16T00:58:18.280+07:00,837453498555405588,374760,479243,448103,172749
1784138298298818176,2026-07-16T00:58:18.298+07:00,837453498555405588,374786,479268,448156,172701
1784138298316999994,2026-07-16T00:58:18.317+07:00,837453498555405588,374850,479328,448163,172716
1784138298335181812,2026-07-16T00:58:18.335+07:00,837453498555405588,374872,479397,448163,172683
1784138298353363630,2026-07-16T00:58:18.353+07:00,837453498555405588,374894,479427,448203,172747
1784138298371545448,2026-07-16T00:58:18.371+07:00,837453498555405588,374846,479402,448136,172665
1784138298389727266,2026-07-16T00:58:18.389+07:00,837453498555405588,374846,479428,448192,172724
1784138298407909084,2026-07-16T00:58:18.407+07:00,837453498555405588,374871,479485,448232,172729
1784138298426090902,2026-07-16T00:58:18.426+07:00,837453498555405588,374832,479480,448200,172716
1784138298444272720,2026-07-16T00:58:18.444+07:00,837453498555405588,374865,479459,448240,172742
1784138298462454538,2026-07-16T00:58:18.462+07:00,837453498555405588,374832,479518,448339,172772
1784138298480636356,2026-07-16T00:58:18.480+07:00,837453498555405588,374942,479576,448369,172809
1784138298498818174,2026-07-16T00:58:18.498+07:00,837453498555405588,374975,479622,448417,172771
1784138298516999992,2026-07-16T00:58:18.517+07:00,837453499392389214,374987,479652,448455,172749
1784138298535181810,2026-07-16T00:58:18.535+07:00,837453499392389214,375012,479622,448470,172747
1784138298553363628,2026-07-16T00:58:18.553+07:00,837453499392389214,374997,479631,448455,172747
1784138298571545446,2026-07-16T00:58:18.571+07:00,837453499392389214,375017,479698,448525,172779
1784138298589727264,2026-07-16T00:58:18.589+07:00,837453499392389214,375045,479727,448488,172716
1784138298607909082,2026-07-16T00:58:18.607+07:00,837453499392389214,375061,479717,448513,172778
1784138298626090900,2026-07-16T00:58:18.626+07:00,837453499392389214,375055,479656,448451,172792
1784138298644272718,2026-07-16T00:58:18.644+07:00,837453499392389214,375007,479663,448392,172771
1784138298662454536,2026-07-16T00:58:18.662+07:00,837453499392389214,374953,479596,448385,172730
1784138298680636354,2026-07-16T00:58:18.680+07:00,837453499392389214,374999,479579,448293,172804
1784138298698818172,2026-07-16T00:58:18.698+07:00,837453499392389214,374842,479459,448220,172767
1784138298716999990,2026-07-16T00:58:18.717+07:00,837453499392389214,374751,479306,448131,172707
1784138298735181808,2026-07-16T00:58:18.735+07:00,837453499392389214,374641,479212,448008,172729
1784138298753363626,2026-07-16T00:58:18.753+07:00,837453499392389214,374501,479020,447885,172731
1784138298771545444,2026-07-16T00:58:18.771+07:00,837453499392389214,374436,478917,447793,172747
1784138298789727262,2026-07-16T00:58:18.789+07:00,837453499392389214,374383,478747,447600,172759
1784138298807909080,2026-07-16T00:58:18.807+07:00,837453499392389214,374287,478626,447520,172797
1784138298826090898,2026-07-16T00:58:18.826+07:00,837453499392389214,374104,478456,447353,172718
1784138298844272716,2026-07-16T00:58:18.844+07:00,837453499392389214,374062,478356,447388,172747
1784138298862454534,2026-07-16T00:58:18.862+07:00,837453499392389214,374071,478276,447327,172809
1784138298880636352,2026-07-16T00:58:18.880+07:00,837453499392389214,374028,478147,447249,172815
1784138298898818170,2026-07-16T00:58:18.898+07:00,837453499392389214,373905,478085,447140,172786
1784138298916999988,2026-07-16T00:58:18.917+07:00,837453499392389214,373858,477973,447043,172744
1784138298935181806,2026-07-16T00:58:18.935+07:00,837453499392389214,373762,477830,446982,172744
1784138298953363624,2026-07-16T00:58:18.953+07:00,837453499392389214,373707,477801,446916,172741
1784138298971545442,2026-07-16T00:58:18.971+07:00,837453499392389214,373677,477681,446878,172802
1784138298989727260,2026-07-16T00:58:18.989+07:00,837453499392389214,373600,477623,446795,172717
1784138299007909078,2026-07-16T00:58:19.007+07:00,837453499392389214,373553,477508,446821,172757
1784138299026090896,2026-07-16T00:58:19.026+07:00,837453499392389214,373499,477420,446736,172774
1784138299044272714,2026-07-16T00:58:19.044+07:00,837453499392389214,373465,477332,446643,172727
1784138299062454532,2026-07-16T00:58:19.062+07:00,837453499392389214,373494,477307,446745,172746
1784138299080636350,2026-07-16T00:58:19.080+07:00,837453499392389214,373499,477329,446740,172757
1784138299098818168,2026-07-16T00:58:19.098+07:00,837453499392389214,373503,477318,446717,172750
1784138299116999986,2026-07-16T00:58:19.117+07:00,837453499392389214,373496,477275,446689,172700
1784138299135181804,2026-07-16T00:58:19.135+07:00,837453499392389214,373530,477275,446656,172797
1784138299153363622,2026-07-16T00:58:19.153+07:00,837453499392389214,373513,477210,446679,172714
1784138299171545440,2026-07-16T00:58:19.171+07:00,837453499392389214,373460,477114,446632,172733
1784138299189727258,2026-07-16T00:58:19.189+07:00,837453499392389214,373456,477180,446646,172752
1784138299207909076,2026-07-16T00:58:19.207+07:00,837453499392389214,373439,477120,446577,172784
1784138299226090894,2026-07-16T00:58:19.226+07:00,837453499392389214,373392,477098,446545,172724
1784138299244272712,2026-07-16T00:58:19.244+07:00,837453499392389214,373386,477059,446542,172779
1784138299262454530,2026-07-16T00:58:19.262+07:00,837453499392389214,373382,477070,446494,172767
