host_timestamp_ns,host_timestamp_iso,pmd_timestamp,ppg0,ppg1,ppg2,ambient
1784138573364311700,2026-07-16T01:02:53.364+07:00,837453772032232963,398096,507631,475700,172747
1784138573382493518,2026-07-16T01:02:53.382+07:00,837453772032232963,398188,507649,475788,172828
1784138573400675336,2026-07-16T01:02:53.400+07:00,837453772032232963,398212,507739,475862,172703
1784138573418857154,2026-07-16T01:02:53.418+07:00,837453772032232963,398265,507877,475958,172736
1784138573437038972,2026-07-16T01:02:53.437+07:00,837453772032232963,398250,507937,475998,172802
1784138573455220790,2026-07-16T01:02:53.455+07:00,837453772032232963,398272,507931,476024,172745
1784138573473402608,2026-07-16T01:02:53.473+07:00,837453772032232963,398258,507922,475981,172781
1784138573491584426,2026-07-16T01:02:53.491+07:00,837453772032232963,398199,507878,475927,172775
1784138573509766244,2026-07-16T01:02:53.509+07:00,837453772032232963,398129,507715,475887,172766
1784138573527948062,2026-07-16T01:02:53.527+07:00,837453772032232963,398099,507586,475767,172785
1784138573546129880,2026-07-16T01:02:53.546+07:00,837453772032232963,397984,507541,475810,172776
1784138573564311698,2026-07-16T01:02:53.564+07:00,837453772032232963,397974,507459,475800,172777
1784138573582493516,2026-07-16T01:02:53.582+07:00,837453772032232963,397945,507282,475725,172764
1784138573600675334,2026-07-16T01:02:53.600+07:00,837453772032232963,397823,507203,475607,172741
1784138573618857152,2026-07-16T01:02:53.618+07:00,837453772032232963,397749,507152,475608,172795
1784138573637038970,2026-07-16T01:02:53.637+07:00,837453772032232963,397715,507064,475575,172779
1784138573655220788,2026-07-16T01:02:53.655+07:00,837453772032232963,397665,506993,475536,172787
1784138573673402606,2026-07-16T01:02:53.673+07:00,837453772032232963,397608,506929,475518,172787
1784138573691584424,2026-07-16T01:02:53.691+07:00,837453772032232963,397664,506962,475567,172815
1784138573709766242,2026-07-16T01:02:53.709+07:00,837453772032232963,397596,506866,475518,172776
1784138573727948060,2026-07-16T01:02:53.727+07:00,837453772032232963,397563,506876,475463,172798
1784138573746129878,2026-07-16T01:02:53.746+07:00,837453772032232963,397553,506819,475473,172753
1784138573764311696,2026-07-16T01:02:53.764+07:00,837453772032232963,397477,506788,475481,172758
1784138573782493514,2026-07-16T01:02:53.782+07:00,837453772032232963,397488,506822,475448,172711
1784138573800675332,2026-07-16T01:02:53.800+07:00,837453772032232963,397473,506748,475472,172733
1784138573818857150,2026-07-16T01:02:53.818+07:00,837453772032232963,397444,506764,475410,172736
1784138573837038968,2026-07-16T01:02:53.837+07:00,837453772032232963,397372,506730,475461,172767
1784138573855220786,2026-07-16T01:02:53.855+07:00,837453772032232963,397353,506715,475465,172768
1784138573873402604,2026-07-16T01:02:53.873+07:00,837453772032232963,397357,506679,475415,172761
1784138573891584422,2026-07-16T01:02:53.891+07:00,837453772032232963,397369,506716,475459,172774
1784138573909766240,2026-07-16T01:02:53.909+07:00,837453772032232963,397337,506723,475432,172724
1784138573927948058,2026-07-16T01:02:53.927+07:00,837453772032232963,397339,506749,475449,172730
1784138573946129876,2026-07-16T01:02:53.946+07:00,837453772032232963,397419,506835,475455,172775
1784138573964311694,2026-07-16T01:02:53.964+07:00,837453772032232963,397423,506810,475517,172730
1784138573982493512,2026-07-16T01:02:53.982+07:00,837453772032232963,397392,506822,475562,172725
1784138574000675330,2026-07-16T01:02:54.000+07:00,837453772032232963,397465,506879,475588,172706
1784138574018857148,2026-07-16T01:02:54.018+07:00,837453772032232963,397499,506907,475731,172784
1784138574037038966,2026-07-16T01:02:54.037+07:00,837453772032232963,397525,506854,475702,172737
1784138574055220784,2026-07-16T01:02:54.055+07:00,837453772032232963,397524,507000,475725,172694
1784138574073402602,2026-07-16T01:02:54.073+07:00,837453772032232963,397526,507012,475716,172689
1784138574091584420,2026-07-16T01:02:54.091+07:00,837453772032232963,397597,507088,475747,172716
1784138574109766238,2026-07-16T01:02:54.109+07:00,837453772032232963,397642,507073,475797,172732
1784138574127948056,2026-07-16T01:02:54.127+07:00,837453772032232963,397686,507126,475852,172751
1784138574146129874,2026-07-16T01:02:54.146+07:00,837453772796513547,397697,507199,475885,172737
1784138574164311692,2026-07-16T01:02:54.164+07:00,837453772796513547,397726,507251,475933,172687
1784138574182493510,2026-07-16T01:02:54.182+07:00,837453772796513547,397802,507364,475987,172746
1784138574200675328,2026-07-16T01:02:54.200+07:00,837453772796513547,397865,507464,476075,172789
1784138574218857146,2026-07-16T01:02:54.218+07:00,837453772796513547,397851,507453,476082,172764
1784138574237038964,2026-07-16T01:02:54.237+07:00,837453772796513547,397886,507499,476083,172778
1784138574255220782,2026-07-16T01:02:54.255+07:00,837453772796513547,397898,507638,476134,172710
1784138574273402600,2026-07-16T01:02:54.273+07:00,837453772796513547,397952,507683,476214,172751
1784138574291584418,2026-07-16T01:02:54.291+07:00,837453772796513547,398000,507718,476283,172769
1784138574309766236,2026-07-16T01:02:54.309+07:00,837453772796513547,397915,507728,476231,172703
1784138574327948054,2026-07-16T01:02:54.327+07:00,837453772796513547,397995,507799,476293,172727
1784138574346129872,2026-07-16T01:02:54.346+07:00,837453772796513547,398025,507749,476309,172774
1784138574364311690,2026-07-16T01:02:54.364+07:00,837453772796513547,397969,507674,476278,172741
1784138574382493508,2026-07-16T01:02:54.382+07:00,837453772796513547,397898,507534,476233,172710
1784138574400675326,2026-07-16T01:02:54.400+07:00,837453772796513547,397817,507356,476125,172716
1784138574418857144,2026-07-16T01:02:54.418+07:00,837453772796513547,397653,507209,476039,172751
1784138574437038962,2026-07-16T01:02:54.437+07:00,837453772796513547,397576,506975,475934,172695
1784138574455220780,2026-07-16T01:02:54.455+07:00,837453772796513547,397563,506939,475865,172708
1784138574473402598,2026-07-16T01:02:54.473+07:00,837453772796513547,397465,506815,475827,172738
1784138574491584416,2026-07-16T01:02:54.491+07:00,837453772796513547,397413,506691,475722,172749
1784138574509766234,2026-07-16T01:02:54.509+07:00,837453772796513547,397323,506570,475677,172764
1784138574527948052,2026-07-16T01:02:54.527+07:00,837453772796513547,397161,506487,475531,172673
1784138574546129870,2026-07-16T01:02:54.546+07:00,837453772796513547,397147,506380,475503,172708
1784138574564311688,2026-07-16T01:02:54.564+07:00,837453772796513547,397183,506334,475523,172695
1784138574582493506,2026-07-16T01:02:54.582+07:00,837453772796513547,397076,506237,475459,172716
1784138574600675324,2026-07-16T01:02:54.600+07:00,837453772796513547,397064,506222,475407,172706
1784138574618857142,2026-07-16T01:02:54.618+07:00,837453772796513547,397044,506216,475435,172751
1784138574637038960,2026-07-16T01:02:54.637+07:00,837453772796513547,397041,506179,475436,172829
1784138574655220778,2026-07-16T01:02:54.655+07:00,837453772796513547,396990,506098,475375,172765
1784138574673402596,2026-07-16T01:02:54.673+07:00,837453772796513547,396990,506113,475324,172765
1784138574691584414,2026-07-16T01:02:54.691+07:00,837453772796513547,396964,506025,475361,172736
1784138574709766232,2026-07-16T01:02:54.709+07:00,837453772796513547,396968,506020,475346,172718
1784138574727948050,2026-07-16T01:02:54.727+07:00,837453772796513547,396982,506024,475368,172766
1784138574746129868,2026-07-16T01:02:54.746+07:00,837453772796513547,396922,505978,475342,172792
1784138574764311686,2026-07-16T01:02:54.764+07:00,837453772796513547,396987,506012,475371,172821
1784138574782493504,2026-07-16T01:02:54.782+07:00,837453772796513547,396928,505989,475344,172741
1784138574800675322,2026-07-16T01:02:54.800+07:00,837453772796513547,396970,506042,475352,172752
1784138574818857140,2026-07-16T01:02:54.818+07:00,837453772796513547,396984,506047,475449,172753
1784138574837038958,2026-07-16T01:02:54.837+07:00,837453772796513547,396995,506114,475397,172714
1784138574855220776,2026-07-16T01:02:54.855+07:00,837453772796513547,397017,506086,475413,172738
1784138574873402594,2026-07-16T01:02:54.873+07:00,837453772796513547,396960,506076,475410,172663
1784138574891584412,2026-07-16T01:02:54.891+07:00,837453772796513547,397049,506162,475457,172755
1784138574909766230,2026-07-16T01:02:54.909+07:00,837453773579022532,397012,506138,475483,172738
1784138574927948048,2026-07-16T01:02:54.927+07:00,837453773579022532,397047,506160,475545,172779
1784138574946129866,2026-07-16T01:02:54.946+07:00,837453773579022532,397109,506256,475544,172728
1784138574964311684,2026-07-16T01:02:54.964+07:00,837453773579022532,397170,506296,475603,172738
1784138574982493502,2026-07-16T01:02:54.982+07:00,837453773579022532,397119,506356,475605,172712
1784138575000675320,2026-07-16T01:02:55.000+07:00,837453773579022532,397177,506429,475658,172715
1784138575018857138,2026-07-16T01:02:55.018+07:00,837453773579022532,397233,506451,475699,172725
1784138575037038956,2026-07-16T01:02:55.037+07:00,837453773579022532,397242,506429,475734,172732
1784138575055220774,2026-07-16T01:02:55.055+07:00,837453773579022532,397317,506545,475731,172725
1784138575073402592,2026-07-16T01:02:55.073+07:00,837453773579022532,397357,506653,475841,172802
1784138575091584410,2026-07-16T01:02:55.091+07:00,837453773579022532,397335,506614,475899,172771
1784138575109766228,2026-07-16T01:02:55.109+07:00,837453773579022532,397463,506643,475888,172770
1784138575127948046,2026-07-16T01:02:55.127+07:00,837453773579022532,397490,506769,475968,172723
1784138575146129864,2026-07-16T01:02:55.146+07:00,837453773579022532,397491,506837,476015,172708
1784138575164311682,2026-07-16T01:02:55.164+07:00,837453773579022532,397643,506912,476124,172818
1784138575182493500,2026-07-16T01:02:55.182+07:00,837453773579022532,397560,506986,476121,172767
1784138575200675318,2026-07-16T01:02:55.200+07:00,837453773579022532,397654,507097,476229,172749
1784138575218857136,2026-07-16T01:02:55.218+07:00,837453773579022532,397733,507111,476263,172767
1784138575237038954,2026-07-16T01:02:55.237+07:00,837453773579022532,397775,507247,476334,172765
1784138575255220772,2026-07-16T01:02:55.255+07:00,837453773579022532,397824,507241,476354,172801
1784138575273402590,2026-07-16T01:02:55.273+07:00,837453773579022532,397822,507268,476319,172801
1784138575291584408,2026-07-16T01:02:55.291+07:00,837453773579022532,397741,507191,476211,172751
1784138575309766226,2026-07-16T01:02:55.309+07:00,837453773579022532,397661,507063,476142,172766
1784138575327948044,2026-07-16T01:02:55.327+07:00,837453773579022532,397593,506952,476136,172772
1784138575346129862,2026-07-16T01:02:55.346+07:00,837453773579022532,397525,506729,476024,172743
1784138575364311680,2026-07-16T01:02:55.364+07:00,837453773579022532,397448,506596,475920,172710
1784138575382493498,2026-07-16T01:02:55.382+07:00,837453773579022532,397321,506456,475843,172752
1784138575400675316,2026-07-16T01:02:55.400+07:00,837453773579022532,397260,506280,475766,172759
1784138575418857134,2026-07-16T01:02:55.418+07:00,837453773579022532,397149,506102,475652,172742
1784138575437038952,2026-07-16T01:02:55.437+07:00,837453773579022532,397109,505982,475610,172742
1784138575455220770,2026-07-16T01:02:55.455+07:00,837453773579022532,396994,505836,475532,172767
1784138575473402588,2026-07-16T01:02:55.473+07:00,837453773579022532,396898,505687,475361,172755
1784138575491584406,2026-07-16T01:02:55.491+07:00,837453773579022532,396896,505597,475332,172777
1784138575509766224,2026-07-16T01:02:55.509+07:00,837453773579022532,396801,505489,475250,172738
1784138575527948042,2026-07-16T01:02:55.527+07:00,837453773579022532,396788,505423,475217,172738
1784138575546129860,2026-07-16T01:02:55.546+07:00,837453773579022532,396774,505372,475234,172759
1784138575564311678,2026-07-16T01:02:55.564+07:00,837453773579022532,396791,505414,475165,172751
1784138575582493496,2026-07-16T01:02:55.582+07:00,837453773579022532,396664,505273,475100,172732
1784138575600675314,2026-07-16T01:02:55.600+07:00,837453773579022532,396635,505190,475054,172703
1784138575618857132,2026-07-16T01:02:55.618+07:00,837453773579022532,396583,505209,475037,172687
1784138575637038950,2026-07-16T01:02:55.637+07:00,837453773579022532,396576,505167,474947,172733
1784138575655220768,2026-07-16T01:02:55.655+07:00,837453773579022532,396653,505132,474989,172782
1784138575673402586,2026-07-16T01:02:55.673+07:00,837453773579022532,396547,505097,474880,172758
1784138575691584404,2026-07-16T01:02:55.691+07:00,837453774379729400,396609,505096,474937,172800
1784138575709766222,2026-07-16T01:02:55.709+07:00,837453774379729400,396487,505053,474930,172685
1784138575727948040,2026-07-16T01:02:55.727+07:00,837453774379729400,396580,505003,474892,172734
1784138575746129858,2026-07-16T01:02:55.746+07:00,837453774379729400,396523,505006,474863,172755
1784138575764311676,2026-07-16T01:02:55.764+07:00,837453774379729400,396563,504993,474885,172768
1784138575782493494,2026-07-16T01:02:55.782+07:00,837453774379729400,396591,505096,474948,172760
1784138575800675312,2026-07-16T01:02:55.800+07:00,837453774379729400,396625,505045,474943,172744
1784138575818857130,2026-07-16T01:02:55.818+07:00,837453774379729400,396642,505068,474897,172718
1784138575837038948,2026-07-16T01:02:55.837+07:00,837453774379729400,396635,505111,474920,172752
1784138575855220766,2026-07-16T01:02:55.855+07:00,837453774379729400,396646,505081,474903,172702
1784138575873402584,2026-07-16T01:02:55.873+07:00,837453774379729400,396601,505104,474929,172768
1784138575891584402,2026-07-16T01:02:55.891+07:00,837453774379729400,396723,505234,474924,172766
1784138575909766220,2026-07-16T01:02:55.909+07:00,837453774379729400,396775,505225,475010,172729
1784138575927948038,2026-07-16T01:02:55.927+07:00,837453774379729400,396768,505307,475074,172749
1784138575946129856,2026-07-16T01:02:55.946+07:00,837453774379729400,396778,505269,475118,172727
1784138575964311674,2026-07-16T01:02:55.964+07:00,837453774379729400,396832,505376,475152,172733
1784138575982493492,2026-07-16T01:02:55.982+07:00,837453774379729400,396883,505442,475174,172789
1784138576000675310,2026-07-16T01:02:56.000+07:00,837453774379729400,396854,505452,475158,172670
1784138576018857128,2026-07-16T01:02:56.018+07:00,837453774379729400,396950,505569,475259,172752
1784138576037038946,2026-07-16T01:02:56.037+07:00,837453774379729400,396928,505617,475220,172720
1784138576055220764,2026-07-16T01:02:56.055+07:00,837453774379729400,397014,505685,475319,172835
1784138576073402582,2026-07-16T01:02:56.073+07:00,837453774379729400,397083,505716,475363,172750
1784138576091584400,2026-07-16T01:02:56.091+07:00,837453774379729400,397109,505733,475345,172789
1784138576109766218,2026-07-16T01:02:56.109+07:00,837453774379729400,397236,505832,475567,172824
1784138576127948036,2026-07-16T01:02:56.127+07:00,837453774379729400,397217,505912,475476,172794
1784138576146129854,2026-07-16T01:02:56.146+07:00,837453774379729400,397252,505942,475542,172755
1784138576164311672,2026-07-16T01:02:56.164+07:00,837453774379729400,397330,506100,475626,172765
1784138576182493490,2026-07-16T01:02:56.182+07:00,837453774379729400,397352,506201,475694,172760
1784138576200675308,2026-07-16T01:02:56.200+07:00,837453774379729400,397375,506235,475760,172721
1784138576218857126,2026-07-16T01:02:56.218+07:00,837453774379729400,397457,506326,475834,172753
1784138576237038944,2026-07-16T01:02:56.237+07:00,837453774379729400,397485,506385,475821,172798
1784138576255220762,2026-07-16T01:02:56.255+07:00,837453774379729400,397441,506262,475747,172743
1784138576273402580,2026-07-16T01:02:56.273+07:00,837453774379729400,397427,506193,475696,172812
1784138576291584398,2026-07-16T01:02:56.291+07:00,837453774379729400,397263,506023,475523,172774
1784138576309766216,2026-07-16T01:02:56.309+07:00,837453774379729400,397191,505861,475455,172764
1784138576327948034,2026-07-16T01:02:56.327+07:00,837453774379729400,397176,505732,475318,172742
1784138576346129852,2026-07-16T01:02:56.346+07:00,837453774379729400,397062,505563,475313,172795
1784138576364311670,2026-07-16T01:02:56.364+07:00,837453774379729400,397019,505466,475188,172791
1784138576382493488,2026-07-16T01:02:56.382+07:00,837453774379729400,396937,505294,475052,172731
1784138576400675306,2026-07-16T01:02:56.400+07:00,837453774379729400,396793,505159,474953,172744
1784138576418857124,2026-07-16T01:02:56.418+07:00,837453774379729400,396766,505050,474824,172764
1784138576437038942,2026-07-16T01:02:56.437+07:00,837453774379729400,396728,504941,474829,172791
1784138576455220760,2026-07-16T01:02:56.455+07:00,837453774379729400,396610,504815,474676,172701
1784138576473402578,2026-07-16T01:02:56.473+07:00,837453774379729400,396628,504779,474710,172794
1784138576491584396,2026-07-16T01:02:56.491+07:00,837453775271454683,396584,504652,474584,172761
1784138576509766214,2026-07-16T01:02:56.509+07:00,837453775271454683,396513,504620,474551,172764
1784138576527948032,2026-07-16T01:02:56.527+07:00,837453775271454683,396450,504578,474508,172776
1784138576546129850,2026-07-16T01:02:56.546+07:00,837453775271454683,396482,504598,474465,172814
1784138576564311668,2026-07-16T01:02:56.564+07:00,837453775271454683,396414,504539,474380,172795
1784138576582493486,2026-07-16T01:02:56.582+07:00,837453775271454683,396428,504465,474341,172781
1784138576600675304,2026-07-16T01:02:56.600+07:00,837453775271454683,396339,504415,474328,172726
1784138576618857122,2026-07-16T01:02:56.618+07:00,837453775271454683,396334,504395,474229,172677
1784138576637038940,2026-07-16T01:02:56.637+07:00,837453775271454683,396321,504341,474323,172754
1784138576655220758,2026-07-16T01:02:56.655+07:00,837453775271454683,396289,504287,474220,172769
1784138576673402576,2026-07-16T01:02:56.673+07:00,837453775271454683,396355,504274,474277,172767
1784138576691584394,2026-07-16T01:02:56.691+07:00,837453775271454683,396322,504331,474252,172788
1784138576709766212,2026-07-16T01:02:56.709+07:00,837453775271454683,396372,504385,474257,172783
1784138576727948030,2026-07-16T01:02:56.727+07:00,837453775271454683,396340,504436,474230,172788
1784138576746129848,2026-07-16T01:02:56.746+07:00,837453775271454683,396318,504412,474260,172716
1784138576764311666,2026-07-16T01:02:56.764+07:00,837453775271454683,396379,504393,474282,172766
1784138576782493484,2026-07-16T01:02:56.782+07:00,837453775271454683,396361,504424,474284,172749
1784138576800675302,2026-07-16T01:02:56.800+07:00,837453775271454683,396389,504466,474274,172737
1784138576818857120,2026-07-16T01:02:56.818+07:00,837453775271454683,396467,504481,474296,172762
1784138576837038938,2026-07-16T01:02:56.837+07:00,837453775271454683,396471,504512,474292,172753
1784138576855220756,2026-07-16T01:02:56.855+07:00,837453775271454683,396486,504514,474301,172746
1784138576873402574,2026-07-16T01:02:56.873+07:00,837453775271454683,396460,504579,474300,172675
1784138576891584392,2026-07-16T01:02:56.891+07:00,837453775271454683,396542,504641,474348,172764
1784138576909766210,2026-07-16T01:02:56.909+07:00,837453775271454683,396553,504612,474344,172718
1784138576927948028,2026-07-16T01:02:56.927+07:00,837453775271454683,396567,504722,474393,172771
1784138576946129846,2026-07-16T01:02:56.946+07:00,837453775271454683,396661,504838,474483,172795
1784138576964311664,2026-07-16T01:02:56.964+07:00,837453775271454683,396707,504847,474492,172745
1784138576982493482,2026-07-16T01:02:56.982+07:00,837453775271454683,396688,504872,474491,172749
1784138577000675300,2026-07-16T01:02:57.000+07:00,837453775271454683,396727,504940,474457,172729
1784138577018857118,2026-07-16T01:02:57.018+07:00,837453775271454683,396759,505011,474540,172744
1784138577037038936,2026-07-16T01:02:57.037+07:00,837453775271454683,396846,505105,474641,172779
1784138577055220754,2026-07-16T01:02:57.055+07:00,837453775271454683,396928,505149,474634,172774
1784138577073402572,2026-07-16T01:02:57.073+07:00,837453775271454683,396903,505233,474664,172738
1784138577091584390,2026-07-16T01:02:57.091+07:00,837453775271454683,396987,505306,474703,172769
1784138577109766208,2026-07-16T01:02:57.109+07:00,837453775271454683,396932,505383,474755,172758
1784138577127948026,2026-07-16T01:02:57.127+07:00,837453775271454683,397042,505419,474786,172781
1784138577146129844,2026-07-16T01:02:57.146+07:00,837453775271454683,397016,505472,474812,172741
1784138577164311662,2026-07-16T01:02:57.164+07:00,837453775271454683,397058,505459,474853,172775
1784138577182493480,2026-07-16T01:02:57.182+07:00,837453775271454683,397032,505397,474755,172683
1784138577200675298,2026-07-16T01:02:57.200+07:00,837453775271454683,396966,505274,474679,172719
1784138577218857116,2026-07-16T01:02:57.218+07:00,837453775271454683,396883,505193,474612,172712
1784138577237038934,2026-07-16T01:02:57.237+07:00,837453775271454683,396841,505129,474608,172758
1784138577255220752,2026-07-16T01:02:57.255+07:00,837453775271454683,396765,504952,474440,172704
1784138577273402570,2026-07-16T01:02:57.273+07:00,837453775271454683,396700,504821,474339,172732
1784138577291584388,2026-07-16T01:02:57.291+07:00,837453775271454683,396651,504752,474280,172771
1784138577309766206,2026-07-16T01:02:57.309+07:00,837453775271454683,396556,504600,474177,172803
1784138577327948024,2026-07-16T01:02:57.327+07:00,837453775271454683,396428,504435,474084,172732
1784138577346129842,2026-07-16T01:02:57.346+07:00,837453775271454683,396322,504323,473921,172736
1784138577364311660,2026-07-16T01:02:57.364+07:00,837453775271454683,396265,504222,473804,172725
1784138577382493478,2026-07-16T01:02:57.382+07:00,837453776035767311,396197,504156,473754,172724
1784138577400675296,2026-07-16T01:02:57.400+07:00,837453776035767311,396177,504171,473745,172792
1784138577418857114,2026-07-16T01:02:57.418+07:00,837453776035767311,396132,504133,473608,172758
1784138577437038932,2026-07-16T01:02:57.437+07:00,837453776035767311,396099,504096,473583,172690
1784138577455220750,2026-07-16T01:02:57.455+07:00,837453776035767311,396088,504051,473612,172747
1784138577473402568,2026-07-16T01:02:57.473+07:00,837453776035767311,396059,504023,473496,172768
1784138577491584386,2026-07-16T01:02:57.491+07:00,837453776035767311,396138,504034,473582,172788
1784138577509766204,2026-07-16T01:02:57.509+07:00,837453776035767311,396049,503943,473455,172746
1784138577527948022,2026-07-16T01:02:57.527+07:00,837453776035767311,396067,503885,473484,172740
1784138577546129840,2026-07-16T01:02:57.546+07:00,837453776035767311,395995,503880,473403,172777
1784138577564311658,2026-07-16T01:02:57.564+07:00,837453776035767311,396029,503984,473366,172755
1784138577582493476,2026-07-16T01:02:57.582+07:00,837453776035767311,396012,503846,473344,172745
1784138577600675294,2026-07-16T01:02:57.600+07:00,837453776035767311,396075,503835,473387,172822
1784138577618857112,2026-07-16T01:02:57.618+07:00,837453776035767311,396025,503891,473337,172745
1784138577637038930,2026-07-16T01:02:57.637+07:00,837453776035767311,396049,503920,473293,172720
1784138577655220748,2026-07-16T01:02:57.655+07:00,837453776035767311,396076,503930,473327,172744
1784138577673402566,2026-07-16T01:02:57.673+07:00,837453776035767311,396030,504022,473305,172699
1784138577691584384,2026-07-16T01:02:57.691+07:00,837453776035767311,396035,503998,473321,172733
1784138577709766202,2026-07-16T01:02:57.709+07:00,837453776035767311,396073,504113,473404,172677
1784138577727948020,2026-07-16T01:02:57.727+07:00,837453776035767311,396141,504120,473356,172701
1784138577746129838,2026-07-16T01:02:57.746+07:00,837453776035767311,396141,504164,473426,172727
1784138577764311656,2026-07-16T01:02:57.764+07:00,837453776035767311,396125,504171,473410,172702
1784138577782493474,2026-07-16T01:02:57.782+07:00,837453776035767311,396237,504368,473514,172782
1784138577800675292,2026-07-16T01:02:57.800+07:00,837453776035767311,396252,504351,473506,172729
1784138577818857110,2026-07-16T01:02:57.818+07:00,837453776035767311,396312,504402,473545,172749
1784138577837038928,2026-07-16T01:02:57.837+07:00,837453776035767311,396324,504463,473626,172724
1784138577855220746,2026-07-16T01:02:57.855+07:00,837453776035767311,396363,504552,473640,172731
1784138577873402564,2026-07-16T01:02:57.873+07:00,837453776035767311,396442,504550,473676,172706
1784138577891584382,2026-07-16T01:02:57.891+07:00,837453776035767311,396465,504689,473678,172725
1784138577909766200,2026-07-16T01:02:57.909+07:00,837453776035767311,396439,504728,473714,172648
1784138577927948018,2026-07-16T01:02:57.927+07:00,837453776035767311,396563,504785,473792,172753
1784138577946129836,2026-07-16T01:02:57.946+07:00,837453776035767311,396612,504808,473785,172720
1784138577964311654,2026-07-16T01:02:57.964+07:00,837453776035767311,396567,504888,473860,172746
1784138577982493472,2026-07-16T01:02:57.982+07:00,837453776035767311,396639,504984,473916,172731
1784138578000675290,2026-07-16T01:02:58.000+07:00,837453776035767311,396711,505052,473936,172710
1784138578018857108,2026-07-16T01:02:58.018+07:00,837453776035767311,396735,505133,473988,172701
1784138578037038926,2026-07-16T01:02:58.037+07:00,837453776035767311,396832,505239,473992,172686
1784138578055220744,2026-07-16T01:02:58.055+07:00,837453776035767311,396864,505351,474160,172741
1784138578073402562,2026-07-16T01:02:58.073+07:00,837453776035767311,396934,505423,474171,172805
1784138578091584380,2026-07-16T01:02:58.091+07:00,837453776035767311,396893,505413,474140,172749
1784138578109766198,2026-07-16T01:02:58.109+07:00,837453776035767311,396885,505410,474154,172782
1784138578127948016,2026-07-16T01:02:58.127+07:00,837453776035767311,396877,505243,474021,172788
1784138578146129834,2026-07-16T01:02:58.146+07:00,837453776854672062,396815,505152,473924,172694
1784138578164311652,2026-07-16T01:02:58.164+07:00,837453776854672062,396662,505043,473863,172741
1784138578182493470,2026-07-16T01:02:58.182+07:00,837453776854672062,396639,504908,473747,172782
1784138578200675288,2026-07-16T01:02:58.200+07:00,837453776854672062,396532,504798,473669,172796
1784138578218857106,2026-07-16T01:02:58.218+07:00,837453776854672062,396404,504563,473538,172719
1784138578237038924,2026-07-16T01:02:58.237+07:00,837453776854672062,396274,504508,473420,172738
1784138578255220742,2026-07-16T01:02:58.255+07:00,837453776854672062,396303,504359,473359,172791
1784138578273402560,2026-07-16T01:02:58.273+07:00,837453776854672062,396155,504187,473221,172777
1784138578291584378,2026-07-16T01:02:58.291+07:00,837453776854672062,396074,504135,473175,172734
1784138578309766196,2026-07-16T01:02:58.309+07:00,837453776854672062,395967,503958,473018,172680
1784138578327948014,2026-07-16T01:02:58.327+07:00,837453776854672062,395958,503932,472958,172760
1784138578346129832,2026-07-16T01:02:58.346+07:00,837453776854672062,395965,503921,472910,172755
1784138578364311650,2026-07-16T01:02:58.364+07:00,837453776854672062,395887,503875,472802,172757
1784138578382493468,2026-07-16T01:02:58.382+07:00,837453776854672062,395867,503859,472792,172743
1784138578400675286,2026-07-16T01:02:58.400+07:00,837453776854672062,395810,503810,472745,172760
1784138578418857104,2026-07-16T01:02:58.418+07:00,837453776854672062,395789,503744,472690,172775
1784138578437038922,2026-07-16T01:02:58.437+07:00,837453776854672062,395743,503738,472654,172736
1784138578455220740,2026-07-16T01:02:58.455+07:00,837453776854672062,395740,503725,472565,172725
1784138578473402558,2026-07-16T01:02:58.473+07:00,837453776854672062,395687,503611,472551,172712
1784138578491584376,2026-07-16T01:02:58.491+07:00,837453776854672062,395691,503575,472525,172721
1784138578509766194,2026-07-16T01:02:58.509+07:00,837453776854672062,395652,503610,472535,172765
1784138578527948012,2026-07-16T01:02:58.527+07:00,837453776854672062,395630,503599,472497,172729
1784138578546129830,2026-07-16T01:02:58.546+07:00,837453776854672062,395702,503658,472524,172783
1784138578564311648,2026-07-16T01:02:58.564+07:00,837453776854672062,395605,503591,472429,172710
1784138578582493466,2026-07-16T01:02:58.582+07:00,837453776854672062,395634,503662,472473,172707
1784138578600675284,2026-07-16T01:02:58.600+07:00,837453776854672062,395709,503697,472423,172771
1784138578618857102,2026-07-16T01:02:58.618+07:00,837453776854672062,395722,503622,472437,172731
1784138578637038920,2026-07-16T01:02:58.637+07:00,837453776854672062,395776,503668,472473,172784
1784138578655220738,2026-07-16T01:02:58.655+07:00,837453776854672062,395721,503705,472455,172732
1784138578673402556,2026-07-16T01:02:58.673+07:00,837453776854672062,395745,503776,472525,172747
1784138578691584374,2026-07-16T01:02:58.691+07:00,837453776854672062,395721,503810,472546,172746
1784138578709766192,2026-07-16T01:02:58.709+07:00,837453776854672062,395738,503927,472610,172735
1784138578727948010,2026-07-16T01:02:58.727+07:00,837453776854672062,395793,503938,472589,172767
1784138578746129828,2026-07-16T01:02:58.746+07:00,837453776854672062,395784,503976,472565,172728
1784138578764311646,2026-07-16T01:02:58.764+07:00,837453776854672062,395857,504048,472590,172820
1784138578782493464,2026-07-16T01:02:58.782+07:00,837453776854672062,395867,504143,472631,172798
1784138578800675282,2026-07-16T01:02:58.800+07:00,837453776854672062,395920,504109,472683,172787
1784138578818857100,2026-07-16T01:02:58.818+07:00,837453776854672062,395967,504153,472723,172734
1784138578837038918,2026-07-16T01:02:58.837+07:00,837453776854672062,396006,504266,472765,172712
1784138578855220736,2026-07-16T01:02:58.855+07:00,837453776854672062,396051,504365,472828,172760
1784138578873402554,2026-07-16T01:02:58.873+07:00,837453776854672062,396073,504319,472863,172736
1784138578891584372,2026-07-16T01:02:58.891+07:00,837453776854672062,396135,504543,472973,172801
1784138578909766190,2026-07-16T01:02:58.909+07:00,837453776854672062,396185,504513,472986,172802
1784138578927948008,2026-07-16T01:02:58.927+07:00,837453776854672062,396155,504609,473033,172759
1784138578946129826,2026-07-16T01:02:58.946+07:00,837453776854672062,396242,504713,473085,172726
1784138578964311644,2026-07-16T01:02:58.964+07:00,837453777619074720,396297,504664,473054,172723
1784138578982493462,2026-07-16T01:02:58.982+07:00,837453777619074720,396329,504825,473172,172769
1784138579000675280,2026-07-16T01:02:59.000+07:00,837453777619074720,396347,504830,473178,172753
1784138579018857098,2026-07-16T01:02:59.018+07:00,837453777619074720,396458,505017,473184,172723
1784138579037038916,2026-07-16T01:02:59.037+07:00,837453777619074720,396465,504985,473201,172780
1784138579055220734,2026-07-16T01:02:59.055+07:00,837453777619074720,396438,504975,473226,172714
1784138579073402552,2026-07-16T01:02:59.073+07:00,837453777619074720,396442,504985,473165,172745
1784138579091584370,2026-07-16T01:02:59.091+07:00,837453777619074720,396290,504792,473122,172746
1784138579109766188,2026-07-16T01:02:59.109+07:00,837453777619074720,396244,504687,472997,172704
1784138579127948006,2026-07-16T01:02:59.127+07:00,837453777619074720,396145,504591,472896,172738
1784138579146129824,2026-07-16T01:02:59.146+07:00,837453777619074720,396067,504392,472744,172775
1784138579164311642,2026-07-16T01:02:59.164+07:00,837453777619074720,395923,504209,472589,172709
1784138579182493460,2026-07-16T01:02:59.182+07:00,837453777619074720,395808,504120,472479,172761
1784138579200675278,2026-07-16T01:02:59.200+07:00,837453777619074720,395743,503984,472406,172755
1784138579218857096,2026-07-16T01:02:59.218+07:00,837453777619074720,395668,503814,472308,172810
1784138579237038914,2026-07-16T01:02:59.237+07:00,837453777619074720,395550,503713,472174,172791
1784138579255220732,2026-07-16T01:02:59.255+07:00,837453777619074720,395460,503636,472070,172734
1784138579273402550,2026-07-16T01:02:59.273+07:00,837453777619074720,395391,503491,472031,172734
1784138579291584368,2026-07-16T01:02:59.291+07:00,837453777619074720,395396,503475,471950,172776
1784138579309766186,2026-07-16T01:02:59.309+07:00,837453777619074720,395313,503382,471878,172718
1784138579327948004,2026-07-16T01:02:59.327+07:00,837453777619074720,395278,503304,471807,172768
1784138579346129822,2026-07-16T01:02:59.346+07:00,837453777619074720,395248,503234,471711,172788
1784138579364311640,2026-07-16T01:02:59.364+07:00,837453777619074720,395145,503164,471664,172701
1784138579382493458,2026-07-16T01:02:59.382+07:00,837453777619074720,395107,503149,471671,172769
1784138579400675276,2026-07-16T01:02:59.400+07:00,837453777619074720,394996,503056,471577,172729
1784138579418857094,2026-07-16T01:02:59.418+07:00,837453777619074720,395014,503044,471584,172800
1784138579437038912,2026-07-16T01:02:59.437+07:00,837453777619074720,394958,502995,471548,172757
1784138579455220730,2026-07-16T01:02:59.455+07:00,837453777619074720,394946,502977,471517,172800
1784138579473402548,2026-07-16T01:02:59.473+07:00,837453777619074720,394958,502959,471443,172800
1784138579491584366,2026-07-16T01:02:59.491+07:00,837453777619074720,394922,502945,471449,172771
1784138579509766184,2026-07-16T01:02:59.509+07:00,837453777619074720,394845,502858,471390,172744
1784138579527948002,2026-07-16T01:02:59.527+07:00,837453777619074720,394864,502856,471396,172758
1784138579546129820,2026-07-16T01:02:59.546+07:00,837453777619074720,394903,502901,471437,172794
1784138579564311638,2026-07-16T01:02:59.564+07:00,837453777619074720,394879,502866,471411,172751
1784138579582493456,2026-07-16T01:02:59.582+07:00,837453777619074720,394903,502794,471341,172715
1784138579600675274,2026-07-16T01:02:59.600+07:00,837453777619074720,394907,502895,471342,172720
1784138579618857092,2026-07-16T01:02:59.618+07:00,837453777619074720,394858,502895,471400,172706
1784138579637038910,2026-07-16T01:02:59.637+07:00,837453777619074720,394941,502965,471449,172735
1784138579655220728,2026-07-16T01:02:59.655+07:00,837453777619074720,394964,503058,471533,172751
1784138579673402546,2026-07-16T01:02:59.673+07:00,837453777619074720,394982,503009,471494,172730
1784138579691584364,2026-07-16T01:02:59.691+07:00,837453777619074720,395009,503136,471525,172805
1784138579709766182,2026-07-16T01:02:59.709+07:00,837453777619074720,395041,503144,471553,172752
1784138579727948000,2026-07-16T01:02:59.727+07:00,837453778456342154,395095,503272,471700,172794
1784138579746129818,2026-07-16T01:02:59.746+07:00,837453778456342154,395096,503288,471697,172738
1784138579764311636,2026-07-16T01:02:59.764+07:00,837453778456342154,395220,503360,471775,172734
1784138579782493454,2026-07-16T01:02:59.782+07:00,837453778456342154,395261,503422,471827,172750
1784138579800675272,2026-07-16T01:02:59.800+07:00,837453778456342154,395380,503519,471898,172759
1784138579818857090,2026-07-16T01:02:59.818+07:00,837453778456342154,395431,503606,471966,172725
1784138579837038908,2026-07-16T01:02:59.837+07:00,837453778456342154,395494,503678,472027,172830
1784138579855220726,2026-07-16T01:02:59.855+07:00,837453778456342154,395587,503765,472113,172786
1784138579873402544,2026-07-16T01:02:59.873+07:00,837453778456342154,395632,503857,472236,172732
1784138579891584362,2026-07-16T01:02:59.891+07:00,837453778456342154,395706,503924,472258,172707
1784138579909766180,2026-07-16T01:02:59.909+07:00,837453778456342154,395821,504081,472405,172742
1784138579927947998,2026-07-16T01:02:59.927+07:00,837453778456342154,395929,504171,472513,172738
1784138579946129816,2026-07-16T01:02:59.946+07:00,837453778456342154,395961,504325,472597,172755
1784138579964311634,2026-07-16T01:02:59.964+07:00,837453778456342154,396095,504410,472624,172723
1784138579982493452,2026-07-16T01:02:59.982+07:00,837453778456342154,396042,504422,472628,172762
1784138580000675270,2026-07-16T01:03:00.000+07:00,837453778456342154,396017,504329,472570,172693
1784138580018857088,2026-07-16T01:03:00.018+07:00,837453778456342154,395898,504267,472539,172698
1784138580037038906,2026-07-16T01:03:00.037+07:00,837453778456342154,395927,504215,472522,172689
1784138580055220724,2026-07-16T01:03:00.055+07:00,837453778456342154,395847,504118,472449,172709
1784138580073402542,2026-07-16T01:03:00.073+07:00,837453778456342154,395856,503973,472434,172761
1784138580091584360,2026-07-16T01:03:00.091+07:00,837453778456342154,395809,503973,472379,172785
1784138580109766178,2026-07-16T01:03:00.109+07:00,837453778456342154,395762,503818,472322,172755
1784138580127947996,2026-07-16T01:03:00.127+07:00,837453778456342154,395708,503732,472243,172762
1784138580146129814,2026-07-16T01:03:00.146+07:00,837453778456342154,395632,503705,472212,172737
1784138580164311632,2026-07-16T01:03:00.164+07:00,837453778456342154,395535,503643,472060,172724
1784138580182493450,2026-07-16T01:03:00.182+07:00,837453778456342154,395555,503596,472026,172741
1784138580200675268,2026-07-16T01:03:00.200+07:00,837453778456342154,395516,503505,472017,172748
1784138580218857086,2026-07-16T01:03:00.218+07:00,837453778456342154,395519,503548,472042,172827
1784138580237038904,2026-07-16T01:03:00.237+07:00,837453778456342154,395501,503553,472027,172815
1784138580255220722,2026-07-16T01:03:00.255+07:00,837453778456342154,395433,503473,471971,172728
1784138580273402540,2026-07-16T01:03:00.273+07:00,837453778456342154,395551,503552,472004,172772
1784138580291584358,2026-07-16T01:03:00.291+07:00,837453778456342154,395480,503495,471954,172758
1784138580309766176,2026-07-16T01:03:00.309+07:00,837453778456342154,395452,503531,471939,172783
1784138580327947994,2026-07-16T01:03:00.327+07:00,837453778456342154,395396,503538,471907,172754
1784138580346129812,2026-07-16T01:03:00.346+07:00,837453778456342154,395407,503431,471904,172770
1784138580364311630,2026-07-16T01:03:00.364+07:00,837453778456342154,395435,503452,471928,172774
1784138580382493448,2026-07-16T01:03:00.382+07:00,837453778456342154,395434,503553,471958,172785
1784138580400675266,2026-07-16T01:03:00.400+07:00,837453778456342154,395407,503503,471946,172730
1784138580418857084,2026-07-16T01:03:00.418+07:00,837453778456342154,395504,503571,471946,172791
1784138580437038902,2026-07-16T01:03:00.437+07:00,837453778456342154,395500,503570,471903,172776
1784138580455220720,2026-07-16T01:03:00.455+07:00,837453778456342154,395501,503569,471908,172822
1784138580473402538,2026-07-16T01:03:00.473+07:00,837453778456342154,395518,503626,471989,172805
1784138580491584356,2026-07-16T01:03:00.491+07:00,837453778456342154,395469,503699,472002,172771
1784138580509766174,2026-07-16T01:03:00.509+07:00,837453778456342154,395477,503658,471951,172752
1784138580527947992,2026-07-16T01:03:00.527+07:00,837453778456342154,395496,503651,472029,172708
1784138580546129810,2026-07-16T01:03:00.546+07:00,837453778456342154,395461,503692,472035,172720
1784138580564311628,2026-07-16T01:03:00.564+07:00,837453779220757016,395538,503731,472051,172779
1784138580582493446,2026-07-16T01:03:00.582+07:00,837453779220757016,395562,503812,472073,172785
1784138580600675264,2026-07-16T01:03:00.600+07:00,837453779220757016,395633,503819,472108,172783
1784138580618857082,2026-07-16T01:03:00.618+07:00,837453779220757016,395617,503890,472138,172749
1784138580637038900,2026-07-16T01:03:00.637+07:00,837453779220757016,395671,503915,472196,172732
1784138580655220718,2026-07-16T01:03:00.655+07:00,837453779220757016,395772,504022,472333,172824
1784138580673402536,2026-07-16T01:03:00.673+07:00,837453779220757016,395793,504051,472380,172809
1784138580691584354,2026-07-16T01:03:00.691+07:00,837453779220757016,395798,504125,472365,172788
1784138580709766172,2026-07-16T01:03:00.709+07:00,837453779220757016,395904,504241,472467,172780
1784138580727947990,2026-07-16T01:03:00.727+07:00,837453779220757016,395924,504344,472546,172792
1784138580746129808,2026-07-16T01:03:00.746+07:00,837453779220757016,396011,504430,472608,172789
1784138580764311626,2026-07-16T01:03:00.764+07:00,837453779220757016,396026,504518,472667,172743
1784138580782493444,2026-07-16T01:03:00.782+07:00,837453779220757016,396052,504630,472719,172785
1784138580800675262,2026-07-16T01:03:00.800+07:00,837453779220757016,396137,504687,472776,172726
1784138580818857080,2026-07-16T01:03:00.818+07:00,837453779220757016,396193,504764,472907,172764
1784138580837038898,2026-07-16T01:03:00.837+07:00,837453779220757016,396212,504771,472877,172721
1784138580855220716,2026-07-16T01:03:00.855+07:00,837453779220757016,396233,504783,472861,172731
1784138580873402534,2026-07-16T01:03:00.873+07:00,837453779220757016,396211,504694,472780,172740
1784138580891584352,2026-07-16T01:03:00.891+07:00,837453779220757016,396112,504684,472774,172728
1784138580909766170,2026-07-16T01:03:00.909+07:00,837453779220757016,396063,504518,472696,172751
1784138580927947988,2026-07-16T01:03:00.927+07:00,837453779220757016,395882,504393,472542,172728
1784138580946129806,2026-07-16T01:03:00.946+07:00,837453779220757016,395796,504310,472500,172770
1784138580964311624,2026-07-16T01:03:00.964+07:00,837453779220757016,395718,504191,472355,172763
1784138580982493442,2026-07-16T01:03:00.982+07:00,837453779220757016,395677,504045,472216,172732
1784138581000675260,2026-07-16T01:03:01.000+07:00,837453779220757016,395539,503899,472094,172720
1784138581018857078,2026-07-16T01:03:01.018+07:00,837453779220757016,395499,503759,472046,172704
1784138581037038896,2026-07-16T01:03:01.037+07:00,837453779220757016,395416,503596,471914,172776
1784138581055220714,2026-07-16T01:03:01.055+07:00,837453779220757016,395366,503583,471864,172762
1784138581073402532,2026-07-16T01:03:01.073+07:00,837453779220757016,395312,503446,471740,172765
1784138581091584350,2026-07-16T01:03:01.091+07:00,837453779220757016,395263,503405,471761,172764
1784138581109766168,2026-07-16T01:03:01.109+07:00,837453779220757016,395168,503321,471660,172733
1784138581127947986,2026-07-16T01:03:01.127+07:00,837453779220757016,395176,503293,471684,172770
1784138581146129804,2026-07-16T01:03:01.146+07:00,837453779220757016,395144,503330,471693,172789
1784138581164311622,2026-07-16T01:03:01.164+07:00,837453779220757016,395180,503282,471625,172780
1784138581182493440,2026-07-16T01:03:01.182+07:00,837453779220757016,395196,503276,471593,172775
1784138581200675258,2026-07-16T01:03:01.200+07:00,837453779220757016,395146,503211,471546,172760
1784138581218857076,2026-07-16T01:03:01.218+07:00,837453779220757016,395158,503212,471620,172749
1784138581237038894,2026-07-16T01:03:01.237+07:00,837453779220757016,395144,503199,471524,172774
1784138581255220712,2026-07-16T01:03:01.255+07:00,837453779220757016,395097,503192,471512,172763
1784138581273402530,2026-07-16T01:03:01.273+07:00,837453779220757016,395158,503270,471617,172763
1784138581291584348,2026-07-16T01:03:01.291+07:00,837453779220757016,395205,503307,471597,172784
1784138581309766166,2026-07-16T01:03:01.309+07:00,837453779220757016,395243,503341,471607,172781
1784138581327947984,2026-07-16T01:03:01.327+07:00,837453780003397233,395292,503387,471642,172771
1784138581346129802,2026-07-16T01:03:01.346+07:00,837453780003397233,395308,503383,471758,172789
1784138581364311620,2026-07-16T01:03:01.364+07:00,837453780003397233,395326,503457,471766,172763
1784138581382493438,2026-07-16T01:03:01.382+07:00,837453780003397233,395312,503553,471800,172742
1784138581400675256,2026-07-16T01:03:01.400+07:00,837453780003397233,395356,503578,471820,172768
1784138581418857074,2026-07-16T01:03:01.418+07:00,837453780003397233,395408,503621,471944,172733
1784138581437038892,2026-07-16T01:03:01.437+07:00,837453780003397233,395455,503689,471999,172750
1784138581455220710,2026-07-16T01:03:01.455+07:00,837453780003397233,395545,503778,472006,172719
1784138581473402528,2026-07-16T01:03:01.473+07:00,837453780003397233,395563,503846,472059,172746
1784138581491584346,2026-07-16T01:03:01.491+07:00,837453780003397233,395637,503926,472150,172764
1784138581509766164,2026-07-16T01:03:01.509+07:00,837453780003397233,395723,503988,472219,172761
1784138581527947982,2026-07-16T01:03:01.527+07:00,837453780003397233,395770,504030,472270,172805
1784138581546129800,2026-07-16T01:03:01.546+07:00,837453780003397233,395787,504046,472349,172748
1784138581564311618,2026-07-16T01:03:01.564+07:00,837453780003397233,395906,504255,472488,172841
1784138581582493436,2026-07-16T01:03:01.582+07:00,837453780003397233,395938,504339,472483,172832
1784138581600675254,2026-07-16T01:03:01.600+07:00,837453780003397233,395984,504341,472519,172801
1784138581618857072,2026-07-16T01:03:01.618+07:00,837453780003397233,396015,504427,472639,172777
1784138581637038890,2026-07-16T01:03:01.637+07:00,837453780003397233,396017,504524,472670,172741
1784138581655220708,2026-07-16T01:03:01.655+07:00,837453780003397233,396130,504648,472718,172783
1784138581673402526,2026-07-16T01:03:01.673+07:00,837453780003397233,396165,504687,472770,172779
1784138581691584344,2026-07-16T01:03:01.691+07:00,837453780003397233,396232,504808,472786,172732
1784138581709766162,2026-07-16T01:03:01.709+07:00,837453780003397233,396199,504840,472874,172727
1784138581727947980,2026-07-16T01:03:01.727+07:00,837453780003397233,396180,504856,472887,172704
1784138581746129798,2026-07-16T01:03:01.746+07:00,837453780003397233,396197,504816,472930,172691
1784138581764311616,2026-07-16T01:03:01.764+07:00,837453780003397233,396216,504806,472874,172725
1784138581782493434,2026-07-16T01:03:01.782+07:00,837453780003397233,396086,504646,472702,172715
1784138581800675252,2026-07-16T01:03:01.800+07:00,837453780003397233,395990,504555,472611,172698
1784138581818857070,2026-07-16T01:03:01.818+07:00,837453780003397233,395859,504449,472499,172704
1784138581837038888,2026-07-16T01:03:01.837+07:00,837453780003397233,395774,504277,472376,172767
1784138581855220706,2026-07-16T01:03:01.855+07:00,837453780003397233,395633,503937,472181,172771
1784138581873402524,2026-07-16T01:03:01.873+07:00,837453780003397233,395510,503828,472089,172736
1784138581891584342,2026-07-16T01:03:01.891+07:00,837453780003397233,395394,503703,471917,172775
1784138581909766160,2026-07-16T01:03:01.909+07:00,837453780003397233,395315,503523,471806,172788
1784138581927947978,2026-07-16T01:03:01.927+07:00,837453780003397233,395168,503234,471673,172744
1784138581946129796,2026-07-16T01:03:01.946+07:00,837453780003397233,395053,503119,471526,172738
1784138581964311614,2026-07-16T01:03:01.964+07:00,837453780003397233,394984,503056,471493,172766
1784138581982493432,2026-07-16T01:03:01.982+07:00,837453780003397233,394904,502903,471339,172757
1784138582000675250,2026-07-16T01:03:02.000+07:00,837453780003397233,394832,502820,471224,172718
1784138582018857068,2026-07-16T01:03:02.018+07:00,837453780003397233,394765,502776,471148,172721
1784138582037038886,2026-07-16T01:03:02.037+07:00,837453780003397233,394701,502699,471177,172797
1784138582055220704,2026-07-16T01:03:02.055+07:00,837453780003397233,394673,502667,471123,172772
1784138582073402522,2026-07-16T01:03:02.073+07:00,837453780003397233,394581,502573,471041,172751
1784138582091584340,2026-07-16T01:03:02.091+07:00,837453780003397233,394503,502502,470971,172784
1784138582109766158,2026-07-16T01:03:02.109+07:00,837453780767836511,394486,502477,470854,172785
1784138582127947976,2026-07-16T01:03:02.127+07:00,837453780767836511,394542,502433,470832,172803
1784138582146129794,2026-07-16T01:03:02.146+07:00,837453780767836511,394455,502380,470816,172716
1784138582164311612,2026-07-16T01:03:02.164+07:00,837453780767836511,394386,502378,470805,172736
1784138582182493430,2026-07-16T01:03:02.182+07:00,837453780767836511,394380,502345,470722,172742
1784138582200675248,2026-07-16T01:03:02.200+07:00,837453780767836511,394392,502368,470763,172745
1784138582218857066,2026-07-16T01:03:02.218+07:00,837453780767836511,394331,502345,470619,172717
1784138582237038884,2026-07-16T01:03:02.237+07:00,837453780767836511,394348,502403,470721,172775
1784138582255220702,2026-07-16T01:03:02.255+07:00,837453780767836511,394413,502379,470712,172746
1784138582273402520,2026-07-16T01:03:02.273+07:00,837453780767836511,394314,502400,470637,172734
1784138582291584338,2026-07-16T01:03:02.291+07:00,837453780767836511,394403,502372,470712,172809
1784138582309766156,2026-07-16T01:03:02.309+07:00,837453780767836511,394327,502416,470620,172757
1784138582327947974,2026-07-16T01:03:02.327+07:00,837453780767836511,394358,502432,470629,172746
1784138582346129792,2026-07-16T01:03:02.346+07:00,837453780767836511,394436,502439,470638,172785
1784138582364311610,2026-07-16T01:03:02.364+07:00,837453780767836511,394373,502425,470661,172833
1784138582382493428,2026-07-16T01:03:02.382+07:00,837453780767836511,394357,502456,470742,172738
1784138582400675246,2026-07-16T01:03:02.400+07:00,837453780767836511,394362,502494,470746,172759
1784138582418857064,2026-07-16T01:03:02.418+07:00,837453780767836511,394443,502563,470785,172758
1784138582437038882,2026-07-16T01:03:02.437+07:00,837453780767836511,394494,502661,470817,172742
1784138582455220700,2026-07-16T01:03:02.455+07:00,837453780767836511,394536,502700,470830,172776
1784138582473402518,2026-07-16T01:03:02.473+07:00,837453780767836511,394581,502746,470914,172736
1784138582491584336,2026-07-16T01:03:02.491+07:00,837453780767836511,394594,502833,470971,172713
1784138582509766154,2026-07-16T01:03:02.509+07:00,837453780767836511,394645,502904,471014,172702
1784138582527947972,2026-07-16T01:03:02.527+07:00,837453780767836511,394706,502996,471063,172741
1784138582546129790,2026-07-16T01:03:02.546+07:00,837453780767836511,394820,503113,471157,172764
1784138582564311608,2026-07-16T01:03:02.564+07:00,837453780767836511,394890,503165,471183,172753
1784138582582493426,2026-07-16T01:03:02.582+07:00,837453780767836511,394987,503304,471407,172813
1784138582600675244,2026-07-16T01:03:02.600+07:00,837453780767836511,395068,503399,471443,172788
1784138582618857062,2026-07-16T01:03:02.618+07:00,837453780767836511,395080,503449,471411,172744
1784138582637038880,2026-07-16T01:03:02.637+07:00,837453780767836511,395095,503433,471501,172753
1784138582655220698,2026-07-16T01:03:02.655+07:00,837453780767836511,395055,503387,471438,172752
1784138582673402516,2026-07-16T01:03:02.673+07:00,837453780767836511,394983,503321,471417,172748
1784138582691584334,2026-07-16T01:03:02.691+07:00,837453780767836511,395008,503231,471311,172764
1784138582709766152,2026-07-16T01:03:02.709+07:00,837453780767836511,394960,503187,471267,172758
1784138582727947970,2026-07-16T01:03:02.727+07:00,837453780767836511,394907,503027,471221,172820
1784138582746129788,2026-07-16T01:03:02.746+07:00,837453780767836511,394811,502853,471131,172786
1784138582764311606,2026-07-16T01:03:02.764+07:00,837453780767836511,394751,502789,471062,172811
1784138582782493424,2026-07-16T01:03:02.782+07:00,837453780767836511,394712,502652,470960,172782
1784138582800675242,2026-07-16T01:03:02.800+07:00,837453780767836511,394633,502567,470900,172776
1784138582818857060,2026-07-16T01:03:02.818+07:00,837453780767836511,394624,502492,470891,172779
1784138582837038878,2026-07-16T01:03:02.837+07:00,837453780767836511,394523,502423,470778,172759
1784138582855220696,2026-07-16T01:03:02.855+07:00,837453780767836511,394507,502382,470733,172799
1784138582873402514,2026-07-16T01:03:02.873+07:00,837453781532306307,394464,502282,470699,172742
1784138582891584332,2026-07-16T01:03:02.891+07:00,837453781532306307,394468,502242,470641,172755
1784138582909766150,2026-07-16T01:03:02.909+07:00,837453781532306307,394422,502218,470622,172794
1784138582927947968,2026-07-16T01:03:02.927+07:00,837453781532306307,394427,502235,470687,172768
1784138582946129786,2026-07-16T01:03:02.946+07:00,837453781532306307,394340,502069,470509,172759
1784138582964311604,2026-07-16T01:03:02.964+07:00,837453781532306307,394368,502116,470482,172759
1784138582982493422,2026-07-16T01:03:02.982+07:00,837453781532306307,394394,502159,470523,172815
1784138583000675240,2026-07-16T01:03:03.000+07:00,837453781532306307,394295,502016,470453,172686
1784138583018857058,2026-07-16T01:03:03.018+07:00,837453781532306307,394336,502090,470474,172789
1784138583037038876,2026-07-16T01:03:03.037+07:00,837453781532306307,394335,502031,470465,172695
1784138583055220694,2026-07-16T01:03:03.055+07:00,837453781532306307,394309,502068,470472,172786
1784138583073402512,2026-07-16T01:03:03.073+07:00,837453781532306307,394287,502101,470523,172779
1784138583091584330,2026-07-16T01:03:03.091+07:00,837453781532306307,394377,502128,470549,172816
1784138583109766148,2026-07-16T01:03:03.109+07:00,837453781532306307,394336,502158,470501,172772
1784138583127947966,2026-07-16T01:03:03.127+07:00,837453781532306307,394397,502142,470576,172768
1784138583146129784,2026-07-16T01:03:03.146+07:00,837453781532306307,394436,502133,470581,172765
1784138583164311602,2026-07-16T01:03:03.164+07:00,837453781532306307,394503,502193,470693,172794
1784138583182493420,2026-07-16T01:03:03.182+07:00,837453781532306307,394497,502278,470659,172803
1784138583200675238,2026-07-16T01:03:03.200+07:00,837453781532306307,394497,502325,470664,172789
1784138583218857056,2026-07-16T01:03:03.218+07:00,837453781532306307,394625,502395,470831,172818
1784138583237038874,2026-07-16T01:03:03.237+07:00,837453781532306307,394623,502428,470850,172761
1784138583255220692,2026-07-16T01:03:03.255+07:00,837453781532306307,394659,502480,470891,172744
1784138583273402510,2026-07-16T01:03:03.273+07:00,837453781532306307,394642,502520,470845,172660
1784138583291584328,2026-07-16T01:03:03.291+07:00,837453781532306307,394687,502559,470917,172696
1784138583309766146,2026-07-16T01:03:03.309+07:00,837453781532306307,394769,502669,471016,172802
1784138583327947964,2026-07-16T01:03:03.327+07:00,837453781532306307,394767,502767,471054,172732
1784138583346129782,2026-07-16T01:03:03.346+07:00,837453781532306307,394815,502729,471063,172746
1784138583364311600,2026-07-16T01:03:03.364+07:00,837453781532306307,394883,502806,471180,172723
1784138583382493418,2026-07-16T01:03:03.382+07:00,837453781532306307,394894,502975,471209,172741
1784138583400675236,2026-07-16T01:03:03.400+07:00,837453781532306307,395041,503061,471280,172760
1784138583418857054,2026-07-16T01:03:03.418+07:00,837453781532306307,395050,503055,471388,172734
1784138583437038872,2026-07-16T01:03:03.437+07:00,837453781532306307,395106,503118,471464,172704
1784138583455220690,2026-07-16T01:03:03.455+07:00,837453781532306307,395195,503203,471523,172770
1784138583473402508,2026-07-16T01:03:03.473+07:00,837453781532306307,395196,503159,471468,172721
1784138583491584326,2026-07-16T01:03:03.491+07:00,837453781532306307,395156,503140,471428,172775
1784138583509766144,2026-07-16T01:03:03.509+07:00,837453781532306307,395108,502987,471328,172750
1784138583527947962,2026-07-16T01:03:03.527+07:00,837453781532306307,395069,502988,471325,172762
1784138583546129780,2026-07-16T01:03:03.546+07:00,837453781532306307,394979,502776,471210,172689
1784138583564311598,2026-07-16T01:03:03.564+07:00,837453781532306307,394857,502644,471136,172670
1784138583582493416,2026-07-16T01:03:03.582+07:00,837453781532306307,394836,502619,471068,172742
1784138583600675234,2026-07-16T01:03:03.600+07:00,837453781532306307,394776,502470,470999,172748
1784138583618857052,2026-07-16T01:03:03.618+07:00,837453781532306307,394703,502351,470921,172743
1784138583637038870,2026-07-16T01:03:03.637+07:00,837453782296684549,394639,502290,470858,172749
1784138583655220688,2026-07-16T01:03:03.655+07:00,837453782296684549,394656,502158,470857,172750
1784138583673402506,2026-07-16T01:03:03.673+07:00,837453782296684549,394580,502112,470760,172754
1784138583691584324,2026-07-16T01:03:03.691+07:00,837453782296684549,394596,502060,470751,172754
1784138583709766142,2026-07-16T01:03:03.709+07:00,837453782296684549,394578,501995,470677,172678
1784138583727947960,2026-07-16T01:03:03.727+07:00,837453782296684549,394567,502016,470717,172732
1784138583746129778,2026-07-16T01:03:03.746+07:00,837453782296684549,394590,501953,470737,172820
1784138583764311596,2026-07-16T01:03:03.764+07:00,837453782296684549,394536,501958,470672,172727
1784138583782493414,2026-07-16T01:03:03.782+07:00,837453782296684549,394606,502005,470746,172787
1784138583800675232,2026-07-16T01:03:03.800+07:00,837453782296684549,394602,501987,470718,172792
1784138583818857050,2026-07-16T01:03:03.818+07:00,837453782296684549,394536,501902,470655,172697
1784138583837038868,2026-07-16T01:03:03.837+07:00,837453782296684549,394639,501975,470729,172754
1784138583855220686,2026-07-16T01:03:03.855+07:00,837453782296684549,394646,501974,470726,172750
1784138583873402504,2026-07-16T01:03:03.873+07:00,837453782296684549,394629,501961,470778,172849
1784138583891584322,2026-07-16T01:03:03.891+07:00,837453782296684549,394646,501993,470795,172780
1784138583909766140,2026-07-16T01:03:03.909+07:00,837453782296684549,394643,501954,470746,172734
1784138583927947958,2026-07-16T01:03:03.927+07:00,837453782296684549,394677,502026,470727,172799
1784138583946129776,2026-07-16T01:03:03.946+07:00,837453782296684549,394674,502092,470845,172761
1784138583964311594,2026-07-16T01:03:03.964+07:00,837453782296684549,394710,502180,470873,172740
1784138583982493412,2026-07-16T01:03:03.982+07:00,837453782296684549,394670,502122,470837,172749
1784138584000675230,2026-07-16T01:03:04.000+07:00,837453782296684549,394742,502177,470866,172719
1784138584018857048,2026-07-16T01:03:04.018+07:00,837453782296684549,394763,502180,470898,172710
1784138584037038866,2026-07-16T01:03:04.037+07:00,837453782296684549,394814,502265,471005,172777
1784138584055220684,2026-07-16T01:03:04.055+07:00,837453782296684549,394803,502321,470971,172729
1784138584073402502,2026-07-16T01:03:04.073+07:00,837453782296684549,394958,502418,471131,172759
1784138584091584320,2026-07-16T01:03:04.091+07:00,837453782296684549,394919,502471,471115,172659
1784138584109766138,2026-07-16T01:03:04.109+07:00,837453782296684549,394993,502490,471167,172767
1784138584127947956,2026-07-16T01:03:04.127+07:00,837453782296684549,395026,502560,471285,172747
1784138584146129774,2026-07-16T01:03:04.146+07:00,837453782296684549,395144,502619,471309,172724
1784138584164311592,2026-07-16T01:03:04.164+07:00,837453782296684549,395210,502707,471419,172771
1784138584182493410,2026-07-16T01:03:04.182+07:00,837453782296684549,395263,502767,471476,172745
1784138584200675228,2026-07-16T01:03:04.200+07:00,837453782296684549,395334,502892,471540,172735
1784138584218857046,2026-07-16T01:03:04.218+07:00,837453782296684549,395372,503002,471601,172817
1784138584237038864,2026-07-16T01:03:04.237+07:00,837453782296684549,395433,503067,471687,172836
1784138584255220682,2026-07-16T01:03:04.255+07:00,837453782296684549,395516,503157,471778,172728
1784138584273402500,2026-07-16T01:03:04.273+07:00,837453782296684549,395598,503262,471878,172750
1784138584291584318,2026-07-16T01:03:04.291+07:00,837453782296684549,395633,503337,471971,172681
1784138584309766136,2026-07-16T01:03:04.309+07:00,837453782296684549,395752,503485,472056,172776
1784138584327947954,2026-07-16T01:03:04.327+07:00,837453782296684549,395832,503637,472210,172761
1784138584346129772,2026-07-16T01:03:04.346+07:00,837453782296684549,395878,503643,472205,172743
1784138584364311590,2026-07-16T01:03:04.364+07:00,837453782296684549,395913,503708,472283,172757
1784138584382493408,2026-07-16T01:03:04.382+07:00,837453782296684549,395938,503729,472329,172741
1784138584400675226,2026-07-16T01:03:04.400+07:00,837453783133787179,395933,503704,472303,172727
1784138584418857044,2026-07-16T01:03:04.418+07:00,837453783133787179,395971,503667,472308,172777
1784138584437038862,2026-07-16T01:03:04.437+07:00,837453783133787179,395895,503560,472247,172774
1784138584455220680,2026-07-16T01:03:04.455+07:00,837453783133787179,395930,503504,472193,172781
1784138584473402498,2026-07-16T01:03:04.473+07:00,837453783133787179,395890,503468,472171,172817
1784138584491584316,2026-07-16T01:03:04.491+07:00,837453783133787179,395845,503374,472125,172816
1784138584509766134,2026-07-16T01:03:04.509+07:00,837453783133787179,395812,503266,472127,172791
1784138584527947952,2026-07-16T01:03:04.527+07:00,837453783133787179,395803,503190,472110,172782
1784138584546129770,2026-07-16T01:03:04.546+07:00,837453783133787179,395775,503115,472099,172821
1784138584564311588,2026-07-16T01:03:04.564+07:00,837453783133787179,395719,503059,471984,172741
1784138584582493406,2026-07-16T01:03:04.582+07:00,837453783133787179,395699,502966,471990,172769
1784138584600675224,2026-07-16T01:03:04.600+07:00,837453783133787179,395705,502997,471918,172786
1784138584618857042,2026-07-16T01:03:04.618+07:00,837453783133787179,395692,503004,471897,172780
1784138584637038860,2026-07-16T01:03:04.637+07:00,837453783133787179,395687,502962,471870,172750
1784138584655220678,2026-07-16T01:03:04.655+07:00,837453783133787179,395666,502937,471942,172745
1784138584673402496,2026-07-16T01:03:04.673+07:00,837453783133787179,395739,502946,471953,172793
1784138584691584314,2026-07-16T01:03:04.691+07:00,837453783133787179,395743,503037,471962,172823
1784138584709766132,2026-07-16T01:03:04.709+07:00,837453783133787179,395715,502994,471929,172744
1784138584727947950,2026-07-16T01:03:04.727+07:00,837453783133787179,395665,502946,471932,172736
1784138584746129768,2026-07-16T01:03:04.746+07:00,837453783133787179,395720,502947,471955,172754
1784138584764311586,2026-07-16T01:03:04.764+07:00,837453783133787179,395756,503004,472000,172732
1784138584782493404,2026-07-16T01:03:04.782+07:00,837453783133787179,395802,503023,472051,172778
1784138584800675222,2026-07-16T01:03:04.800+07:00,837453783133787179,395743,502998,471999,172717
1784138584818857040,2026-07-16T01:03:04.818+07:00,837453783133787179,395772,503024,472047,172748
1784138584837038858,2026-07-16T01:03:04.837+07:00,837453783133787179,395784,503061,472058,172741
1784138584855220676,2026-07-16T01:03:04.855+07:00,837453783133787179,395854,503124,472109,172735
1784138584873402494,2026-07-16T01:03:04.873+07:00,837453783133787179,395859,503125,472139,172772
1784138584891584312,2026-07-16T01:03:04.891+07:00,837453783133787179,395909,503233,472147,172786
1784138584909766130,2026-07-16T01:03:04.909+07:00,837453783133787179,395932,503237,472183,172793
1784138584927947948,2026-07-16T01:03:04.927+07:00,837453783133787179,395993,503358,472274,172738
1784138584946129766,2026-07-16T01:03:04.946+07:00,837453783133787179,396084,503454,472381,172782
1784138584964311584,2026-07-16T01:03:04.964+07:00,837453783133787179,396114,503487,472428,172766
1784138584982493402,2026-07-16T01:03:04.982+07:00,837453783133787179,396220,503619,472539,172829
1784138585000675220,2026-07-16T01:03:05.000+07:00,837453783133787179,396220,503614,472557,172685
1784138585018857038,2026-07-16T01:03:05.018+07:00,837453783133787179,396246,503712,472609,172734
1784138585037038856,2026-07-16T01:03:05.037+07:00,837453783133787179,396290,503796,472695,172748
1784138585055220674,2026-07-16T01:03:05.055+07:00,837453783133787179,396452,503950,472876,172734
1784138585073402492,2026-07-16T01:03:05.073+07:00,837453783133787179,396536,504026,472857,172699
1784138585091584310,2026-07-16T01:03:05.091+07:00,837453783133787179,396693,504146,473034,172750
1784138585109766128,2026-07-16T01:03:05.109+07:00,837453783133787179,396691,504244,473085,172767
1784138585127947946,2026-07-16T01:03:05.127+07:00,837453783133787179,396757,504338,473191,172732
1784138585146129764,2026-07-16T01:03:05.146+07:00,837453783133787179,396811,504490,473258,172704
1784138585164311582,2026-07-16T01:03:05.164+07:00,837453783133787179,396926,504632,473361,172716
1784138585182493400,2026-07-16T01:03:05.182+07:00,837453783133787179,397035,504706,473471,172728
1784138585200675218,2026-07-16T01:03:05.200+07:00,837453783133787179,397042,504807,473559,172693
1784138585218857036,2026-07-16T01:03:05.218+07:00,837453783133787179,397152,504949,473659,172700
1784138585237038854,2026-07-16T01:03:05.237+07:00,837453783916128316,397279,505116,473762,172726
1784138585255220672,2026-07-16T01:03:05.255+07:00,837453783916128316,397315,505184,473894,172703
1784138585273402490,2026-07-16T01:03:05.273+07:00,837453783916128316,397460,505366,474041,172752
1784138585291584308,2026-07-16T01:03:05.291+07:00,837453783916128316,397561,505472,474102,172740
1784138585309766126,2026-07-16T01:03:05.309+07:00,837453783916128316,397685,505578,474223,172792
1784138585327947944,2026-07-16T01:03:05.327+07:00,837453783916128316,397720,505711,474240,172770
1784138585346129762,2026-07-16T01:03:05.346+07:00,837453783916128316,397822,505780,474320,172728
1784138585364311580,2026-07-16T01:03:05.364+07:00,837453783916128316,397851,505769,474334,172717
1784138585382493398,2026-07-16T01:03:05.382+07:00,837453783916128316,397859,505754,474309,172759
1784138585400675216,2026-07-16T01:03:05.400+07:00,837453783916128316,397803,505618,474262,172725
1784138585418857034,2026-07-16T01:03:05.418+07:00,837453783916128316,397751,505582,474279,172742
1784138585437038852,2026-07-16T01:03:05.437+07:00,837453783916128316,397710,505459,474194,172703
1784138585455220670,2026-07-16T01:03:05.455+07:00,837453783916128316,397681,505452,474185,172770
1784138585473402488,2026-07-16T01:03:05.473+07:00,837453783916128316,397710,505433,474227,172719
1784138585491584306,2026-07-16T01:03:05.491+07:00,837453783916128316,397648,505299,474173,172690
1784138585509766124,2026-07-16T01:03:05.509+07:00,837453783916128316,397710,505248,474134,172741
1784138585527947942,2026-07-16T01:03:05.527+07:00,837453783916128316,397628,505159,474019,172770
1784138585546129760,2026-07-16T01:03:05.546+07:00,837453783916128316,397543,505088,473979,172727
1784138585564311578,2026-07-16T01:03:05.564+07:00,837453783916128316,397552,505046,474039,172751
1784138585582493396,2026-07-16T01:03:05.582+07:00,837453783916128316,397568,505086,474075,172735
1784138585600675214,2026-07-16T01:03:05.600+07:00,837453783916128316,397548,505024,474031,172752
1784138585618857032,2026-07-16T01:03:05.618+07:00,837453783916128316,397553,505044,473996,172744
1784138585637038850,2026-07-16T01:03:05.637+07:00,837453783916128316,397558,505053,473983,172776
1784138585655220668,2026-07-16T01:03:05.655+07:00,837453783916128316,397530,505036,474001,172781
1784138585673402486,2026-07-16T01:03:05.673+07:00,837453783916128316,397587,505077,474073,172800
1784138585691584304,2026-07-16T01:03:05.691+07:00,837453783916128316,397603,505102,474079,172737
1784138585709766122,2026-07-16T01:03:05.709+07:00,837453783916128316,397576,505105,474069,172703
1784138585727947940,2026-07-16T01:03:05.727+07:00,837453783916128316,397621,505125,474096,172770
1784138585746129758,2026-07-16T01:03:05.746+07:00,837453783916128316,397672,505128,474129,172752
1784138585764311576,2026-07-16T01:03:05.764+07:00,837453783916128316,397654,505127,474176,172778
1784138585782493394,2026-07-16T01:03:05.782+07:00,837453783916128316,397699,505184,474208,172744
1784138585800675212,2026-07-16T01:03:05.800+07:00,837453783916128316,397749,505215,474225,172764
1784138585818857030,2026-07-16T01:03:05.818+07:00,837453783916128316,397707,505245,474211,172696
1784138585837038848,2026-07-16T01:03:05.837+07:00,837453783916128316,397786,505311,474276,172687
1784138585855220666,2026-07-16T01:03:05.855+07:00,837453783916128316,397808,505367,474361,172803
1784138585873402484,2026-07-16T01:03:05.873+07:00,837453783916128316,397846,505382,474390,172703
1784138585891584302,2026-07-16T01:03:05.891+07:00,837453783916128316,397884,505432,474397,172716
1784138585909766120,2026-07-16T01:03:05.909+07:00,837453783916128316,397929,505548,474433,172711
1784138585927947938,2026-07-16T01:03:05.927+07:00,837453783916128316,397967,505624,474548,172693
1784138585946129756,2026-07-16T01:03:05.946+07:00,837453783916128316,398036,505635,474600,172717
1784138585964311574,2026-07-16T01:03:05.964+07:00,837453783916128316,398107,505709,474719,172743
1784138585982493392,2026-07-16T01:03:05.982+07:00,837453783916128316,398157,505809,474734,172767
1784138586000675210,2026-07-16T01:03:06.000+07:00,837453783916128316,398138,505824,474795,172761
1784138586018857028,2026-07-16T01:03:06.018+07:00,837453784680372280,398250,505946,474903,172767
1784138586037038846,2026-07-16T01:03:06.037+07:00,837453784680372280,398365,506009,474959,172809
1784138586055220664,2026-07-16T01:03:06.055+07:00,837453784680372280,398334,506093,475017,172678
1784138586073402482,2026-07-16T01:03:06.073+07:00,837453784680372280,398463,506215,475074,172695
1784138586091584300,2026-07-16T01:03:06.091+07:00,837453784680372280,398505,506267,475136,172732
1784138586109766118,2026-07-16T01:03:06.109+07:00,837453784680372280,398602,506454,475275,172751
1784138586127947936,2026-07-16T01:03:06.127+07:00,837453784680372280,398631,506449,475308,172714
1784138586146129754,2026-07-16T01:03:06.146+07:00,837453784680372280,398703,506607,475321,172693
1784138586164311572,2026-07-16T01:03:06.164+07:00,837453784680372280,398763,506662,475407,172761
1784138586182493390,2026-07-16T01:03:06.182+07:00,837453784680372280,398768,506690,475544,172764
1784138586200675208,2026-07-16T01:03:06.200+07:00,837453784680372280,398898,506838,475598,172752
1784138586218857026,2026-07-16T01:03:06.218+07:00,837453784680372280,398956,506886,475665,172716
1784138586237038844,2026-07-16T01:03:06.237+07:00,837453784680372280,398999,507020,475756,172698
1784138586255220662,2026-07-16T01:03:06.255+07:00,837453784680372280,399031,507036,475791,172732
1784138586273402480,2026-07-16T01:03:06.273+07:00,837453784680372280,399108,507148,475847,172696
1784138586291584298,2026-07-16T01:03:06.291+07:00,837453784680372280,399094,507154,475878,172707
1784138586309766116,2026-07-16T01:03:06.309+07:00,837453784680372280,399133,507200,475888,172781
1784138586327947934,2026-07-16T01:03:06.327+07:00,837453784680372280,399076,507051,475863,172729
1784138586346129752,2026-07-16T01:03:06.346+07:00,837453784680372280,399034,506958,475762,172711
1784138586364311570,2026-07-16T01:03:06.364+07:00,837453784680372280,399017,506867,475745,172749
1784138586382493388,2026-07-16T01:03:06.382+07:00,837453784680372280,398986,506715,475630,172762
1784138586400675206,2026-07-16T01:03:06.400+07:00,837453784680372280,398914,506604,475555,172765
1784138586418857024,2026-07-16T01:03:06.418+07:00,837453784680372280,398913,506622,475559,172789
1784138586437038842,2026-07-16T01:03:06.437+07:00,837453784680372280,398858,506458,475508,172778
1784138586455220660,2026-07-16T01:03:06.455+07:00,837453784680372280,398801,506382,475446,172770
1784138586473402478,2026-07-16T01:03:06.473+07:00,837453784680372280,398731,506305,475374,172776
1784138586491584296,2026-07-16T01:03:06.491+07:00,837453784680372280,398706,506232,475313,172764
1784138586509766114,2026-07-16T01:03:06.509+07:00,837453784680372280,398679,506104,475256,172748
1784138586527947932,2026-07-16T01:03:06.527+07:00,837453784680372280,398680,506126,475280,172746
1784138586546129750,2026-07-16T01:03:06.546+07:00,837453784680372280,398704,506133,475286,172754
1784138586564311568,2026-07-16T01:03:06.564+07:00,837453784680372280,398641,506058,475204,172733
1784138586582493386,2026-07-16T01:03:06.582+07:00,837453784680372280,398595,506017,475185,172742
1784138586600675204,2026-07-16T01:03:06.600+07:00,837453784680372280,398572,505962,475157,172779
1784138586618857022,2026-07-16T01:03:06.618+07:00,837453784680372280,398645,505954,475186,172736
1784138586637038840,2026-07-16T01:03:06.637+07:00,837453784680372280,398611,505955,475201,172748
1784138586655220658,2026-07-16T01:03:06.655+07:00,837453784680372280,398594,505967,475168,172734
1784138586673402476,2026-07-16T01:03:06.673+07:00,837453784680372280,398655,505889,475169,172769
1784138586691584294,2026-07-16T01:03:06.691+07:00,837453784680372280,398566,505859,475166,172757
1784138586709766112,2026-07-16T01:03:06.709+07:00,837453784680372280,398576,505892,475190,172740
1784138586727947930,2026-07-16T01:03:06.727+07:00,837453784680372280,398631,505992,475286,172744
1784138586746129748,2026-07-16T01:03:06.746+07:00,837453784680372280,398623,506046,475248,172720
1784138586764311566,2026-07-16T01:03:06.764+07:00,837453784680372280,398656,505969,475211,172715
1784138586782493384,2026-07-16T01:03:06.782+07:00,837453785462911791,398703,505978,475269,172753
1784138586800675202,2026-07-16T01:03:06.800+07:00,837453785462911791,398742,505966,475298,172731
1784138586818857020,2026-07-16T01:03:06.818+07:00,837453785462911791,398721,506082,475332,172751
1784138586837038838,2026-07-16T01:03:06.837+07:00,837453785462911791,398721,506114,475382,172752
1784138586855220656,2026-07-16T01:03:06.855+07:00,837453785462911791,398765,506160,475378,172694
1784138586873402474,2026-07-16T01:03:06.873+07:00,837453785462911791,398737,506227,475440,172710
1784138586891584292,2026-07-16T01:03:06.891+07:00,837453785462911791,398787,506173,475429,172730
1784138586909766110,2026-07-16T01:03:06.909+07:00,837453785462911791,398839,506262,475509,172706
1784138586927947928,2026-07-16T01:03:06.927+07:00,837453785462911791,398843,506301,475541,172702
1784138586946129746,2026-07-16T01:03:06.946+07:00,837453785462911791,398909,506374,475627,172735
1784138586964311564,2026-07-16T01:03:06.964+07:00,837453785462911791,398973,506468,475665,172692
1784138586982493382,2026-07-16T01:03:06.982+07:00,837453785462911791,398989,506481,475733,172746
1784138587000675200,2026-07-16T01:03:07.000+07:00,837453785462911791,399057,506581,475775,172724
1784138587018857018,2026-07-16T01:03:07.018+07:00,837453785462911791,399119,506627,475813,172744
1784138587037038836,2026-07-16T01:03:07.037+07:00,837453785462911791,399113,506659,475789,172719
1784138587055220654,2026-07-16T01:03:07.055+07:00,837453785462911791,399256,506739,475880,172764
1784138587073402472,2026-07-16T01:03:07.073+07:00,837453785462911791,399184,506754,475885,172686
1784138587091584290,2026-07-16T01:03:07.091+07:00,837453785462911791,399300,506856,475944,172714
1784138587109766108,2026-07-16T01:03:07.109+07:00,837453785462911791,399335,506876,475993,172714
1784138587127947926,2026-07-16T01:03:07.127+07:00,837453785462911791,399370,506976,476080,172673
1784138587146129744,2026-07-16T01:03:07.146+07:00,837453785462911791,399461,507066,476095,172726
1784138587164311562,2026-07-16T01:03:07.164+07:00,837453785462911791,399477,507194,476212,172736
1784138587182493380,2026-07-16T01:03:07.182+07:00,837453785462911791,399438,507244,476241,172704
1784138587200675198,2026-07-16T01:03:07.200+07:00,837453785462911791,399490,507296,476269,172689
1784138587218857016,2026-07-16T01:03:07.218+07:00,837453785462911791,399549,507380,476352,172723
1784138587237038834,2026-07-16T01:03:07.237+07:00,837453785462911791,399552,507364,476300,172713
1784138587255220652,2026-07-16T01:03:07.255+07:00,837453785462911791,399542,507322,476325,172766
1784138587273402470,2026-07-16T01:03:07.273+07:00,837453785462911791,399533,507238,476258,172689
1784138587291584288,2026-07-16T01:03:07.291+07:00,837453785462911791,399425,507120,476160,172708
1784138587309766106,2026-07-16T01:03:07.309+07:00,837453785462911791,399414,507013,476073,172680
1784138587327947924,2026-07-16T01:03:07.327+07:00,837453785462911791,399298,506877,476041,172733
1784138587346129742,2026-07-16T01:03:07.346+07:00,837453785462911791,399248,506728,475959,172772
1784138587364311560,2026-07-16T01:03:07.364+07:00,837453785462911791,399163,506556,475850,172810
1784138587382493378,2026-07-16T01:03:07.382+07:00,837453785462911791,399017,506386,475651,172694
1784138587400675196,2026-07-16T01:03:07.400+07:00,837453785462911791,398881,506147,475507,172708
1784138587418857014,2026-07-16T01:03:07.418+07:00,837453785462911791,398788,506014,475362,172721
1784138587437038832,2026-07-16T01:03:07.437+07:00,837453785462911791,398694,505900,475341,172795
1784138587455220650,2026-07-16T01:03:07.455+07:00,837453785462911791,398595,505687,475144,172752
1784138587473402468,2026-07-16T01:03:07.473+07:00,837453785462911791,398534,505602,475020,172714
1784138587491584286,2026-07-16T01:03:07.491+07:00,837453785462911791,398521,505493,474922,172750
1784138587509766104,2026-07-16T01:03:07.509+07:00,837453785462911791,398448,505439,474891,172755
1784138587527947922,2026-07-16T01:03:07.527+07:00,837453785462911791,398431,505350,474872,172708
1784138587546129740,2026-07-16T01:03:07.546+07:00,837453785462911791,398398,505290,474813,172727
1784138587564311558,2026-07-16T01:03:07.564+07:00,837453786227227471,398261,505232,474666,172758
1784138587582493376,2026-07-16T01:03:07.582+07:00,837453786227227471,398233,505093,474590,172718
1784138587600675194,2026-07-16T01:03:07.600+07:00,837453786227227471,398193,505051,474595,172755
1784138587618857012,2026-07-16T01:03:07.618+07:00,837453786227227471,398155,504948,474574,172741
1784138587637038830,2026-07-16T01:03:07.637+07:00,837453786227227471,398175,504935,474496,172755
1784138587655220648,2026-07-16T01:03:07.655+07:00,837453786227227471,398041,504822,474422,172758
1784138587673402466,2026-07-16T01:03:07.673+07:00,837453786227227471,397990,504787,474413,172701
1784138587691584284,2026-07-16T01:03:07.691+07:00,837453786227227471,398025,504824,474335,172685
1784138587709766102,2026-07-16T01:03:07.709+07:00,837453786227227471,398037,504786,474283,172777
1784138587727947920,2026-07-16T01:03:07.727+07:00,837453786227227471,397957,504718,474290,172716
1784138587746129738,2026-07-16T01:03:07.746+07:00,837453786227227471,398063,504734,474334,172718
1784138587764311556,2026-07-16T01:03:07.764+07:00,837453786227227471,398043,504802,474288,172750
1784138587782493374,2026-07-16T01:03:07.782+07:00,837453786227227471,397946,504759,474254,172712
1784138587800675192,2026-07-16T01:03:07.800+07:00,837453786227227471,398003,504768,474345,172740
1784138587818857010,2026-07-16T01:03:07.818+07:00,837453786227227471,397976,504749,474261,172730
1784138587837038828,2026-07-16T01:03:07.837+07:00,837453786227227471,398080,504740,474306,172695
1784138587855220646,2026-07-16T01:03:07.855+07:00,837453786227227471,398030,504768,474301,172749
1784138587873402464,2026-07-16T01:03:07.873+07:00,837453786227227471,398022,504777,474313,172689
1784138587891584282,2026-07-16T01:03:07.891+07:00,837453786227227471,398054,504838,474343,172721
1784138587909766100,2026-07-16T01:03:07.909+07:00,837453786227227471,397986,504795,474293,172740
1784138587927947918,2026-07-16T01:03:07.927+07:00,837453786227227471,398053,504864,474372,172747
1784138587946129736,2026-07-16T01:03:07.946+07:00,837453786227227471,398066,504972,474354,172723
1784138587964311554,2026-07-16T01:03:07.964+07:00,837453786227227471,398095,504935,474413,172726
1784138587982493372,2026-07-16T01:03:07.982+07:00,837453786227227471,398070,504965,474420,172731
1784138588000675190,2026-07-16T01:03:08.000+07:00,837453786227227471,398080,504904,474465,172762
1784138588018857008,2026-07-16T01:03:08.018+07:00,837453786227227471,398150,505010,474465,172748
1784138588037038826,2026-07-16T01:03:08.037+07:00,837453786227227471,398188,505075,474502,172814
1784138588055220644,2026-07-16T01:03:08.055+07:00,837453786227227471,398159,505040,474471,172721
1784138588073402462,2026-07-16T01:03:08.073+07:00,837453786227227471,398206,505188,474583,172738
1784138588091584280,2026-07-16T01:03:08.091+07:00,837453786227227471,398194,505169,474538,172718
1784138588109766098,2026-07-16T01:03:08.109+07:00,837453786227227471,398315,505295,474605,172784
1784138588127947916,2026-07-16T01:03:08.127+07:00,837453786227227471,398307,505351,474704,172760
1784138588146129734,2026-07-16T01:03:08.146+07:00,837453786227227471,398355,505375,474697,172738
1784138588164311552,2026-07-16T01:03:08.164+07:00,837453786227227471,398362,505437,474702,172766
1784138588182493370,2026-07-16T01:03:08.182+07:00,837453786227227471,398397,505510,474758,172755
1784138588200675188,2026-07-16T01:03:08.200+07:00,837453786227227471,398474,505522,474810,172802
1784138588218857006,2026-07-16T01:03:08.218+07:00,837453786227227471,398429,505506,474835,172736
1784138588237038824,2026-07-16T01:03:08.237+07:00,837453786227227471,398403,505480,474754,172774
1784138588255220642,2026-07-16T01:03:08.255+07:00,837453786227227471,398309,505388,474703,172781
1784138588273402460,2026-07-16T01:03:08.273+07:00,837453786227227471,398314,505259,474583,172781
1784138588291584278,2026-07-16T01:03:08.291+07:00,837453786227227471,398119,505011,474424,172727
1784138588309766096,2026-07-16T01:03:08.309+07:00,837453786227227471,397905,504829,474245,172710
1784138588327947914,2026-07-16T01:03:08.327+07:00,837453786991564513,397953,504624,474142,172780
1784138588346129732,2026-07-16T01:03:08.346+07:00,837453786991564513,397803,504387,473948,172755
1784138588364311550,2026-07-16T01:03:08.364+07:00,837453786991564513,397693,504176,473772,172783
1784138588382493368,2026-07-16T01:03:08.382+07:00,837453786991564513,397529,503994,473590,172747
1784138588400675186,2026-07-16T01:03:08.400+07:00,837453786991564513,397425,503828,473479,172738
1784138588418857004,2026-07-16T01:03:08.418+07:00,837453786991564513,397264,503627,473296,172776
1784138588437038822,2026-07-16T01:03:08.437+07:00,837453786991564513,397189,503521,473198,172764
1784138588455220640,2026-07-16T01:03:08.455+07:00,837453786991564513,397004,503371,473023,172742
1784138588473402458,2026-07-16T01:03:08.473+07:00,837453786991564513,396997,503221,472964,172744
1784138588491584276,2026-07-16T01:03:08.491+07:00,837453786991564513,396962,503029,472863,172792
1784138588509766094,2026-07-16T01:03:08.509+07:00,837453786991564513,396822,502921,472703,172741
1784138588527947912,2026-07-16T01:03:08.527+07:00,837453786991564513,396744,502893,472700,172793
1784138588546129730,2026-07-16T01:03:08.546+07:00,837453786991564513,396676,502775,472601,172794
1784138588564311548,2026-07-16T01:03:08.564+07:00,837453786991564513,396614,502687,472482,172777
1784138588582493366,2026-07-16T01:03:08.582+07:00,837453786991564513,396589,502618,472430,172795
1784138588600675184,2026-07-16T01:03:08.600+07:00,837453786991564513,396506,502524,472300,172801
1784138588618857002,2026-07-16T01:03:08.618+07:00,837453786991564513,396456,502423,472208,172819
1784138588637038820,2026-07-16T01:03:08.637+07:00,837453786991564513,396492,502409,472133,172856
1784138588655220638,2026-07-16T01:03:08.655+07:00,837453786991564513,396339,502308,472035,172830
1784138588673402456,2026-07-16T01:03:08.673+07:00,837453786991564513,396344,502223,472057,172815
1784138588691584274,2026-07-16T01:03:08.691+07:00,837453786991564513,396281,502181,471967,172785
1784138588709766092,2026-07-16T01:03:08.709+07:00,837453786991564513,396222,502149,471958,172740
1784138588727947910,2026-07-16T01:03:08.727+07:00,837453786991564513,396142,502108,471837,172682
1784138588746129728,2026-07-16T01:03:08.746+07:00,837453786991564513,396181,502075,471846,172757
1784138588764311546,2026-07-16T01:03:08.764+07:00,837453786991564513,396163,502024,471830,172731
1784138588782493364,2026-07-16T01:03:08.782+07:00,837453786991564513,396159,502022,471813,172762
1784138588800675182,2026-07-16T01:03:08.800+07:00,837453786991564513,396157,501941,471772,172771
1784138588818857000,2026-07-16T01:03:08.818+07:00,837453786991564513,396112,501933,471705,172767
1784138588837038818,2026-07-16T01:03:08.837+07:00,837453786991564513,396146,501913,471766,172764
1784138588855220636,2026-07-16T01:03:08.855+07:00,837453786991564513,396145,501927,471710,172708
1784138588873402454,2026-07-16T01:03:08.873+07:00,837453786991564513,396179,501982,471719,172760
1784138588891584272,2026-07-16T01:03:08.891+07:00,837453786991564513,396199,502010,471804,172793
1784138588909766090,2026-07-16T01:03:08.909+07:00,837453786991564513,396120,501968,471764,172728
1784138588927947908,2026-07-16T01:03:08.927+07:00,837453786991564513,396168,501984,471771,172754
1784138588946129726,2026-07-16T01:03:08.946+07:00,837453786991564513,396143,501972,471728,172759
1784138588964311544,2026-07-16T01:03:08.964+07:00,837453786991564513,396069,501929,471646,172744
1784138588982493362,2026-07-16T01:03:08.982+07:00,837453786991564513,396159,502029,471716,172755
1784138589000675180,2026-07-16T01:03:09.000+07:00,837453786991564513,396159,502018,471704,172744
1784138589018856998,2026-07-16T01:03:09.018+07:00,837453786991564513,396200,502098,471735,172737
1784138589037038816,2026-07-16T01:03:09.037+07:00,837453786991564513,396221,502087,471694,172721
1784138589055220634,2026-07-16T01:03:09.055+07:00,837453786991564513,396186,502103,471775,172776
1784138589073402452,2026-07-16T01:03:09.073+07:00,837453786991564513,396297,502146,471824,172741
1784138589091584270,2026-07-16T01:03:09.091+07:00,837453787774061290,396269,502155,471818,172711
1784138589109766088,2026-07-16T01:03:09.109+07:00,837453787774061290,396348,502231,471842,172752
1784138589127947906,2026-07-16T01:03:09.127+07:00,837453787774061290,396217,502139,471787,172725
1784138589146129724,2026-07-16T01:03:09.146+07:00,837453787774061290,396276,502052,471693,172745
1784138589164311542,2026-07-16T01:03:09.164+07:00,837453787774061290,396200,501959,471613,172755
1784138589182493360,2026-07-16T01:03:09.182+07:00,837453787774061290,396128,501786,471511,172827
1784138589200675178,2026-07-16T01:03:09.200+07:00,837453787774061290,396003,501599,471328,172786
1784138589218856996,2026-07-16T01:03:09.218+07:00,837453787774061290,395890,501461,471124,172822
1784138589237038814,2026-07-16T01:03:09.237+07:00,837453787774061290,395736,501174,470949,172831
1784138589255220632,2026-07-16T01:03:09.255+07:00,837453787774061290,395546,500979,470825,172805
1784138589273402450,2026-07-16T01:03:09.273+07:00,837453787774061290,395483,500739,470687,172795
1784138589291584268,2026-07-16T01:03:09.291+07:00,837453787774061290,395378,500540,470510,172823
1784138589309766086,2026-07-16T01:03:09.309+07:00,837453787774061290,395184,500338,470230,172744
1784138589327947904,2026-07-16T01:03:09.327+07:00,837453787774061290,395111,500157,470100,172815
1784138589346129722,2026-07-16T01:03:09.346+07:00,837453787774061290,394960,499975,469984,172757
1784138589364311540,2026-07-16T01:03:09.364+07:00,837453787774061290,394913,499933,469839,172753
1784138589382493358,2026-07-16T01:03:09.382+07:00,837453787774061290,394851,499847,469783,172764
1784138589400675176,2026-07-16T01:03:09.400+07:00,837453787774061290,394743,499751,469668,172751
1784138589418856994,2026-07-16T01:03:09.418+07:00,837453787774061290,394718,499596,469604,172727
1784138589437038812,2026-07-16T01:03:09.437+07:00,837453787774061290,394644,499490,469508,172751
1784138589455220630,2026-07-16T01:03:09.455+07:00,837453787774061290,394627,499445,469437,172759
1784138589473402448,2026-07-16T01:03:09.473+07:00,837453787774061290,394574,499309,469308,172767
1784138589491584266,2026-07-16T01:03:09.491+07:00,837453787774061290,394434,499220,469229,172699
1784138589509766084,2026-07-16T01:03:09.509+07:00,837453787774061290,394406,499176,469220,172744
1784138589527947902,2026-07-16T01:03:09.527+07:00,837453787774061290,394358,499059,469097,172689
1784138589546129720,2026-07-16T01:03:09.546+07:00,837453787774061290,394257,498935,468993,172713
1784138589564311538,2026-07-16T01:03:09.564+07:00,837453787774061290,394225,498952,468928,172666
1784138589582493356,2026-07-16T01:03:09.582+07:00,837453787774061290,394206,498950,468975,172775
1784138589600675174,2026-07-16T01:03:09.600+07:00,837453787774061290,394244,498798,468911,172783
1784138589618856992,2026-07-16T01:03:09.618+07:00,837453787774061290,394237,498845,468883,172769
1784138589637038810,2026-07-16T01:03:09.637+07:00,837453787774061290,394227,498820,468824,172814
1784138589655220628,2026-07-16T01:03:09.655+07:00,837453787774061290,394196,498844,468830,172761
1784138589673402446,2026-07-16T01:03:09.673+07:00,837453787774061290,394187,498826,468821,172743
1784138589691584264,2026-07-16T01:03:09.691+07:00,837453787774061290,394169,498842,468783,172744
1784138589709766082,2026-07-16T01:03:09.709+07:00,837453787774061290,394160,498751,468772,172752
1784138589727947900,2026-07-16T01:03:09.727+07:00,837453787774061290,394147,498775,468761,172772
1784138589746129718,2026-07-16T01:03:09.746+07:00,837453787774061290,394225,498833,468770,172752
1784138589764311536,2026-07-16T01:03:09.764+07:00,837453787774061290,394287,498865,468756,172783
1784138589782493354,2026-07-16T01:03:09.782+07:00,837453787774061290,394260,498911,468781,172750
1784138589800675172,2026-07-16T01:03:09.800+07:00,837453787774061290,394244,498911,468753,172805
1784138589818856990,2026-07-16T01:03:09.818+07:00,837453787774061290,394243,498829,468780,172804
1784138589837038808,2026-07-16T01:03:09.837+07:00,837453787774061290,394307,498875,468783,172781
1784138589855220626,2026-07-16T01:03:09.855+07:00,837453787774061290,394257,498884,468818,172770
1784138589873402444,2026-07-16T01:03:09.873+07:00,837453788538369342,394327,498961,468869,172818
1784138589891584262,2026-07-16T01:03:09.891+07:00,837453788538369342,394372,499044,468892,172813
1784138589909766080,2026-07-16T01:03:09.909+07:00,837453788538369342,394333,499023,468849,172736
1784138589927947898,2026-07-16T01:03:09.927+07:00,837453788538369342,394321,499030,468922,172775
1784138589946129716,2026-07-16T01:03:09.946+07:00,837453788538369342,394430,499093,468939,172757
1784138589964311534,2026-07-16T01:03:09.964+07:00,837453788538369342,394389,499141,468968,172701
1784138589982493352,2026-07-16T01:03:09.982+07:00,837453788538369342,394454,499208,468975,172799
1784138590000675170,2026-07-16T01:03:10.000+07:00,837453788538369342,394417,499188,468981,172755
1784138590018856988,2026-07-16T01:03:10.018+07:00,837453788538369342,394405,499131,468947,172803
1784138590037038806,2026-07-16T01:03:10.037+07:00,837453788538369342,394476,499081,468883,172830
1784138590055220624,2026-07-16T01:03:10.055+07:00,837453788538369342,394345,498942,468745,172746
1784138590073402442,2026-07-16T01:03:10.073+07:00,837453788538369342,394298,498741,468638,172760
1784138590091584260,2026-07-16T01:03:10.091+07:00,837453788538369342,394075,498491,468495,172764
1784138590109766078,2026-07-16T01:03:10.109+07:00,837453788538369342,394008,498346,468322,172768
1784138590127947896,2026-07-16T01:03:10.127+07:00,837453788538369342,393828,498084,468200,172731
1784138590146129714,2026-07-16T01:03:10.146+07:00,837453788538369342,393649,497897,467977,172730
1784138590164311532,2026-07-16T01:03:10.164+07:00,837453788538369342,393600,497773,467812,172723
1784138590182493350,2026-07-16T01:03:10.182+07:00,837453788538369342,393491,497498,467641,172719
1784138590200675168,2026-07-16T01:03:10.200+07:00,837453788538369342,393313,497379,467524,172740
1784138590218856986,2026-07-16T01:03:10.218+07:00,837453788538369342,393237,497176,467371,172771
1784138590237038804,2026-07-16T01:03:10.237+07:00,837453788538369342,393127,497006,467241,172770
1784138590255220622,2026-07-16T01:03:10.255+07:00,837453788538369342,393057,496903,467143,172754
1784138590273402440,2026-07-16T01:03:10.273+07:00,837453788538369342,392988,496747,467019,172753
1784138590291584258,2026-07-16T01:03:10.291+07:00,837453788538369342,392886,496609,466951,172758
1784138590309766076,2026-07-16T01:03:10.309+07:00,837453788538369342,392852,496547,466882,172812
1784138590327947894,2026-07-16T01:03:10.327+07:00,837453788538369342,392770,496494,466751,172785
1784138590346129712,2026-07-16T01:03:10.346+07:00,837453788538369342,392732,496351,466584,172729
1784138590364311530,2026-07-16T01:03:10.364+07:00,837453788538369342,392704,496297,466569,172711
1784138590382493348,2026-07-16T01:03:10.382+07:00,837453788538369342,392630,496232,466532,172778
1784138590400675166,2026-07-16T01:03:10.400+07:00,837453788538369342,392571,496145,466479,172766
1784138590418856984,2026-07-16T01:03:10.418+07:00,837453788538369342,392608,496109,466454,172786
1784138590437038802,2026-07-16T01:03:10.437+07:00,837453788538369342,392609,496086,466389,172796
1784138590455220620,2026-07-16T01:03:10.455+07:00,837453788538369342,392541,496047,466350,172829
1784138590473402438,2026-07-16T01:03:10.473+07:00,837453788538369342,392462,496025,466288,172776
1784138590491584256,2026-07-16T01:03:10.491+07:00,837453788538369342,392447,496072,466311,172768
1784138590509766074,2026-07-16T01:03:10.509+07:00,837453788538369342,392464,496006,466264,172752
1784138590527947892,2026-07-16T01:03:10.527+07:00,837453788538369342,392495,495960,466211,172797
1784138590546129710,2026-07-16T01:03:10.546+07:00,837453788538369342,392526,496016,466242,172802
1784138590564311528,2026-07-16T01:03:10.564+07:00,837453788538369342,392463,495932,466205,172764
1784138590582493346,2026-07-16T01:03:10.582+07:00,837453788538369342,392484,495931,466198,172758
1784138590600675164,2026-07-16T01:03:10.600+07:00,837453788538369342,392497,496041,466303,172828
1784138590618856982,2026-07-16T01:03:10.618+07:00,837453788538369342,392516,496131,466348,172815
1784138590637038800,2026-07-16T01:03:10.637+07:00,837453789339070104,392561,496171,466346,172839
1784138590655220618,2026-07-16T01:03:10.655+07:00,837453789339070104,392556,496156,466318,172812
1784138590673402436,2026-07-16T01:03:10.673+07:00,837453789339070104,392536,496185,466358,172775
1784138590691584254,2026-07-16T01:03:10.691+07:00,837453789339070104,392536,496115,466339,172734
1784138590709766072,2026-07-16T01:03:10.709+07:00,837453789339070104,392615,496271,466387,172755
1784138590727947890,2026-07-16T01:03:10.727+07:00,837453789339070104,392625,496275,466473,172774
1784138590746129708,2026-07-16T01:03:10.746+07:00,837453789339070104,392594,496353,466476,172793
1784138590764311526,2026-07-16T01:03:10.764+07:00,837453789339070104,392639,496341,466473,172735
1784138590782493344,2026-07-16T01:03:10.782+07:00,837453789339070104,392719,496442,466501,172802
1784138590800675162,2026-07-16T01:03:10.800+07:00,837453789339070104,392717,496447,466569,172716
1784138590818856980,2026-07-16T01:03:10.818+07:00,837453789339070104,392741,496455,466514,172775
1784138590837038798,2026-07-16T01:03:10.837+07:00,837453789339070104,392861,496615,466697,172774
1784138590855220616,2026-07-16T01:03:10.855+07:00,837453789339070104,392929,496669,466798,172823
1784138590873402434,2026-07-16T01:03:10.873+07:00,837453789339070104,392893,496699,466774,172817
1784138590891584252,2026-07-16T01:03:10.891+07:00,837453789339070104,392992,496746,466798,172796
1784138590909766070,2026-07-16T01:03:10.909+07:00,837453789339070104,392943,496692,466727,172757
1784138590927947888,2026-07-16T01:03:10.927+07:00,837453789339070104,392922,496629,466661,172787
1784138590946129706,2026-07-16T01:03:10.946+07:00,837453789339070104,392848,496506,466582,172827
1784138590964311524,2026-07-16T01:03:10.964+07:00,837453789339070104,392779,496308,466413,172749
1784138590982493342,2026-07-16T01:03:10.982+07:00,837453789339070104,392659,496145,466320,172785
1784138591000675160,2026-07-16T01:03:11.000+07:00,837453789339070104,392503,495982,466205,172715
1784138591018856978,2026-07-16T01:03:11.018+07:00,837453789339070104,392432,495809,466084,172799
1784138591037038796,2026-07-16T01:03:11.037+07:00,837453789339070104,392275,495636,465929,172764
1784138591055220614,2026-07-16T01:03:11.055+07:00,837453789339070104,392153,495471,465778,172735
1784138591073402432,2026-07-16T01:03:11.073+07:00,837453789339070104,392087,495293,465620,172741
1784138591091584250,2026-07-16T01:03:11.091+07:00,837453789339070104,391996,495148,465540,172753
1784138591109766068,2026-07-16T01:03:11.109+07:00,837453789339070104,391887,495073,465382,172784
1784138591127947886,2026-07-16T01:03:11.127+07:00,837453789339070104,391834,494985,465365,172805
1784138591146129704,2026-07-16T01:03:11.146+07:00,837453789339070104,391718,494877,465228,172759
1784138591164311522,2026-07-16T01:03:11.164+07:00,837453789339070104,391700,494839,465229,172740
1784138591182493340,2026-07-16T01:03:11.182+07:00,837453789339070104,391671,494782,465235,172830
1784138591200675158,2026-07-16T01:03:11.200+07:00,837453789339070104,391624,494758,465125,172768
1784138591218856976,2026-07-16T01:03:11.218+07:00,837453789339070104,391613,494648,465099,172816
1784138591237038794,2026-07-16T01:03:11.237+07:00,837453789339070104,391616,494713,465083,172783
1784138591255220612,2026-07-16T01:03:11.255+07:00,837453789339070104,391582,494648,465046,172787
1784138591273402430,2026-07-16T01:03:11.273+07:00,837453789339070104,391506,494599,465031,172752
1784138591291584248,2026-07-16T01:03:11.291+07:00,837453789339070104,391479,494528,464977,172796
1784138591309766066,2026-07-16T01:03:11.309+07:00,837453789339070104,391485,494545,464950,172757
1784138591327947884,2026-07-16T01:03:11.327+07:00,837453789339070104,391471,494570,464948,172819
1784138591346129702,2026-07-16T01:03:11.346+07:00,837453789339070104,391453,494560,464968,172824
1784138591364311520,2026-07-16T01:03:11.364+07:00,837453789339070104,391492,494543,464893,172752
1784138591382493338,2026-07-16T01:03:11.382+07:00,837453789339070104,391453,494524,464971,172716
1784138591400675156,2026-07-16T01:03:11.400+07:00,837453789339070104,391492,494591,464963,172678
1784138591418856974,2026-07-16T01:03:11.418+07:00,837453789339070104,391499,494622,464983,172681
1784138591437038792,2026-07-16T01:03:11.437+07:00,837453790103372052,391510,494641,465049,172727
1784138591455220610,2026-07-16T01:03:11.455+07:00,837453790103372052,391524,494650,465008,172681
1784138591473402428,2026-07-16T01:03:11.473+07:00,837453790103372052,391580,494694,465060,172771
1784138591491584246,2026-07-16T01:03:11.491+07:00,837453790103372052,391528,494732,465029,172744
1784138591509766064,2026-07-16T01:03:11.509+07:00,837453790103372052,391604,494767,465136,172749
1784138591527947882,2026-07-16T01:03:11.527+07:00,837453790103372052,391615,494807,465143,172682
1784138591546129700,2026-07-16T01:03:11.546+07:00,837453790103372052,391691,494929,465214,172770
1784138591564311518,2026-07-16T01:03:11.564+07:00,837453790103372052,391756,494992,465328,172787
1784138591582493336,2026-07-16T01:03:11.582+07:00,837453790103372052,391811,495130,465440,172772
1784138591600675154,2026-07-16T01:03:11.600+07:00,837453790103372052,391850,495167,465425,172719
1784138591618856972,2026-07-16T01:03:11.618+07:00,837453790103372052,391870,495199,465444,172736
1784138591637038790,2026-07-16T01:03:11.637+07:00,837453790103372052,391928,495299,465517,172758
1784138591655220608,2026-07-16T01:03:11.655+07:00,837453790103372052,392018,495354,465593,172777
1784138591673402426,2026-07-16T01:03:11.673+07:00,837453790103372052,392048,495452,465686,172742
1784138591691584244,2026-07-16T01:03:11.691+07:00,837453790103372052,392131,495530,465735,172757
1784138591709766062,2026-07-16T01:03:11.709+07:00,837453790103372052,392147,495597,465860,172812
1784138591727947880,2026-07-16T01:03:11.727+07:00,837453790103372052,392134,495667,465909,172763
1784138591746129698,2026-07-16T01:03:11.746+07:00,837453790103372052,392226,495755,465952,172782
1784138591764311516,2026-07-16T01:03:11.764+07:00,837453790103372052,392223,495858,466037,172767
1784138591782493334,2026-07-16T01:03:11.782+07:00,837453790103372052,392219,495813,465955,172792
1784138591800675152,2026-07-16T01:03:11.800+07:00,837453790103372052,392232,495792,465946,172766
1784138591818856970,2026-07-16T01:03:11.818+07:00,837453790103372052,392215,495790,465955,172832
1784138591837038788,2026-07-16T01:03:11.837+07:00,837453790103372052,392145,495624,465837,172784
1784138591855220606,2026-07-16T01:03:11.855+07:00,837453790103372052,392055,495524,465844,172766
1784138591873402424,2026-07-16T01:03:11.873+07:00,837453790103372052,391965,495392,465744,172771
1784138591891584242,2026-07-16T01:03:11.891+07:00,837453790103372052,391974,495299,465620,172794
1784138591909766060,2026-07-16T01:03:11.909+07:00,837453790103372052,391825,495141,465517,172759
1784138591927947878,2026-07-16T01:03:11.927+07:00,837453790103372052,391769,495126,465505,172750
1784138591946129696,2026-07-16T01:03:11.946+07:00,837453790103372052,391694,495005,465422,172734
1784138591964311514,2026-07-16T01:03:11.964+07:00,837453790103372052,391711,494898,465336,172766
1784138591982493332,2026-07-16T01:03:11.982+07:00,837453790103372052,391656,494885,465343,172758
1784138592000675150,2026-07-16T01:03:12.000+07:00,837453790103372052,391592,494824,465376,172778
1784138592018856968,2026-07-16T01:03:12.018+07:00,837453790103372052,391545,494769,465226,172711
1784138592037038786,2026-07-16T01:03:12.037+07:00,837453790103372052,391579,494829,465288,172753
1784138592055220604,2026-07-16T01:03:12.055+07:00,837453790103372052,391581,494834,465283,172741
1784138592073402422,2026-07-16T01:03:12.073+07:00,837453790103372052,391569,494798,465264,172758
1784138592091584240,2026-07-16T01:03:12.091+07:00,837453790103372052,391558,494774,465265,172754
1784138592109766058,2026-07-16T01:03:12.109+07:00,837453790103372052,391537,494806,465314,172751
1784138592127947876,2026-07-16T01:03:12.127+07:00,837453790103372052,391520,494797,465269,172751
1784138592146129694,2026-07-16T01:03:12.146+07:00,837453790103372052,391585,494874,465351,172814
1784138592164311512,2026-07-16T01:03:12.164+07:00,837453790103372052,391574,494855,465312,172768
1784138592182493330,2026-07-16T01:03:12.182+07:00,837453790103372052,391533,494950,465382,172740
1784138592200675148,2026-07-16T01:03:12.200+07:00,837453790904109446,391590,494978,465424,172724
1784138592218856966,2026-07-16T01:03:12.218+07:00,837453790904109446,391608,495039,465465,172744
1784138592237038784,2026-07-16T01:03:12.237+07:00,837453790904109446,391710,495076,465545,172769
1784138592255220602,2026-07-16T01:03:12.255+07:00,837453790904109446,391683,495080,465573,172747
1784138592273402420,2026-07-16T01:03:12.273+07:00,837453790904109446,391764,495205,465654,172751
1784138592291584238,2026-07-16T01:03:12.291+07:00,837453790904109446,391804,495250,465661,172769
1784138592309766056,2026-07-16T01:03:12.309+07:00,837453790904109446,391851,495352,465700,172764
1784138592327947874,2026-07-16T01:03:12.327+07:00,837453790904109446,391854,495435,465799,172730
1784138592346129692,2026-07-16T01:03:12.346+07:00,837453790904109446,391935,495534,465894,172702
1784138592364311510,2026-07-16T01:03:12.364+07:00,837453790904109446,392002,495617,465936,172728
1784138592382493328,2026-07-16T01:03:12.382+07:00,837453790904109446,392011,495676,466045,172745
1784138592400675146,2026-07-16T01:03:12.400+07:00,837453790904109446,392034,495761,466076,172743
1784138592418856964,2026-07-16T01:03:12.418+07:00,837453790904109446,392115,495840,466135,172831
1784138592437038782,2026-07-16T01:03:12.437+07:00,837453790904109446,392126,495941,466183,172743
1784138592455220600,2026-07-16T01:03:12.455+07:00,837453790904109446,392185,495974,466315,172803
1784138592473402418,2026-07-16T01:03:12.473+07:00,837453790904109446,392271,496183,466501,172796
1784138592491584236,2026-07-16T01:03:12.491+07:00,837453790904109446,392323,496294,466493,172757
1784138592509766054,2026-07-16T01:03:12.509+07:00,837453790904109446,392480,496450,466638,172786
1784138592527947872,2026-07-16T01:03:12.527+07:00,837453790904109446,392489,496523,466691,172753
1784138592546129690,2026-07-16T01:03:12.546+07:00,837453790904109446,392582,496667,466795,172803
1784138592564311508,2026-07-16T01:03:12.564+07:00,837453790904109446,392671,496706,466870,172804
1784138592582493326,2026-07-16T01:03:12.582+07:00,837453790904109446,392660,496835,466908,172724
1784138592600675144,2026-07-16T01:03:12.600+07:00,837453790904109446,392740,497016,467038,172710
1784138592618856962,2026-07-16T01:03:12.618+07:00,837453790904109446,392839,497091,467154,172709
1784138592637038780,2026-07-16T01:03:12.637+07:00,837453790904109446,392926,497201,467251,172748
1784138592655220598,2026-07-16T01:03:12.655+07:00,837453790904109446,392961,497246,467312,172713
1784138592673402416,2026-07-16T01:03:12.673+07:00,837453790904109446,392978,497252,467350,172753
1784138592691584234,2026-07-16T01:03:12.691+07:00,837453790904109446,392998,497240,467325,172763
1784138592709766052,2026-07-16T01:03:12.709+07:00,837453790904109446,392952,497258,467294,172750
1784138592727947870,2026-07-16T01:03:12.727+07:00,837453790904109446,392835,497119,467239,172716
1784138592746129688,2026-07-16T01:03:12.746+07:00,837453790904109446,392810,497014,467171,172737
1784138592764311506,2026-07-16T01:03:12.764+07:00,837453790904109446,392735,497026,467168,172727
1784138592782493324,2026-07-16T01:03:12.782+07:00,837453790904109446,392683,497014,467132,172711
1784138592800675142,2026-07-16T01:03:12.800+07:00,837453790904109446,392599,496873,467057,172720
1784138592818856960,2026-07-16T01:03:12.818+07:00,837453790904109446,392591,496802,467012,172724
1784138592837038778,2026-07-16T01:03:12.837+07:00,837453790904109446,392552,496775,467024,172791
1784138592855220596,2026-07-16T01:03:12.855+07:00,837453790904109446,392546,496723,466967,172810
1784138592873402414,2026-07-16T01:03:12.873+07:00,837453790904109446,392501,496726,466984,172786
1784138592891584232,2026-07-16T01:03:12.891+07:00,837453790904109446,392479,496749,466970,172732
1784138592909766050,2026-07-16T01:03:12.909+07:00,837453790904109446,392451,496758,467006,172748
1784138592927947868,2026-07-16T01:03:12.927+07:00,837453790904109446,392509,496749,467012,172775
1784138592946129686,2026-07-16T01:03:12.946+07:00,837453790904109446,392518,496768,467034,172799
1784138592964311504,2026-07-16T01:03:12.964+07:00,837453790904109446,392445,496774,466987,172785
1784138592982493322,2026-07-16T01:03:12.982+07:00,837453790904109446,392442,496825,467003,172728
1784138593000675140,2026-07-16T01:03:13.000+07:00,837453791632024782,392492,496905,467026,172758
1784138593018856958,2026-07-16T01:03:13.018+07:00,837453791632024782,392495,496852,467090,172766
1784138593037038776,2026-07-16T01:03:13.037+07:00,837453791632024782,392498,496911,467099,172759
1784138593055220594,2026-07-16T01:03:13.055+07:00,837453791632024782,392531,496952,467197,172798
1784138593073402412,2026-07-16T01:03:13.073+07:00,837453791632024782,392554,497042,467243,172802
1784138593091584230,2026-07-16T01:03:13.091+07:00,837453791632024782,392640,497192,467295,172820
1784138593109766048,2026-07-16T01:03:13.109+07:00,837453791632024782,392637,497199,467364,172764
1784138593127947866,2026-07-16T01:03:13.127+07:00,837453791632024782,392679,497294,467390,172754
1784138593146129684,2026-07-16T01:03:13.146+07:00,837453791632024782,392656,497371,467384,172753
1784138593164311502,2026-07-16T01:03:13.164+07:00,837453791632024782,392711,497446,467453,172774
1784138593182493320,2026-07-16T01:03:13.182+07:00,837453791632024782,392734,497464,467498,172744
1784138593200675138,2026-07-16T01:03:13.200+07:00,837453791632024782,392805,497658,467566,172764
1784138593218856956,2026-07-16T01:03:13.218+07:00,837453791632024782,392936,497757,467700,172800
1784138593237038774,2026-07-16T01:03:13.237+07:00,837453791632024782,392879,497788,467707,172702
1784138593255220592,2026-07-16T01:03:13.255+07:00,837453791632024782,393007,497859,467792,172709
1784138593273402410,2026-07-16T01:03:13.273+07:00,837453791632024782,393004,498005,467802,172690
1784138593291584228,2026-07-16T01:03:13.291+07:00,837453791632024782,393082,498140,467984,172736
1784138593309766046,2026-07-16T01:03:13.309+07:00,837453791632024782,393116,498248,468031,172700
1784138593327947864,2026-07-16T01:03:13.327+07:00,837453791632024782,393211,498388,468136,172802
1784138593346129682,2026-07-16T01:03:13.346+07:00,837453791632024782,393279,498509,468248,172754
1784138593364311500,2026-07-16T01:03:13.364+07:00,837453791632024782,393334,498662,468339,172789
1784138593382493318,2026-07-16T01:03:13.382+07:00,837453791632024782,393378,498687,468351,172731
1784138593400675136,2026-07-16T01:03:13.400+07:00,837453791632024782,393482,498783,468477,172767
1784138593418856954,2026-07-16T01:03:13.418+07:00,837453791632024782,393542,498919,468664,172784
1784138593437038772,2026-07-16T01:03:13.437+07:00,837453791632024782,393604,499051,468667,172795
1784138593455220590,2026-07-16T01:03:13.455+07:00,837453791632024782,393667,499239,468777,172771
1784138593473402408,2026-07-16T01:03:13.473+07:00,837453791632024782,393739,499355,468922,172776
1784138593491584226,2026-07-16T01:03:13.491+07:00,837453791632024782,393823,499456,468996,172732
1784138593509766044,2026-07-16T01:03:13.509+07:00,837453791632024782,393899,499630,469092,172726
1784138593527947862,2026-07-16T01:03:13.527+07:00,837453791632024782,393949,499688,469194,172723
1784138593546129680,2026-07-16T01:03:13.546+07:00,837453791632024782,394044,499838,469340,172769
1784138593564311498,2026-07-16T01:03:13.564+07:00,837453791632024782,394095,499934,469415,172727
1784138593582493316,2026-07-16T01:03:13.582+07:00,837453791632024782,394137,500110,469510,172699
1784138593600675134,2026-07-16T01:03:13.600+07:00,837453791632024782,394251,500273,469633,172779
1784138593618856952,2026-07-16T01:03:13.618+07:00,837453791632024782,394338,500386,469674,172704
1784138593637038770,2026-07-16T01:03:13.637+07:00,837453791632024782,394421,500537,469865,172723
1784138593655220588,2026-07-16T01:03:13.655+07:00,837453791632024782,394481,500623,469963,172734
1784138593673402406,2026-07-16T01:03:13.673+07:00,837453791632024782,394486,500726,469943,172731
1784138593691584224,2026-07-16T01:03:13.691+07:00,837453791632024782,394480,500726,469941,172714
1784138593709766042,2026-07-16T01:03:13.709+07:00,837453791632024782,394544,500687,469987,172742
1784138593727947860,2026-07-16T01:03:13.727+07:00,837453792414533767,394534,500717,469990,172703
1784138593746129678,2026-07-16T01:03:13.746+07:00,837453792414533767,394486,500684,469944,172695
1784138593764311496,2026-07-16T01:03:13.764+07:00,837453792414533767,394462,500704,469932,172720
1784138593782493314,2026-07-16T01:03:13.782+07:00,837453792414533767,394407,500637,469889,172734
1784138593800675132,2026-07-16T01:03:13.800+07:00,837453792414533767,394384,500563,469954,172734
1784138593818856950,2026-07-16T01:03:13.818+07:00,837453792414533767,394290,500474,469884,172760
1784138593837038768,2026-07-16T01:03:13.837+07:00,837453792414533767,394270,500402,469775,172733
1784138593855220586,2026-07-16T01:03:13.855+07:00,837453792414533767,394230,500403,469796,172767
1784138593873402404,2026-07-16T01:03:13.873+07:00,837453792414533767,394223,500312,469715,172736
1784138593891584222,2026-07-16T01:03:13.891+07:00,837453792414533767,394164,500392,469732,172770
1784138593909766040,2026-07-16T01:03:13.909+07:00,837453792414533767,394172,500359,469690,172779
1784138593927947858,2026-07-16T01:03:13.927+07:00,837453792414533767,394187,500365,469713,172762
1784138593946129676,2026-07-16T01:03:13.946+07:00,837453792414533767,394111,500333,469692,172765
1784138593964311494,2026-07-16T01:03:13.964+07:00,837453792414533767,394209,500423,469801,172813
1784138593982493312,2026-07-16T01:03:13.982+07:00,837453792414533767,394121,500402,469725,172810
1784138594000675130,2026-07-16T01:03:14.000+07:00,837453792414533767,394166,500473,469808,172767
1784138594018856948,2026-07-16T01:03:14.018+07:00,837453792414533767,394133,500498,469843,172771
1784138594037038766,2026-07-16T01:03:14.037+07:00,837453792414533767,394175,500468,469880,172798
1784138594055220584,2026-07-16T01:03:14.055+07:00,837453792414533767,394204,500642,469916,172762
1784138594073402402,2026-07-16T01:03:14.073+07:00,837453792414533767,394167,500653,469871,172759
1784138594091584220,2026-07-16T01:03:14.091+07:00,837453792414533767,394156,500730,469952,172777
1784138594109766038,2026-07-16T01:03:14.109+07:00,837453792414533767,394257,500792,470023,172780
1784138594127947856,2026-07-16T01:03:14.127+07:00,837453792414533767,394254,500760,469997,172741
1784138594146129674,2026-07-16T01:03:14.146+07:00,837453792414533767,394300,500839,470085,172738
1784138594164311492,2026-07-16T01:03:14.164+07:00,837453792414533767,394299,500956,470119,172747
1784138594182493310,2026-07-16T01:03:14.182+07:00,837453792414533767,394380,500982,470199,172740
1784138594200675128,2026-07-16T01:03:14.200+07:00,837453792414533767,394391,501041,470201,172718
1784138594218856946,2026-07-16T01:03:14.218+07:00,837453792414533767,394378,501143,470219,172767
1784138594237038764,2026-07-16T01:03:14.237+07:00,837453792414533767,394499,501274,470353,172760
1784138594255220582,2026-07-16T01:03:14.255+07:00,837453792414533767,394532,501409,470410,172770
1784138594273402400,2026-07-16T01:03:14.273+07:00,837453792414533767,394520,501366,470415,172763
1784138594291584218,2026-07-16T01:03:14.291+07:00,837453792414533767,394582,501509,470536,172794
1784138594309766036,2026-07-16T01:03:14.309+07:00,837453792414533767,394660,501625,470541,172750
1784138594327947854,2026-07-16T01:03:14.327+07:00,837453792414533767,394685,501708,470634,172736
1784138594346129672,2026-07-16T01:03:14.346+07:00,837453792414533767,394690,501736,470697,172710
1784138594364311490,2026-07-16T01:03:14.364+07:00,837453792414533767,394812,501852,470766,172707
1784138594382493308,2026-07-16T01:03:14.382+07:00,837453792414533767,394846,501944,470819,172730
1784138594400675126,2026-07-16T01:03:14.400+07:00,837453792414533767,394871,502059,470900,172760
1784138594418856944,2026-07-16T01:03:14.418+07:00,837453792414533767,394931,502173,470969,172747
1784138594437038762,2026-07-16T01:03:14.437+07:00,837453792414533767,394986,502210,471045,172779
1784138594455220580,2026-07-16T01:03:14.455+07:00,837453792414533767,395053,502313,471155,172731
1784138594473402398,2026-07-16T01:03:14.473+07:00,837453792414533767,395109,502411,471190,172762
1784138594491584216,2026-07-16T01:03:14.491+07:00,837453792414533767,395151,502514,471274,172734
1784138594509766034,2026-07-16T01:03:14.509+07:00,837453793197012234,395256,502641,471411,172779
1784138594527947852,2026-07-16T01:03:14.527+07:00,837453793197012234,395330,502741,471415,172707
1784138594546129670,2026-07-16T01:03:14.546+07:00,837453793197012234,395411,502897,471578,172775
1784138594564311488,2026-07-16T01:03:14.564+07:00,837453793197012234,395416,502998,471666,172735
1784138594582493306,2026-07-16T01:03:14.582+07:00,837453793197012234,395505,503090,471722,172833
1784138594600675124,2026-07-16T01:03:14.600+07:00,837453793197012234,395619,503265,471877,172841
1784138594618856942,2026-07-16T01:03:14.618+07:00,837453793197012234,395651,503351,471940,172797
1784138594637038760,2026-07-16T01:03:14.637+07:00,837453793197012234,395692,503425,471963,172846
1784138594655220578,2026-07-16T01:03:14.655+07:00,837453793197012234,395709,503413,471989,172781
1784138594673402396,2026-07-16T01:03:14.673+07:00,837453793197012234,395655,503449,471978,172805
1784138594691584214,2026-07-16T01:03:14.691+07:00,837453793197012234,395655,503422,471935,172732
1784138594709766032,2026-07-16T01:03:14.709+07:00,837453793197012234,395651,503358,471928,172781
1784138594727947850,2026-07-16T01:03:14.727+07:00,837453793197012234,395617,503345,471904,172809
1784138594746129668,2026-07-16T01:03:14.746+07:00,837453793197012234,395561,503202,471824,172732
1784138594764311486,2026-07-16T01:03:14.764+07:00,837453793197012234,395483,503218,471809,172749
1784138594782493304,2026-07-16T01:03:14.782+07:00,837453793197012234,395443,503192,471807,172752
1784138594800675122,2026-07-16T01:03:14.800+07:00,837453793197012234,395424,503039,471757,172774
1784138594818856940,2026-07-16T01:03:14.818+07:00,837453793197012234,395367,503020,471685,172730
1784138594837038758,2026-07-16T01:03:14.837+07:00,837453793197012234,395339,502976,471621,172729
1784138594855220576,2026-07-16T01:03:14.855+07:00,837453793197012234,395301,502850,471646,172767
1784138594873402394,2026-07-16T01:03:14.873+07:00,837453793197012234,395256,502931,471592,172729
1784138594891584212,2026-07-16T01:03:14.891+07:00,837453793197012234,395249,502883,471601,172743
1784138594909766030,2026-07-16T01:03:14.909+07:00,837453793197012234,395260,502889,471632,172776
1784138594927947848,2026-07-16T01:03:14.927+07:00,837453793197012234,395293,502863,471576,172779
1784138594946129666,2026-07-16T01:03:14.946+07:00,837453793197012234,395271,502870,471591,172747
1784138594964311484,2026-07-16T01:03:14.964+07:00,837453793197012234,395244,502946,471595,172738
1784138594982493302,2026-07-16T01:03:14.982+07:00,837453793197012234,395195,502911,471551,172702
1784138595000675120,2026-07-16T01:03:15.000+07:00,837453793197012234,395246,502948,471626,172741
1784138595018856938,2026-07-16T01:03:15.018+07:00,837453793197012234,395299,502974,471646,172770
1784138595037038756,2026-07-16T01:03:15.037+07:00,837453793197012234,395252,502989,471665,172728
1784138595055220574,2026-07-16T01:03:15.055+07:00,837453793197012234,395276,502980,471650,172801
1784138595073402392,2026-07-16T01:03:15.073+07:00,837453793197012234,395341,503112,471709,172747
1784138595091584210,2026-07-16T01:03:15.091+07:00,837453793197012234,395374,503175,471787,172771
1784138595109766028,2026-07-16T01:03:15.109+07:00,837453793197012234,395409,503226,471833,172772
1784138595127947846,2026-07-16T01:03:15.127+07:00,837453793197012234,395447,503263,471833,172838
1784138595146129664,2026-07-16T01:03:15.146+07:00,837453793197012234,395375,503249,471883,172721
1784138595164311482,2026-07-16T01:03:15.164+07:00,837453793197012234,395438,503331,471891,172770
1784138595182493300,2026-07-16T01:03:15.182+07:00,837453793197012234,395536,503377,472001,172795
1784138595200675118,2026-07-16T01:03:15.200+07:00,837453793197012234,395531,503415,472051,172764
1784138595218856936,2026-07-16T01:03:15.218+07:00,837453793197012234,395583,503468,472058,172767
1784138595237038754,2026-07-16T01:03:15.237+07:00,837453793197012234,395599,503572,472130,172746
1784138595255220572,2026-07-16T01:03:15.255+07:00,837453793197012234,395652,503603,472155,172758
1784138595273402390,2026-07-16T01:03:15.273+07:00,837453793197012234,395710,503703,472219,172754
1784138595291584208,2026-07-16T01:03:15.291+07:00,837453793979507485,395722,503805,472278,172742
1784138595309766026,2026-07-16T01:03:15.309+07:00,837453793979507485,395793,503874,472342,172769
1784138595327947844,2026-07-16T01:03:15.327+07:00,837453793979507485,395754,503920,472284,172755
1784138595346129662,2026-07-16T01:03:15.346+07:00,837453793979507485,395800,504017,472426,172723
1784138595364311480,2026-07-16T01:03:15.364+07:00,837453793979507485,395926,504119,472533,172753
1784138595382493298,2026-07-16T01:03:15.382+07:00,837453793979507485,395952,504143,472576,172774
1784138595400675116,2026-07-16T01:03:15.400+07:00,837453793979507485,396023,504312,472660,172787
1784138595418856934,2026-07-16T01:03:15.418+07:00,837453793979507485,396061,504372,472744,172749
1784138595437038752,2026-07-16T01:03:15.437+07:00,837453793979507485,396088,504463,472836,172752
1784138595455220570,2026-07-16T01:03:15.455+07:00,837453793979507485,396154,504533,472926,172765
1784138595473402388,2026-07-16T01:03:15.473+07:00,837453793979507485,396267,504598,472952,172791
1784138595491584206,2026-07-16T01:03:15.491+07:00,837453793979507485,396305,504747,473069,172767
1784138595509766024,2026-07-16T01:03:15.509+07:00,837453793979507485,396339,504780,473092,172714
1784138595527947842,2026-07-16T01:03:15.527+07:00,837453793979507485,396404,504870,473128,172746
1784138595546129660,2026-07-16T01:03:15.546+07:00,837453793979507485,396455,504966,473154,172685
1784138595564311478,2026-07-16T01:03:15.564+07:00,837453793979507485,396557,505063,473299,172716
1784138595582493296,2026-07-16T01:03:15.582+07:00,837453793979507485,396610,505162,473323,172755
1784138595600675114,2026-07-16T01:03:15.600+07:00,837453793979507485,396645,505272,473411,172700
1784138595618856932,2026-07-16T01:03:15.618+07:00,837453793979507485,396756,505332,473479,172745
1784138595637038750,2026-07-16T01:03:15.637+07:00,837453793979507485,396750,505317,473538,172767
1784138595655220568,2026-07-16T01:03:15.655+07:00,837453793979507485,396715,505350,473484,172777
1784138595673402386,2026-07-16T01:03:15.673+07:00,837453793979507485,396760,505232,473400,172737
1784138595691584204,2026-07-16T01:03:15.691+07:00,837453793979507485,396641,505224,473376,172720
1784138595709766022,2026-07-16T01:03:15.709+07:00,837453793979507485,396541,505090,473323,172699
1784138595727947840,2026-07-16T01:03:15.727+07:00,837453793979507485,396483,504928,473243,172752
1784138595746129658,2026-07-16T01:03:15.746+07:00,837453793979507485,396430,504822,473208,172752
1784138595764311476,2026-07-16T01:03:15.764+07:00,837453793979507485,396346,504726,473100,172752
1784138595782493294,2026-07-16T01:03:15.782+07:00,837453793979507485,396274,504650,473032,172732
1784138595800675112,2026-07-16T01:03:15.800+07:00,837453793979507485,396233,504470,472958,172784
1784138595818856930,2026-07-16T01:03:15.818+07:00,837453793979507485,396089,504430,472843,172732
