host_timestamp_ns,host_timestamp_iso,pmd_timestamp,ppg0,ppg1,ppg2,ambient
1783334792077555738,2026-07-06T17:46:32.077+07:00,540196371403392079,173005,129789,134381,1357
1783334792095737556,2026-07-06T17:46:32.095+07:00,540196371403392079,173016,129773,134420,1334
1783334792113919374,2026-07-06T17:46:32.113+07:00,540196371403392079,173042,129869,134384,1330
1783334792132101192,2026-07-06T17:46:32.132+07:00,540196371403392079,173110,129894,134496,1355
1783334792150283010,2026-07-06T17:46:32.150+07:00,540196371403392079,173159,129938,134548,1361
1783334792168464828,2026-07-06T17:46:32.168+07:00,540196371403392079,173197,129942,134561,1323
1783334792186646646,2026-07-06T17:46:32.186+07:00,540196371403392079,173235,129955,134576,1328
1783334792204828464,2026-07-06T17:46:32.204+07:00,540196371403392079,173167,129982,134578,1338
1783334792223010282,2026-07-06T17:46:32.223+07:00,540196371403392079,173164,129901,134550,1359
1783334792241192100,2026-07-06T17:46:32.241+07:00,540196371403392079,173019,129824,134442,1378
1783334792259373918,2026-07-06T17:46:32.259+07:00,540196371403392079,172972,129763,134421,1320
1783334792277555736,2026-07-06T17:46:32.277+07:00,540196371403392079,172979,129786,134399,1380
1783334792295737554,2026-07-06T17:46:32.295+07:00,540196371403392079,172915,129794,134379,1317
1783334792313919372,2026-07-06T17:46:32.313+07:00,540196371403392079,172836,129728,134289,1303
1783334792332101190,2026-07-06T17:46:32.332+07:00,540196371403392079,172827,129703,134337,1350
1783334792350283008,2026-07-06T17:46:32.350+07:00,540196371403392079,172838,129697,134328,1328
1783334792368464826,2026-07-06T17:46:32.368+07:00,540196371403392079,172765,129705,134320,1385
1783334792386646644,2026-07-06T17:46:32.386+07:00,540196371403392079,172738,129613,134301,1347
1783334792404828462,2026-07-06T17:46:32.404+07:00,540196371403392079,172660,129595,134270,1367
1783334792423010280,2026-07-06T17:46:32.423+07:00,540196371403392079,172627,129580,134267,1376
1783334792441192098,2026-07-06T17:46:32.441+07:00,540196371403392079,172635,129581,134222,1340
1783334792459373916,2026-07-06T17:46:32.459+07:00,540196371403392079,172647,129592,134264,1303
1783334792477555734,2026-07-06T17:46:32.477+07:00,540196371403392079,172663,129548,134226,1341
1783334792495737552,2026-07-06T17:46:32.495+07:00,540196371403392079,172584,129556,134202,1358
1783334792513919370,2026-07-06T17:46:32.513+07:00,540196371403392079,172560,129538,134202,1339
1783334792532101188,2026-07-06T17:46:32.532+07:00,540196371403392079,172611,129497,134256,1342
1783334792550283006,2026-07-06T17:46:32.550+07:00,540196371403392079,172614,129569,134230,1281
1783334792568464824,2026-07-06T17:46:32.568+07:00,540196371403392079,172704,129627,134335,1328
1783334792586646642,2026-07-06T17:46:32.586+07:00,540196371403392079,172656,129564,134293,1344
1783334792604828460,2026-07-06T17:46:32.604+07:00,540196371403392079,172672,129547,134279,1340
1783334792623010278,2026-07-06T17:46:32.623+07:00,540196371403392079,172678,129638,134353,1367
1783334792641192096,2026-07-06T17:46:32.641+07:00,540196371403392079,172674,129580,134374,1367
1783334792659373914,2026-07-06T17:46:32.659+07:00,540196371403392079,172674,129633,134414,1317
1783334792677555732,2026-07-06T17:46:32.677+07:00,540196371403392079,172729,129617,134422,1332
1783334792695737550,2026-07-06T17:46:32.695+07:00,540196371403392079,172694,129668,134456,1349
1783334792713919368,2026-07-06T17:46:32.713+07:00,540196371403392079,172659,129711,134469,1252
1783334792732101186,2026-07-06T17:46:32.732+07:00,540196371403392079,172727,129700,134535,1330
1783334792750283004,2026-07-06T17:46:32.750+07:00,540196371403392079,172733,129681,134576,1322
1783334792768464822,2026-07-06T17:46:32.768+07:00,540196371403392079,172726,129700,134548,1262
1783334792786646640,2026-07-06T17:46:32.786+07:00,540196371403392079,172732,129730,134551,1233
1783334792804828458,2026-07-06T17:46:32.804+07:00,540196371403392079,172802,129795,134620,1314
1783334792823010276,2026-07-06T17:46:32.823+07:00,540196371403392079,172863,129823,134708,1293
1783334792841192094,2026-07-06T17:46:32.841+07:00,540196371403392079,172854,129839,134676,1321
1783334792859373912,2026-07-06T17:46:32.859+07:00,540196371403392079,172834,129821,134709,1283
1783334792877555730,2026-07-06T17:46:32.877+07:00,540196371403392079,172896,129873,134739,1327
1783334792895737548,2026-07-06T17:46:32.895+07:00,540196372276890479,172974,129884,134787,1343
1783334792913919366,2026-07-06T17:46:32.913+07:00,540196372276890479,172945,129841,134840,1309
1783334792932101184,2026-07-06T17:46:32.932+07:00,540196372276890479,172983,129875,134832,1349
1783334792950283002,2026-07-06T17:46:32.950+07:00,540196372276890479,172974,129941,134881,1323
1783334792968464820,2026-07-06T17:46:32.968+07:00,540196372276890479,173016,130061,135045,1393
1783334792986646638,2026-07-06T17:46:32.986+07:00,540196372276890479,173018,130040,135033,1332
1783334793004828456,2026-07-06T17:46:33.004+07:00,540196372276890479,173006,130033,135013,1284
1783334793023010274,2026-07-06T17:46:33.023+07:00,540196372276890479,173138,130068,135021,1342
1783334793041192092,2026-07-06T17:46:33.041+07:00,540196372276890479,173145,130193,135086,1355
1783334793059373910,2026-07-06T17:46:33.059+07:00,540196372276890479,173263,130153,135118,1366
1783334793077555728,2026-07-06T17:46:33.077+07:00,540196372276890479,173249,130228,135175,1306
1783334793095737546,2026-07-06T17:46:33.095+07:00,540196372276890479,173252,130265,135271,1317
1783334793113919364,2026-07-06T17:46:33.113+07:00,540196372276890479,173288,130279,135258,1318
1783334793132101182,2026-07-06T17:46:33.132+07:00,540196372276890479,173318,130302,135345,1342
1783334793150283000,2026-07-06T17:46:33.150+07:00,540196372276890479,173398,130328,135346,1308
1783334793168464818,2026-07-06T17:46:33.168+07:00,540196372276890479,173432,130388,135373,1308
1783334793186646636,2026-07-06T17:46:33.186+07:00,540196372276890479,173488,130414,135416,1335
1783334793204828454,2026-07-06T17:46:33.204+07:00,540196372276890479,173537,130386,135498,1315
1783334793223010272,2026-07-06T17:46:33.223+07:00,540196372276890479,173556,130490,135510,1316
1783334793241192090,2026-07-06T17:46:33.241+07:00,540196372276890479,173468,130459,135501,1371
1783334793259373908,2026-07-06T17:46:33.259+07:00,540196372276890479,173436,130437,135489,1370
1783334793277555726,2026-07-06T17:46:33.277+07:00,540196372276890479,173368,130364,135379,1306
1783334793295737544,2026-07-06T17:46:33.295+07:00,540196372276890479,173360,130366,135359,1342
1783334793313919362,2026-07-06T17:46:33.313+07:00,540196372276890479,173325,130359,135333,1370
1783334793332101180,2026-07-06T17:46:33.332+07:00,540196372276890479,173282,130278,135255,1306
1783334793350282998,2026-07-06T17:46:33.350+07:00,540196372276890479,173195,130316,135300,1365
1783334793368464816,2026-07-06T17:46:33.368+07:00,540196372276890479,173178,130234,135300,1341
1783334793386646634,2026-07-06T17:46:33.386+07:00,540196372276890479,173113,130139,135254,1267
1783334793404828452,2026-07-06T17:46:33.404+07:00,540196372276890479,173041,130178,135227,1337
1783334793423010270,2026-07-06T17:46:33.423+07:00,540196372276890479,173019,130161,135127,1254
1783334793441192088,2026-07-06T17:46:33.441+07:00,540196372276890479,172994,130110,135121,1272
1783334793459373906,2026-07-06T17:46:33.459+07:00,540196372276890479,172951,130076,135159,1314
1783334793477555724,2026-07-06T17:46:33.477+07:00,540196372276890479,172936,130072,135132,1272
1783334793495737542,2026-07-06T17:46:33.495+07:00,540196372276890479,172899,130141,135187,1360
1783334793513919360,2026-07-06T17:46:33.513+07:00,540196372276890479,172933,130135,135224,1365
1783334793532101178,2026-07-06T17:46:33.532+07:00,540196372276890479,172887,130073,135170,1246
1783334793550282996,2026-07-06T17:46:33.550+07:00,540196372276890479,172912,130073,135220,1337
1783334793568464814,2026-07-06T17:46:33.568+07:00,540196372276890479,172873,130099,135198,1309
1783334793586646632,2026-07-06T17:46:33.586+07:00,540196372276890479,172900,130118,135280,1326
1783334793604828450,2026-07-06T17:46:33.604+07:00,540196372276890479,172849,130091,135289,1307
1783334793623010268,2026-07-06T17:46:33.623+07:00,540196372276890479,172884,130180,135310,1274
1783334793641192086,2026-07-06T17:46:33.641+07:00,540196372276890479,172908,130152,135312,1315
1783334793659373904,2026-07-06T17:46:33.659+07:00,540196372276890479,172875,130119,135302,1269
1783334793677555722,2026-07-06T17:46:33.677+07:00,540196372276890479,172923,130160,135367,1298
1783334793695737540,2026-07-06T17:46:33.695+07:00,540196372276890479,172891,130108,135375,1314
1783334793713919358,2026-07-06T17:46:33.713+07:00,540196372276890479,172891,130203,135410,1257
1783334793732101176,2026-07-06T17:46:33.732+07:00,540196372276890479,172956,130197,135452,1335
1783334793750282994,2026-07-06T17:46:33.750+07:00,540196372276890479,172940,130182,135463,1288
1783334793768464812,2026-07-06T17:46:33.768+07:00,540196373150419405,172998,130273,135535,1288
1783334793786646630,2026-07-06T17:46:33.786+07:00,540196373150419405,173031,130270,135549,1311
1783334793804828448,2026-07-06T17:46:33.804+07:00,540196373150419405,173066,130216,135557,1306
1783334793823010266,2026-07-06T17:46:33.823+07:00,540196373150419405,173068,130307,135570,1259
1783334793841192084,2026-07-06T17:46:33.841+07:00,540196373150419405,173105,130380,135646,1293
1783334793859373902,2026-07-06T17:46:33.859+07:00,540196373150419405,173130,130367,135653,1243
1783334793877555720,2026-07-06T17:46:33.877+07:00,540196373150419405,173193,130415,135675,1236
1783334793895737538,2026-07-06T17:46:33.895+07:00,540196373150419405,173161,130430,135743,1205
1783334793913919356,2026-07-06T17:46:33.913+07:00,540196373150419405,173245,130409,135794,1292
1783334793932101174,2026-07-06T17:46:33.932+07:00,540196373150419405,173269,130512,135877,1341
1783334793950282992,2026-07-06T17:46:33.950+07:00,540196373150419405,173273,130525,135900,1342
1783334793968464810,2026-07-06T17:46:33.968+07:00,540196373150419405,173301,130557,135893,1221
1783334793986646628,2026-07-06T17:46:33.986+07:00,540196373150419405,173381,130564,135967,1289
1783334794004828446,2026-07-06T17:46:34.004+07:00,540196373150419405,173427,130609,136033,1276
1783334794023010264,2026-07-06T17:46:34.023+07:00,540196373150419405,173445,130713,136091,1319
1783334794041192082,2026-07-06T17:46:34.041+07:00,540196373150419405,173492,130708,136148,1306
1783334794059373900,2026-07-06T17:46:34.059+07:00,540196373150419405,173518,130684,136125,1300
1783334794077555718,2026-07-06T17:46:34.077+07:00,540196373150419405,173530,130815,136222,1304
1783334794095737536,2026-07-06T17:46:34.095+07:00,540196373150419405,173587,130846,136259,1365
1783334794113919354,2026-07-06T17:46:34.113+07:00,540196373150419405,173649,130865,136282,1311
1783334794132101172,2026-07-06T17:46:34.132+07:00,540196373150419405,173717,130897,136301,1324
1783334794150282990,2026-07-06T17:46:34.150+07:00,540196373150419405,173744,130856,136332,1319
1783334794168464808,2026-07-06T17:46:34.168+07:00,540196373150419405,173789,130920,136408,1297
1783334794186646626,2026-07-06T17:46:34.186+07:00,540196373150419405,173837,130994,136482,1260
1783334794204828444,2026-07-06T17:46:34.204+07:00,540196373150419405,173895,131103,136528,1317
1783334794223010262,2026-07-06T17:46:34.223+07:00,540196373150419405,173952,131136,136593,1366
1783334794241192080,2026-07-06T17:46:34.241+07:00,540196373150419405,173937,131210,136623,1336
1783334794259373898,2026-07-06T17:46:34.259+07:00,540196373150419405,173976,131212,136644,1334
1783334794277555716,2026-07-06T17:46:34.277+07:00,540196373150419405,174007,131199,136657,1327
1783334794295737534,2026-07-06T17:46:34.295+07:00,540196373150419405,174009,131202,136696,1362
1783334794313919352,2026-07-06T17:46:34.313+07:00,540196373150419405,173966,131128,136624,1288
1783334794332101170,2026-07-06T17:46:34.332+07:00,540196373150419405,173905,131127,136646,1305
1783334794350282988,2026-07-06T17:46:34.350+07:00,540196373150419405,173912,131131,136558,1319
1783334794368464806,2026-07-06T17:46:34.368+07:00,540196373150419405,173892,131077,136542,1327
1783334794386646624,2026-07-06T17:46:34.386+07:00,540196373150419405,173843,131051,136574,1258
1783334794404828442,2026-07-06T17:46:34.404+07:00,540196373150419405,173858,131072,136619,1305
1783334794423010260,2026-07-06T17:46:34.423+07:00,540196373150419405,173852,131118,136638,1358
1783334794441192078,2026-07-06T17:46:34.441+07:00,540196373150419405,173853,131079,136660,1354
1783334794459373896,2026-07-06T17:46:34.459+07:00,540196373150419405,173845,131060,136581,1289
1783334794477555714,2026-07-06T17:46:34.477+07:00,540196373150419405,173825,131020,136634,1298
1783334794495737532,2026-07-06T17:46:34.495+07:00,540196373150419405,173828,131016,136609,1316
1783334794513919350,2026-07-06T17:46:34.513+07:00,540196373150419405,173864,131108,136725,1354
1783334794532101168,2026-07-06T17:46:34.532+07:00,540196373150419405,173856,131129,136689,1335
1783334794550282986,2026-07-06T17:46:34.550+07:00,540196373150419405,173841,131091,136749,1265
1783334794568464804,2026-07-06T17:46:34.568+07:00,540196373150419405,173879,131163,136763,1313
1783334794586646622,2026-07-06T17:46:34.586+07:00,540196373150419405,173868,131173,136740,1324
1783334794604828440,2026-07-06T17:46:34.604+07:00,540196373150419405,173950,131229,136814,1285
1783334794623010258,2026-07-06T17:46:34.623+07:00,540196373150419405,173933,131222,136883,1272
1783334794641192076,2026-07-06T17:46:34.641+07:00,540196374096729175,173947,131186,136915,1267
1783334794659373894,2026-07-06T17:46:34.659+07:00,540196374096729175,174026,131233,136972,1306
1783334794677555712,2026-07-06T17:46:34.677+07:00,540196374096729175,174011,131257,136999,1377
1783334794695737530,2026-07-06T17:46:34.695+07:00,540196374096729175,174037,131350,137054,1339
1783334794713919348,2026-07-06T17:46:34.713+07:00,540196374096729175,174055,131364,137068,1315
1783334794732101166,2026-07-06T17:46:34.732+07:00,540196374096729175,174133,131411,137154,1288
1783334794750282984,2026-07-06T17:46:34.750+07:00,540196374096729175,174221,131494,137242,1322
1783334794768464802,2026-07-06T17:46:34.768+07:00,540196374096729175,174187,131463,137194,1297
1783334794786646620,2026-07-06T17:46:34.786+07:00,540196374096729175,174288,131518,137254,1322
1783334794804828438,2026-07-06T17:46:34.804+07:00,540196374096729175,174253,131515,137263,1307
1783334794823010256,2026-07-06T17:46:34.823+07:00,540196374096729175,174330,131558,137339,1350
1783334794841192074,2026-07-06T17:46:34.841+07:00,540196374096729175,174412,131656,137431,1399
1783334794859373892,2026-07-06T17:46:34.859+07:00,540196374096729175,174422,131647,137429,1317
1783334794877555710,2026-07-06T17:46:34.877+07:00,540196374096729175,174417,131684,137508,1343
1783334794895737528,2026-07-06T17:46:34.895+07:00,540196374096729175,174465,131727,137565,1297
1783334794913919346,2026-07-06T17:46:34.913+07:00,540196374096729175,174540,131764,137636,1306
1783334794932101164,2026-07-06T17:46:34.932+07:00,540196374096729175,174591,131779,137626,1318
1783334794950282982,2026-07-06T17:46:34.950+07:00,540196374096729175,174609,131881,137692,1286
1783334794968464800,2026-07-06T17:46:34.968+07:00,540196374096729175,174635,131848,137749,1297
1783334794986646618,2026-07-06T17:46:34.986+07:00,540196374096729175,174746,131933,137792,1320
1783334795004828436,2026-07-06T17:46:35.004+07:00,540196374096729175,174762,131976,137855,1344
1783334795023010254,2026-07-06T17:46:35.023+07:00,540196374096729175,174842,132030,137972,1333
1783334795041192072,2026-07-06T17:46:35.041+07:00,540196374096729175,174898,132019,138057,1349
1783334795059373890,2026-07-06T17:46:35.059+07:00,540196374096729175,174916,132081,138033,1348
1783334795077555708,2026-07-06T17:46:35.077+07:00,540196374096729175,174905,132114,138066,1281
1783334795095737526,2026-07-06T17:46:35.095+07:00,540196374096729175,174975,132149,138160,1332
1783334795113919344,2026-07-06T17:46:35.113+07:00,540196374096729175,175100,132222,138194,1319
1783334795132101162,2026-07-06T17:46:35.132+07:00,540196374096729175,175114,132190,138196,1302
1783334795150282980,2026-07-06T17:46:35.150+07:00,540196374096729175,175149,132247,138295,1307
1783334795168464798,2026-07-06T17:46:35.168+07:00,540196374096729175,175198,132321,138332,1293
1783334795186646616,2026-07-06T17:46:35.186+07:00,540196374096729175,175227,132432,138446,1255
1783334795204828434,2026-07-06T17:46:35.204+07:00,540196374096729175,175297,132454,138488,1353
1783334795223010252,2026-07-06T17:46:35.223+07:00,540196374096729175,175318,132445,138517,1344
1783334795241192070,2026-07-06T17:46:35.241+07:00,540196374096729175,175373,132494,138602,1292
1783334795259373888,2026-07-06T17:46:35.259+07:00,540196374096729175,175494,132599,138699,1389
1783334795277555706,2026-07-06T17:46:35.277+07:00,540196374096729175,175511,132603,138709,1292
1783334795295737524,2026-07-06T17:46:35.295+07:00,540196374096729175,175578,132650,138794,1276
1783334795313919342,2026-07-06T17:46:35.313+07:00,540196374096729175,175516,132649,138746,1370
1783334795332101160,2026-07-06T17:46:35.332+07:00,540196374096729175,175495,132593,138736,1303
1783334795350282978,2026-07-06T17:46:35.350+07:00,540196374096729175,175544,132700,138754,1337
1783334795368464796,2026-07-06T17:46:35.368+07:00,540196374096729175,175507,132637,138721,1300
1783334795386646614,2026-07-06T17:46:35.386+07:00,540196374096729175,175547,132684,138762,1372
1783334795404828432,2026-07-06T17:46:35.404+07:00,540196374096729175,175495,132613,138766,1271
1783334795423010250,2026-07-06T17:46:35.423+07:00,540196374096729175,175577,132663,138790,1320
1783334795441192068,2026-07-06T17:46:35.441+07:00,540196374096729175,175532,132661,138822,1262
1783334795459373886,2026-07-06T17:46:35.459+07:00,540196374096729175,175519,132680,138869,1303
1783334795477555704,2026-07-06T17:46:35.477+07:00,540196374096729175,175535,132681,138879,1221
1783334795495737522,2026-07-06T17:46:35.495+07:00,540196374096729175,175618,132655,138879,1267
1783334795513919340,2026-07-06T17:46:35.513+07:00,540196374096729175,175641,132730,138967,1309
1783334795532101158,2026-07-06T17:46:35.532+07:00,540196374096729175,175585,132720,138939,1281
1783334795550282976,2026-07-06T17:46:35.550+07:00,540196374096729175,175654,132781,139053,1279
1783334795568464794,2026-07-06T17:46:35.568+07:00,540196374096729175,175757,132862,139163,1304
1783334795586646612,2026-07-06T17:46:35.586+07:00,540196374861050957,175770,132849,139195,1330
1783334795604828430,2026-07-06T17:46:35.604+07:00,540196374861050957,175775,132906,139214,1327
1783334795623010248,2026-07-06T17:46:35.623+07:00,540196374861050957,175815,132923,139279,1337
1783334795641192066,2026-07-06T17:46:35.641+07:00,540196374861050957,175889,132993,139367,1321
1783334795659373884,2026-07-06T17:46:35.659+07:00,540196374861050957,175853,132937,139405,1308
1783334795677555702,2026-07-06T17:46:35.677+07:00,540196374861050957,175959,133024,139423,1319
1783334795695737520,2026-07-06T17:46:35.695+07:00,540196374861050957,175916,133089,139487,1289
1783334795713919338,2026-07-06T17:46:35.713+07:00,540196374861050957,175909,133003,139497,1260
1783334795732101156,2026-07-06T17:46:35.732+07:00,540196374861050957,175975,133095,139625,1315
1783334795750282974,2026-07-06T17:46:35.750+07:00,540196374861050957,175969,133087,139590,1273
1783334795768464792,2026-07-06T17:46:35.768+07:00,540196374861050957,176081,133177,139681,1299
1783334795786646610,2026-07-06T17:46:35.786+07:00,540196374861050957,176104,133216,139684,1307
1783334795804828428,2026-07-06T17:46:35.804+07:00,540196374861050957,176160,133211,139726,1333
1783334795823010246,2026-07-06T17:46:35.823+07:00,540196374861050957,176163,133311,139825,1323
1783334795841192064,2026-07-06T17:46:35.841+07:00,540196374861050957,176240,133367,139858,1373
1783334795859373882,2026-07-06T17:46:35.859+07:00,540196374861050957,176260,133327,139901,1319
1783334795877555700,2026-07-06T17:46:35.877+07:00,540196374861050957,176290,133396,139961,1335
1783334795895737518,2026-07-06T17:46:35.895+07:00,540196374861050957,176263,133388,139936,1273
1783334795913919336,2026-07-06T17:46:35.913+07:00,540196374861050957,176292,133472,140027,1294
1783334795932101154,2026-07-06T17:46:35.932+07:00,540196374861050957,176360,133487,140096,1275
1783334795950282972,2026-07-06T17:46:35.950+07:00,540196374861050957,176397,133560,140163,1328
1783334795968464790,2026-07-06T17:46:35.968+07:00,540196374861050957,176463,133578,140174,1333
1783334795986646608,2026-07-06T17:46:35.986+07:00,540196374861050957,176579,133629,140271,1372
1783334796004828426,2026-07-06T17:46:36.004+07:00,540196374861050957,176579,133659,140304,1335
1783334796023010244,2026-07-06T17:46:36.023+07:00,540196374861050957,176602,133702,140325,1318
1783334796041192062,2026-07-06T17:46:36.041+07:00,540196374861050957,176620,133761,140322,1317
1783334796059373880,2026-07-06T17:46:36.059+07:00,540196374861050957,176733,133804,140420,1273
1783334796077555698,2026-07-06T17:46:36.077+07:00,540196374861050957,176790,133817,140515,1348
1783334796095737516,2026-07-06T17:46:36.095+07:00,540196374861050957,176795,133838,140528,1317
1783334796113919334,2026-07-06T17:46:36.113+07:00,540196374861050957,176850,133890,140613,1309
1783334796132101152,2026-07-06T17:46:36.132+07:00,540196374861050957,176962,133917,140681,1308
1783334796150282970,2026-07-06T17:46:36.150+07:00,540196374861050957,177000,134010,140785,1325
1783334796168464788,2026-07-06T17:46:36.168+07:00,540196374861050957,176987,134048,140774,1336
1783334796186646606,2026-07-06T17:46:36.186+07:00,540196374861050957,177008,134046,140814,1291
1783334796204828424,2026-07-06T17:46:36.204+07:00,540196374861050957,177086,134103,140869,1336
1783334796223010242,2026-07-06T17:46:36.223+07:00,540196374861050957,177100,134165,140839,1305
1783334796241192060,2026-07-06T17:46:36.241+07:00,540196374861050957,177209,134218,140998,1344
1783334796259373878,2026-07-06T17:46:36.259+07:00,540196374861050957,177250,134250,141024,1357
1783334796277555696,2026-07-06T17:46:36.277+07:00,540196374861050957,177330,134292,141056,1270
1783334796295737514,2026-07-06T17:46:36.295+07:00,540196374861050957,177372,134364,141163,1362
1783334796313919332,2026-07-06T17:46:36.313+07:00,540196374861050957,177412,134363,141202,1357
1783334796332101150,2026-07-06T17:46:36.332+07:00,540196374861050957,177365,134385,141197,1361
1783334796350282968,2026-07-06T17:46:36.350+07:00,540196375807401933,177417,134375,141196,1326
1783334796368464786,2026-07-06T17:46:36.368+07:00,540196375807401933,177393,134338,141187,1358
1783334796386646604,2026-07-06T17:46:36.386+07:00,540196375807401933,177359,134372,141198,1349
1783334796404828422,2026-07-06T17:46:36.404+07:00,540196375807401933,177348,134300,141085,1320
1783334796423010240,2026-07-06T17:46:36.423+07:00,540196375807401933,177384,134361,141108,1320
1783334796441192058,2026-07-06T17:46:36.441+07:00,540196375807401933,177401,134396,141178,1323
1783334796459373876,2026-07-06T17:46:36.459+07:00,540196375807401933,177356,134296,141178,1290
1783334796477555694,2026-07-06T17:46:36.477+07:00,540196375807401933,177445,134353,141221,1335
1783334796495737512,2026-07-06T17:46:36.495+07:00,540196375807401933,177445,134331,141262,1338
1783334796513919330,2026-07-06T17:46:36.513+07:00,540196375807401933,177407,134356,141264,1334
1783334796532101148,2026-07-06T17:46:36.532+07:00,540196375807401933,177477,134360,141264,1367
1783334796550282966,2026-07-06T17:46:36.550+07:00,540196375807401933,177447,134407,141348,1320
1783334796568464784,2026-07-06T17:46:36.568+07:00,540196375807401933,177485,134515,141402,1334
1783334796586646602,2026-07-06T17:46:36.586+07:00,540196375807401933,177520,134483,141442,1351
1783334796604828420,2026-07-06T17:46:36.604+07:00,540196375807401933,177564,134505,141484,1340
1783334796623010238,2026-07-06T17:46:36.623+07:00,540196375807401933,177589,134522,141510,1328
1783334796641192056,2026-07-06T17:46:36.641+07:00,540196375807401933,177658,134558,141478,1255
1783334796659373874,2026-07-06T17:46:36.659+07:00,540196375807401933,177684,134607,141572,1327
1783334796677555692,2026-07-06T17:46:36.677+07:00,540196375807401933,177689,134648,141621,1349
1783334796695737510,2026-07-06T17:46:36.695+07:00,540196375807401933,177746,134644,141664,1360
1783334796713919328,2026-07-06T17:46:36.713+07:00,540196375807401933,177822,134659,141713,1314
1783334796732101146,2026-07-06T17:46:36.732+07:00,540196375807401933,177774,134728,141746,1285
1783334796750282964,2026-07-06T17:46:36.750+07:00,540196375807401933,177805,134715,141804,1341
1783334796768464782,2026-07-06T17:46:36.768+07:00,540196375807401933,177820,134700,141825,1272
1783334796786646600,2026-07-06T17:46:36.786+07:00,540196375807401933,177860,134745,141894,1288
1783334796804828418,2026-07-06T17:46:36.804+07:00,540196375807401933,177940,134847,141891,1332
1783334796823010236,2026-07-06T17:46:36.823+07:00,540196375807401933,177953,134856,141946,1280
1783334796841192054,2026-07-06T17:46:36.841+07:00,540196375807401933,177957,134888,141980,1241
1783334796859373872,2026-07-06T17:46:36.859+07:00,540196375807401933,178002,134927,142072,1308
1783334796877555690,2026-07-06T17:46:36.877+07:00,540196375807401933,178055,134945,142062,1334
1783334796895737508,2026-07-06T17:46:36.895+07:00,540196375807401933,178086,134986,142132,1303
1783334796913919326,2026-07-06T17:46:36.913+07:00,540196375807401933,178161,135057,142181,1325
1783334796932101144,2026-07-06T17:46:36.932+07:00,540196375807401933,178191,135049,142245,1341
1783334796950282962,2026-07-06T17:46:36.950+07:00,540196375807401933,178190,135044,142316,1325
1783334796968464780,2026-07-06T17:46:36.968+07:00,540196375807401933,178244,135086,142346,1315
1783334796986646598,2026-07-06T17:46:36.986+07:00,540196375807401933,178266,135062,142324,1337
1783334797004828416,2026-07-06T17:46:37.004+07:00,540196375807401933,178357,135142,142424,1373
1783334797023010234,2026-07-06T17:46:37.023+07:00,540196375807401933,178363,135135,142454,1347
1783334797041192052,2026-07-06T17:46:37.041+07:00,540196375807401933,178437,135205,142418,1325
1783334797059373870,2026-07-06T17:46:37.059+07:00,540196375807401933,178494,135268,142497,1355
1783334797077555688,2026-07-06T17:46:37.077+07:00,540196375807401933,178511,135297,142517,1332
1783334797095737506,2026-07-06T17:46:37.095+07:00,540196375807401933,178490,135290,142555,1300
1783334797113919324,2026-07-06T17:46:37.113+07:00,540196375807401933,178571,135356,142606,1267
1783334797132101142,2026-07-06T17:46:37.132+07:00,540196375807401933,178522,135391,142603,1266
1783334797150282960,2026-07-06T17:46:37.150+07:00,540196375807401933,178586,135341,142686,1285
1783334797168464778,2026-07-06T17:46:37.168+07:00,540196375807401933,178666,135408,142680,1283
1783334797186646596,2026-07-06T17:46:37.186+07:00,540196375807401933,178644,135442,142770,1287
1783334797204828414,2026-07-06T17:46:37.204+07:00,540196375807401933,178676,135454,142818,1319
1783334797223010232,2026-07-06T17:46:37.223+07:00,540196375807401933,178761,135502,142842,1300
1783334797241192050,2026-07-06T17:46:37.241+07:00,540196375807401933,178786,135536,142867,1325
1783334797259373868,2026-07-06T17:46:37.259+07:00,540196375807401933,178846,135570,142882,1301
1783334797277555686,2026-07-06T17:46:37.277+07:00,540196375807401933,178911,135556,143000,1280
1783334797295737504,2026-07-06T17:46:37.295+07:00,540196376717322041,178964,135646,143062,1317
1783334797313919322,2026-07-06T17:46:37.313+07:00,540196376717322041,178953,135675,143060,1351
1783334797332101140,2026-07-06T17:46:37.332+07:00,540196376717322041,179015,135658,143111,1336
1783334797350282958,2026-07-06T17:46:37.350+07:00,540196376717322041,179022,135670,143128,1241
1783334797368464776,2026-07-06T17:46:37.368+07:00,540196376717322041,179068,135752,143209,1306
1783334797386646594,2026-07-06T17:46:37.386+07:00,540196376717322041,179133,135779,143216,1269
1783334797404828412,2026-07-06T17:46:37.404+07:00,540196376717322041,179139,135757,143226,1333
1783334797423010230,2026-07-06T17:46:37.423+07:00,540196376717322041,179077,135693,143142,1265
1783334797441192048,2026-07-06T17:46:37.441+07:00,540196376717322041,179061,135736,143166,1257
1783334797459373866,2026-07-06T17:46:37.459+07:00,540196376717322041,179026,135686,143151,1297
1783334797477555684,2026-07-06T17:46:37.477+07:00,540196376717322041,179027,135685,143086,1258
1783334797495737502,2026-07-06T17:46:37.495+07:00,540196376717322041,179007,135652,143140,1263
1783334797513919320,2026-07-06T17:46:37.513+07:00,540196376717322041,179154,135761,143176,1356
1783334797532101138,2026-07-06T17:46:37.532+07:00,540196376717322041,179165,135750,143114,1393
1783334797550282956,2026-07-06T17:46:37.550+07:00,540196376717322041,179115,135737,143112,1356
1783334797568464774,2026-07-06T17:46:37.568+07:00,540196376717322041,179089,135699,143140,1342
1783334797586646592,2026-07-06T17:46:37.586+07:00,540196376717322041,179075,135683,143165,1307
1783334797604828410,2026-07-06T17:46:37.604+07:00,540196376717322041,179048,135639,143154,1317
1783334797623010228,2026-07-06T17:46:37.623+07:00,540196376717322041,179070,135639,143183,1314
1783334797641192046,2026-07-06T17:46:37.641+07:00,540196376717322041,179100,135640,143144,1253
1783334797659373864,2026-07-06T17:46:37.659+07:00,540196376717322041,179137,135720,143230,1333
1783334797677555682,2026-07-06T17:46:37.677+07:00,540196376717322041,179188,135707,143254,1277
1783334797695737500,2026-07-06T17:46:37.695+07:00,540196376717322041,179183,135722,143217,1315
1783334797713919318,2026-07-06T17:46:37.713+07:00,540196376717322041,179177,135736,143212,1300
1783334797732101136,2026-07-06T17:46:37.732+07:00,540196376717322041,179215,135781,143267,1273
1783334797750282954,2026-07-06T17:46:37.750+07:00,540196376717322041,179170,135770,143215,1274
1783334797768464772,2026-07-06T17:46:37.768+07:00,540196376717322041,179214,135787,143277,1267
1783334797786646590,2026-07-06T17:46:37.786+07:00,540196376717322041,179191,135751,143293,1269
1783334797804828408,2026-07-06T17:46:37.804+07:00,540196376717322041,179260,135772,143316,1314
1783334797823010226,2026-07-06T17:46:37.823+07:00,540196376717322041,179279,135808,143412,1341
1783334797841192044,2026-07-06T17:46:37.841+07:00,540196376717322041,179273,135802,143386,1311
1783334797859373862,2026-07-06T17:46:37.859+07:00,540196376717322041,179269,135783,143400,1282
1783334797877555680,2026-07-06T17:46:37.877+07:00,540196376717322041,179323,135821,143429,1316
1783334797895737498,2026-07-06T17:46:37.895+07:00,540196376717322041,179324,135825,143481,1311
1783334797913919316,2026-07-06T17:46:37.913+07:00,540196376717322041,179373,135821,143465,1296
1783334797932101134,2026-07-06T17:46:37.932+07:00,540196376717322041,179418,135881,143451,1327
1783334797950282952,2026-07-06T17:46:37.950+07:00,540196376717322041,179417,135862,143480,1302
1783334797968464770,2026-07-06T17:46:37.968+07:00,540196376717322041,179401,135875,143471,1325
1783334797986646588,2026-07-06T17:46:37.986+07:00,540196376717322041,179395,135880,143489,1269
1783334798004828406,2026-07-06T17:46:38.004+07:00,540196376717322041,179480,135928,143561,1352
1783334798023010224,2026-07-06T17:46:38.023+07:00,540196376717322041,179499,135919,143527,1287
1783334798041192042,2026-07-06T17:46:38.041+07:00,540196376717322041,179541,135937,143569,1338
1783334798059373860,2026-07-06T17:46:38.059+07:00,540196376717322041,179569,135919,143591,1308
1783334798077555678,2026-07-06T17:46:38.077+07:00,540196376717322041,179482,135906,143592,1287
1783334798095737496,2026-07-06T17:46:38.095+07:00,540196376717322041,179536,135961,143636,1273
1783334798113919314,2026-07-06T17:46:38.113+07:00,540196376717322041,179550,135962,143641,1337
1783334798132101132,2026-07-06T17:46:38.132+07:00,540196376717322041,179558,135950,143627,1319
1783334798150282950,2026-07-06T17:46:38.150+07:00,540196376717322041,179622,136005,143655,1310
1783334798168464768,2026-07-06T17:46:38.168+07:00,540196376717322041,179622,136005,143693,1263
1783334798186646586,2026-07-06T17:46:38.186+07:00,540196376717322041,179596,135930,143660,1250
1783334798204828404,2026-07-06T17:46:38.204+07:00,540196377499866128,179636,136041,143695,1334
1783334798223010222,2026-07-06T17:46:38.223+07:00,540196377499866128,179686,136048,143751,1285
1783334798241192040,2026-07-06T17:46:38.241+07:00,540196377499866128,179713,136061,143790,1356
1783334798259373858,2026-07-06T17:46:38.259+07:00,540196377499866128,179743,136090,143828,1387
1783334798277555676,2026-07-06T17:46:38.277+07:00,540196377499866128,179679,136054,143810,1273
1783334798295737494,2026-07-06T17:46:38.295+07:00,540196377499866128,179699,136053,143872,1338
1783334798313919312,2026-07-06T17:46:38.313+07:00,540196377499866128,179732,136094,143911,1337
1783334798332101130,2026-07-06T17:46:38.332+07:00,540196377499866128,179733,136077,143868,1317
1783334798350282948,2026-07-06T17:46:38.350+07:00,540196377499866128,179785,136079,143877,1291
1783334798368464766,2026-07-06T17:46:38.368+07:00,540196377499866128,179822,136156,143901,1251
1783334798386646584,2026-07-06T17:46:38.386+07:00,540196377499866128,179835,136169,143906,1296
1783334798404828402,2026-07-06T17:46:38.404+07:00,540196377499866128,179903,136215,143957,1306
1783334798423010220,2026-07-06T17:46:38.423+07:00,540196377499866128,179901,136212,143993,1313
1783334798441192038,2026-07-06T17:46:38.441+07:00,540196377499866128,179945,136236,144025,1365
1783334798459373856,2026-07-06T17:46:38.459+07:00,540196377499866128,179910,136245,143964,1337
1783334798477555674,2026-07-06T17:46:38.477+07:00,540196377499866128,179926,136239,143927,1393
1783334798495737492,2026-07-06T17:46:38.495+07:00,540196377499866128,179841,136182,143927,1366
1783334798513919310,2026-07-06T17:46:38.513+07:00,540196377499866128,179743,136132,143808,1309
1783334798532101128,2026-07-06T17:46:38.532+07:00,540196377499866128,179777,136122,143746,1351
1783334798550282946,2026-07-06T17:46:38.550+07:00,540196377499866128,179649,136064,143685,1355
1783334798568464764,2026-07-06T17:46:38.568+07:00,540196377499866128,179622,136023,143647,1307
1783334798586646582,2026-07-06T17:46:38.586+07:00,540196377499866128,179709,136023,143647,1331
1783334798604828400,2026-07-06T17:46:38.604+07:00,540196377499866128,179677,135979,143628,1385
1783334798623010218,2026-07-06T17:46:38.623+07:00,540196377499866128,179649,135921,143624,1333
1783334798641192036,2026-07-06T17:46:38.641+07:00,540196377499866128,179602,135835,143598,1322
1783334798659373854,2026-07-06T17:46:38.659+07:00,540196377499866128,179535,135937,143595,1359
1783334798677555672,2026-07-06T17:46:38.677+07:00,540196377499866128,179489,135806,143484,1279
1783334798695737490,2026-07-06T17:46:38.695+07:00,540196377499866128,179515,135770,143473,1315
1783334798713919308,2026-07-06T17:46:38.713+07:00,540196377499866128,179489,135751,143469,1362
1783334798732101126,2026-07-06T17:46:38.732+07:00,540196377499866128,179508,135786,143464,1389
1783334798750282944,2026-07-06T17:46:38.750+07:00,540196377499866128,179434,135784,143446,1380
1783334798768464762,2026-07-06T17:46:38.768+07:00,540196377499866128,179455,135761,143433,1325
1783334798786646580,2026-07-06T17:46:38.786+07:00,540196377499866128,179427,135749,143414,1298
1783334798804828398,2026-07-06T17:46:38.804+07:00,540196377499866128,179384,135707,143347,1307
1783334798823010216,2026-07-06T17:46:38.823+07:00,540196377499866128,179362,135732,143360,1340
1783334798841192034,2026-07-06T17:46:38.841+07:00,540196377499866128,179379,135701,143376,1301
1783334798859373852,2026-07-06T17:46:38.859+07:00,540196377499866128,179306,135701,143330,1323
1783334798877555670,2026-07-06T17:46:38.877+07:00,540196377499866128,179313,135689,143295,1268
1783334798895737488,2026-07-06T17:46:38.895+07:00,540196377499866128,179265,135633,143236,1252
1783334798913919306,2026-07-06T17:46:38.913+07:00,540196377499866128,179337,135635,143278,1330
1783334798932101124,2026-07-06T17:46:38.932+07:00,540196377499866128,179323,135650,143264,1334
1783334798950282942,2026-07-06T17:46:38.950+07:00,540196377499866128,179339,135690,143253,1328
1783334798968464760,2026-07-06T17:46:38.968+07:00,540196377499866128,179316,135682,143302,1368
1783334798986646578,2026-07-06T17:46:38.986+07:00,540196378318801397,179234,135605,143239,1266
1783334799004828396,2026-07-06T17:46:39.004+07:00,540196378318801397,179253,135587,143209,1316
1783334799023010214,2026-07-06T17:46:39.023+07:00,540196378318801397,179207,135633,143264,1342
1783334799041192032,2026-07-06T17:46:39.041+07:00,540196378318801397,179229,135640,143224,1327
1783334799059373850,2026-07-06T17:46:39.059+07:00,540196378318801397,179216,135585,143219,1315
1783334799077555668,2026-07-06T17:46:39.077+07:00,540196378318801397,179229,135600,143218,1380
1783334799095737486,2026-07-06T17:46:39.095+07:00,540196378318801397,179209,135604,143230,1309
1783334799113919304,2026-07-06T17:46:39.113+07:00,540196378318801397,179187,135578,143213,1343
1783334799132101122,2026-07-06T17:46:39.132+07:00,540196378318801397,179161,135579,143208,1255
1783334799150282940,2026-07-06T17:46:39.150+07:00,540196378318801397,179141,135535,143138,1350
1783334799168464758,2026-07-06T17:46:39.168+07:00,540196378318801397,179106,135519,143171,1299
1783334799186646576,2026-07-06T17:46:39.186+07:00,540196378318801397,179110,135563,143190,1279
1783334799204828394,2026-07-06T17:46:39.204+07:00,540196378318801397,179161,135641,143223,1342
1783334799223010212,2026-07-06T17:46:39.223+07:00,540196378318801397,179167,135601,143177,1343
1783334799241192030,2026-07-06T17:46:39.241+07:00,540196378318801397,179119,135626,143210,1287
1783334799259373848,2026-07-06T17:46:39.259+07:00,540196378318801397,179116,135615,143208,1303
1783334799277555666,2026-07-06T17:46:39.277+07:00,540196378318801397,179150,135608,143186,1323
1783334799295737484,2026-07-06T17:46:39.295+07:00,540196378318801397,179145,135629,143185,1326
1783334799313919302,2026-07-06T17:46:39.313+07:00,540196378318801397,179134,135610,143154,1279
1783334799332101120,2026-07-06T17:46:39.332+07:00,540196378318801397,179188,135571,143207,1276
1783334799350282938,2026-07-06T17:46:39.350+07:00,540196378318801397,179218,135539,143173,1319
1783334799368464756,2026-07-06T17:46:39.368+07:00,540196378318801397,179210,135576,143198,1291
1783334799386646574,2026-07-06T17:46:39.386+07:00,540196378318801397,179225,135601,143291,1311
1783334799404828392,2026-07-06T17:46:39.404+07:00,540196378318801397,179183,135600,143271,1350
1783334799423010210,2026-07-06T17:46:39.423+07:00,540196378318801397,179127,135551,143208,1263
1783334799441192028,2026-07-06T17:46:39.441+07:00,540196378318801397,179183,135604,143249,1322
1783334799459373846,2026-07-06T17:46:39.459+07:00,540196378318801397,179136,135572,143207,1260
1783334799477555664,2026-07-06T17:46:39.477+07:00,540196378318801397,179065,135495,143098,1255
1783334799495737482,2026-07-06T17:46:39.495+07:00,540196378318801397,178929,135410,143010,1251
1783334799513919300,2026-07-06T17:46:39.513+07:00,540196378318801397,178861,135367,142919,1237
1783334799532101118,2026-07-06T17:46:39.532+07:00,540196378318801397,178830,135323,142841,1249
1783334799550282936,2026-07-06T17:46:39.550+07:00,540196378318801397,178719,135307,142734,1236
1783334799568464754,2026-07-06T17:46:39.568+07:00,540196378318801397,178706,135279,142755,1241
1783334799586646572,2026-07-06T17:46:39.586+07:00,540196378318801397,178690,135221,142704,1240
1783334799604828390,2026-07-06T17:46:39.604+07:00,540196378318801397,178561,135121,142664,1290
1783334799623010208,2026-07-06T17:46:39.623+07:00,540196378318801397,178500,135125,142541,1265
1783334799641192026,2026-07-06T17:46:39.641+07:00,540196378318801397,178416,135118,142568,1297
1783334799659373844,2026-07-06T17:46:39.659+07:00,540196378318801397,178440,135027,142480,1299
1783334799677555662,2026-07-06T17:46:39.677+07:00,540196378318801397,178447,135025,142416,1328
1783334799695737480,2026-07-06T17:46:39.695+07:00,540196378318801397,178333,134999,142320,1281
1783334799713919298,2026-07-06T17:46:39.713+07:00,540196378318801397,178326,135002,142376,1308
1783334799732101116,2026-07-06T17:46:39.732+07:00,540196378318801397,178222,134942,142353,1288
1783334799750282934,2026-07-06T17:46:39.750+07:00,540196378318801397,178181,134886,142353,1280
1783334799768464752,2026-07-06T17:46:39.768+07:00,540196378318801397,178159,134983,142279,1353
1783334799786646570,2026-07-06T17:46:39.786+07:00,540196378318801397,178095,134951,142295,1322
1783334799804828388,2026-07-06T17:46:39.804+07:00,540196379192310477,178007,134819,142233,1322
1783334799823010206,2026-07-06T17:46:39.823+07:00,540196379192310477,177910,134838,142193,1301
1783334799841192024,2026-07-06T17:46:39.841+07:00,540196379192310477,177935,134783,142108,1236
1783334799859373842,2026-07-06T17:46:39.859+07:00,540196379192310477,177915,134839,142125,1302
1783334799877555660,2026-07-06T17:46:39.877+07:00,540196379192310477,177870,134765,142121,1327
1783334799895737478,2026-07-06T17:46:39.895+07:00,540196379192310477,177828,134680,142057,1336
1783334799913919296,2026-07-06T17:46:39.913+07:00,540196379192310477,177775,134652,142070,1263
1783334799932101114,2026-07-06T17:46:39.932+07:00,540196379192310477,177770,134753,142024,1313
1783334799950282932,2026-07-06T17:46:39.950+07:00,540196379192310477,177762,134681,141992,1308
1783334799968464750,2026-07-06T17:46:39.968+07:00,540196379192310477,177724,134672,142003,1292
1783334799986646568,2026-07-06T17:46:39.986+07:00,540196379192310477,177727,134641,142015,1320
1783334800004828386,2026-07-06T17:46:40.004+07:00,540196379192310477,177723,134603,142003,1306
1783334800023010204,2026-07-06T17:46:40.023+07:00,540196379192310477,177621,134589,141946,1253
1783334800041192022,2026-07-06T17:46:40.041+07:00,540196379192310477,177628,134591,141960,1268
1783334800059373840,2026-07-06T17:46:40.059+07:00,540196379192310477,177625,134616,141955,1308
1783334800077555658,2026-07-06T17:46:40.077+07:00,540196379192310477,177603,134511,141906,1305
1783334800095737476,2026-07-06T17:46:40.095+07:00,540196379192310477,177571,134548,141886,1334
1783334800113919294,2026-07-06T17:46:40.113+07:00,540196379192310477,177560,134595,141947,1307
1783334800132101112,2026-07-06T17:46:40.132+07:00,540196379192310477,177504,134612,141914,1303
1783334800150282930,2026-07-06T17:46:40.150+07:00,540196379192310477,177510,134567,141897,1267
1783334800168464748,2026-07-06T17:46:40.168+07:00,540196379192310477,177579,134590,141963,1289
1783334800186646566,2026-07-06T17:46:40.186+07:00,540196379192310477,177583,134584,141915,1288
1783334800204828384,2026-07-06T17:46:40.204+07:00,540196379192310477,177524,134624,141918,1275
1783334800223010202,2026-07-06T17:46:40.223+07:00,540196379192310477,177552,134596,141964,1305
1783334800241192020,2026-07-06T17:46:40.241+07:00,540196379192310477,177533,134555,141922,1242
1783334800259373838,2026-07-06T17:46:40.259+07:00,540196379192310477,177507,134521,141925,1233
1783334800277555656,2026-07-06T17:46:40.277+07:00,540196379192310477,177512,134616,141964,1271
1783334800295737474,2026-07-06T17:46:40.295+07:00,540196379192310477,177543,134534,141917,1301
1783334800313919292,2026-07-06T17:46:40.313+07:00,540196379192310477,177530,134567,141902,1289
1783334800332101110,2026-07-06T17:46:40.332+07:00,540196379192310477,177528,134645,141934,1313
1783334800350282928,2026-07-06T17:46:40.350+07:00,540196379192310477,177515,134546,141897,1251
1783334800368464746,2026-07-06T17:46:40.368+07:00,540196379192310477,177526,134586,141925,1291
1783334800386646564,2026-07-06T17:46:40.386+07:00,540196379192310477,177521,134628,141942,1305
1783334800404828382,2026-07-06T17:46:40.404+07:00,540196379192310477,177527,134626,141984,1314
1783334800423010200,2026-07-06T17:46:40.423+07:00,540196379192310477,177510,134600,142004,1296
1783334800441192018,2026-07-06T17:46:40.441+07:00,540196379192310477,177482,134623,141916,1255
1783334800459373836,2026-07-06T17:46:40.459+07:00,540196379192310477,177470,134578,141918,1256
1783334800477555654,2026-07-06T17:46:40.477+07:00,540196379192310477,177523,134612,141946,1236
1783334800495737472,2026-07-06T17:46:40.495+07:00,540196379192310477,177415,134599,141827,1309
1783334800513919290,2026-07-06T17:46:40.513+07:00,540196379192310477,177284,134489,141757,1327
1783334800532101108,2026-07-06T17:46:40.532+07:00,540196379192310477,177198,134490,141637,1258
1783334800550282926,2026-07-06T17:46:40.550+07:00,540196379192310477,177122,134363,141573,1311
1783334800568464744,2026-07-06T17:46:40.568+07:00,540196379192310477,177034,134266,141465,1285
1783334800586646562,2026-07-06T17:46:40.586+07:00,540196379192310477,176953,134220,141408,1254
1783334800604828380,2026-07-06T17:46:40.604+07:00,540196379192310477,176853,134156,141334,1310
1783334800623010198,2026-07-06T17:46:40.623+07:00,540196379192310477,176796,134174,141278,1335
1783334800641192016,2026-07-06T17:46:40.641+07:00,540196379192310477,176716,134023,141199,1289
1783334800659373834,2026-07-06T17:46:40.659+07:00,540196379192310477,176626,134050,141176,1327
1783334800677555652,2026-07-06T17:46:40.677+07:00,540196380011146562,176517,133859,141048,1297
1783334800695737470,2026-07-06T17:46:40.695+07:00,540196380011146562,176372,133802,140973,1230
1783334800713919288,2026-07-06T17:46:40.713+07:00,540196380011146562,176343,133813,141023,1316
1783334800732101106,2026-07-06T17:46:40.732+07:00,540196380011146562,176289,133763,140931,1377
1783334800750282924,2026-07-06T17:46:40.750+07:00,540196380011146562,176222,133685,140922,1333
1783334800768464742,2026-07-06T17:46:40.768+07:00,540196380011146562,176198,133645,140869,1273
1783334800786646560,2026-07-06T17:46:40.786+07:00,540196380011146562,176121,133711,140829,1314
1783334800804828378,2026-07-06T17:46:40.804+07:00,540196380011146562,176059,133580,140780,1325
1783334800823010196,2026-07-06T17:46:40.823+07:00,540196380011146562,176058,133599,140780,1273
1783334800841192014,2026-07-06T17:46:40.841+07:00,540196380011146562,176009,133582,140732,1301
1783334800859373832,2026-07-06T17:46:40.859+07:00,540196380011146562,175989,133518,140689,1283
1783334800877555650,2026-07-06T17:46:40.877+07:00,540196380011146562,175951,133492,140661,1317
1783334800895737468,2026-07-06T17:46:40.895+07:00,540196380011146562,175876,133463,140597,1318
1783334800913919286,2026-07-06T17:46:40.913+07:00,540196380011146562,175825,133418,140578,1333
1783334800932101104,2026-07-06T17:46:40.932+07:00,540196380011146562,175791,133352,140539,1343
1783334800950282922,2026-07-06T17:46:40.950+07:00,540196380011146562,175752,133336,140560,1307
1783334800968464740,2026-07-06T17:46:40.968+07:00,540196380011146562,175707,133354,140572,1348
1783334800986646558,2026-07-06T17:46:40.986+07:00,540196380011146562,175653,133328,140601,1326
1783334801004828376,2026-07-06T17:46:41.004+07:00,540196380011146562,175688,133284,140523,1271
1783334801023010194,2026-07-06T17:46:41.023+07:00,540196380011146562,175637,133304,140539,1246
1783334801041192012,2026-07-06T17:46:41.041+07:00,540196380011146562,175576,133282,140543,1288
1783334801059373830,2026-07-06T17:46:41.059+07:00,540196380011146562,175560,133210,140503,1288
1783334801077555648,2026-07-06T17:46:41.077+07:00,540196380011146562,175548,133194,140462,1299
1783334801095737466,2026-07-06T17:46:41.095+07:00,540196380011146562,175560,133208,140455,1247
1783334801113919284,2026-07-06T17:46:41.113+07:00,540196380011146562,175540,133230,140442,1269
1783334801132101102,2026-07-06T17:46:41.132+07:00,540196380011146562,175544,133256,140469,1263
1783334801150282920,2026-07-06T17:46:41.150+07:00,540196380011146562,175618,133244,140473,1324
1783334801168464738,2026-07-06T17:46:41.168+07:00,540196380011146562,175500,133226,140466,1309
1783334801186646556,2026-07-06T17:46:41.186+07:00,540196380011146562,175547,133142,140459,1316
1783334801204828374,2026-07-06T17:46:41.204+07:00,540196380011146562,175579,133159,140446,1303
1783334801223010192,2026-07-06T17:46:41.223+07:00,540196380011146562,175556,133170,140484,1257
1783334801241192010,2026-07-06T17:46:41.241+07:00,540196380011146562,175493,133155,140483,1296
1783334801259373828,2026-07-06T17:46:41.259+07:00,540196380011146562,175543,133158,140489,1268
1783334801277555646,2026-07-06T17:46:41.277+07:00,540196380011146562,175512,133206,140505,1298
1783334801295737464,2026-07-06T17:46:41.295+07:00,540196380011146562,175511,133180,140544,1300
1783334801313919282,2026-07-06T17:46:41.313+07:00,540196380011146562,175562,133226,140527,1344
1783334801332101100,2026-07-06T17:46:41.332+07:00,540196380011146562,175547,133157,140512,1325
1783334801350282918,2026-07-06T17:46:41.350+07:00,540196380011146562,175585,133211,140522,1348
1783334801368464736,2026-07-06T17:46:41.368+07:00,540196380011146562,175478,133107,140482,1280
1783334801386646554,2026-07-06T17:46:41.386+07:00,540196380011146562,175524,133175,140513,1275
1783334801404828372,2026-07-06T17:46:41.404+07:00,540196380011146562,175507,133121,140502,1258
1783334801423010190,2026-07-06T17:46:41.423+07:00,540196380011146562,175532,133161,140560,1297
1783334801441192008,2026-07-06T17:46:41.441+07:00,540196380011146562,175531,133209,140574,1341
1783334801459373826,2026-07-06T17:46:41.459+07:00,540196380011146562,175535,133162,140575,1313
1783334801477555644,2026-07-06T17:46:41.477+07:00,540196380011146562,175536,133150,140575,1273
1783334801495737462,2026-07-06T17:46:41.495+07:00,540196380848117978,175567,133145,140621,1273
1783334801513919280,2026-07-06T17:46:41.513+07:00,540196380848117978,175575,133156,140539,1298
1783334801532101098,2026-07-06T17:46:41.532+07:00,540196380848117978,175580,133216,140590,1310
1783334801550282916,2026-07-06T17:46:41.550+07:00,540196380848117978,175417,133098,140417,1240
1783334801568464734,2026-07-06T17:46:41.568+07:00,540196380848117978,175394,133010,140337,1260
1783334801586646552,2026-07-06T17:46:41.586+07:00,540196380848117978,175266,132946,140275,1251
1783334801604828370,2026-07-06T17:46:41.604+07:00,540196380848117978,175220,132944,140215,1311
1783334801623010188,2026-07-06T17:46:41.623+07:00,540196380848117978,175150,132818,140168,1279
1783334801641192006,2026-07-06T17:46:41.641+07:00,540196380848117978,175092,132782,140094,1289
1783334801659373824,2026-07-06T17:46:41.659+07:00,540196380848117978,175014,132693,140094,1272
1783334801677555642,2026-07-06T17:46:41.677+07:00,540196380848117978,174910,132657,140018,1247
1783334801695737460,2026-07-06T17:46:41.695+07:00,540196380848117978,174861,132571,139985,1268
1783334801713919278,2026-07-06T17:46:41.713+07:00,540196380848117978,174780,132498,139905,1269
1783334801732101096,2026-07-06T17:46:41.732+07:00,540196380848117978,174815,132504,139925,1349
1783334801750282914,2026-07-06T17:46:41.750+07:00,540196380848117978,174712,132450,139845,1345
1783334801768464732,2026-07-06T17:46:41.768+07:00,540196380848117978,174635,132367,139768,1308
1783334801786646550,2026-07-06T17:46:41.786+07:00,540196380848117978,174601,132314,139766,1338
1783334801804828368,2026-07-06T17:46:41.804+07:00,540196380848117978,174635,132282,139768,1325
1783334801823010186,2026-07-06T17:46:41.823+07:00,540196380848117978,174572,132276,139779,1309
1783334801841192004,2026-07-06T17:46:41.841+07:00,540196380848117978,174550,132238,139702,1284
1783334801859373822,2026-07-06T17:46:41.859+07:00,540196380848117978,174516,132183,139670,1313
1783334801877555640,2026-07-06T17:46:41.877+07:00,540196380848117978,174454,132176,139663,1279
1783334801895737458,2026-07-06T17:46:41.895+07:00,540196380848117978,174418,132133,139618,1268
1783334801913919276,2026-07-06T17:46:41.913+07:00,540196380848117978,174412,132134,139659,1281
1783334801932101094,2026-07-06T17:46:41.932+07:00,540196380848117978,174395,132053,139612,1281
1783334801950282912,2026-07-06T17:46:41.950+07:00,540196380848117978,174341,132089,139649,1283
1783334801968464730,2026-07-06T17:46:41.968+07:00,540196380848117978,174375,132068,139658,1320
1783334801986646548,2026-07-06T17:46:41.986+07:00,540196380848117978,174346,132007,139586,1301
1783334802004828366,2026-07-06T17:46:42.004+07:00,540196380848117978,174335,132036,139614,1306
1783334802023010184,2026-07-06T17:46:42.023+07:00,540196380848117978,174323,132004,139600,1253
1783334802041192002,2026-07-06T17:46:42.041+07:00,540196380848117978,174244,131984,139555,1252
1783334802059373820,2026-07-06T17:46:42.059+07:00,540196380848117978,174286,131964,139631,1272
1783334802077555638,2026-07-06T17:46:42.077+07:00,540196380848117978,174298,131986,139623,1237
1783334802095737456,2026-07-06T17:46:42.095+07:00,540196380848117978,174331,131990,139633,1286
1783334802113919274,2026-07-06T17:46:42.113+07:00,540196380848117978,174289,131951,139652,1259
1783334802132101092,2026-07-06T17:46:42.132+07:00,540196380848117978,174285,131927,139651,1308
1783334802150282910,2026-07-06T17:46:42.150+07:00,540196380848117978,174363,131978,139722,1354
1783334802168464728,2026-07-06T17:46:42.168+07:00,540196380848117978,174371,131979,139649,1322
1783334802186646546,2026-07-06T17:46:42.186+07:00,540196380848117978,174328,131953,139622,1291
1783334802204828364,2026-07-06T17:46:42.204+07:00,540196380848117978,174373,131902,139606,1340
1783334802223010182,2026-07-06T17:46:42.223+07:00,540196380848117978,174407,131976,139683,1306
1783334802241192000,2026-07-06T17:46:42.241+07:00,540196380848117978,174372,131930,139671,1292
1783334802259373818,2026-07-06T17:46:42.259+07:00,540196380848117978,174391,131929,139674,1319
1783334802277555636,2026-07-06T17:46:42.277+07:00,540196380848117978,174427,131969,139715,1294
1783334802295737454,2026-07-06T17:46:42.295+07:00,540196380848117978,174357,131958,139804,1301
1783334802313919272,2026-07-06T17:46:42.313+07:00,540196380848117978,174427,131942,139720,1303
1783334802332101090,2026-07-06T17:46:42.332+07:00,540196381794249212,174490,131951,139770,1303
1783334802350282908,2026-07-06T17:46:42.350+07:00,540196381794249212,174441,131966,139810,1294
1783334802368464726,2026-07-06T17:46:42.368+07:00,540196381794249212,174541,132017,139869,1347
1783334802386646544,2026-07-06T17:46:42.386+07:00,540196381794249212,174557,131998,139893,1304
1783334802404828362,2026-07-06T17:46:42.404+07:00,540196381794249212,174532,131973,139847,1293
1783334802423010180,2026-07-06T17:46:42.423+07:00,540196381794249212,174505,131982,139887,1298
1783334802441191998,2026-07-06T17:46:42.441+07:00,540196381794249212,174469,132025,139891,1310
1783334802459373816,2026-07-06T17:46:42.459+07:00,540196381794249212,174567,132016,139891,1287
1783334802477555634,2026-07-06T17:46:42.477+07:00,540196381794249212,174613,132088,139925,1300
1783334802495737452,2026-07-06T17:46:42.495+07:00,540196381794249212,174651,132039,139915,1321
1783334802513919270,2026-07-06T17:46:42.513+07:00,540196381794249212,174645,132050,139981,1287
1783334802532101088,2026-07-06T17:46:42.532+07:00,540196381794249212,174693,132052,139984,1255
1783334802550282906,2026-07-06T17:46:42.550+07:00,540196381794249212,174717,132039,139975,1322
1783334802568464724,2026-07-06T17:46:42.568+07:00,540196381794249212,174662,131971,139937,1322
1783334802586646542,2026-07-06T17:46:42.586+07:00,540196381794249212,174605,131922,139870,1298
1783334802604828360,2026-07-06T17:46:42.604+07:00,540196381794249212,174552,131920,139832,1302
1783334802623010178,2026-07-06T17:46:42.623+07:00,540196381794249212,174438,131830,139763,1267
1783334802641191996,2026-07-06T17:46:42.641+07:00,540196381794249212,174507,131770,139724,1256
1783334802659373814,2026-07-06T17:46:42.659+07:00,540196381794249212,174405,131737,139665,1264
1783334802677555632,2026-07-06T17:46:42.677+07:00,540196381794249212,174368,131712,139688,1254
1783334802695737450,2026-07-06T17:46:42.695+07:00,540196381794249212,174383,131699,139635,1305
1783334802713919268,2026-07-06T17:46:42.713+07:00,540196381794249212,174344,131597,139637,1335
1783334802732101086,2026-07-06T17:46:42.732+07:00,540196381794249212,174280,131600,139626,1305
1783334802750282904,2026-07-06T17:46:42.750+07:00,540196381794249212,174243,131525,139577,1298
1783334802768464722,2026-07-06T17:46:42.768+07:00,540196381794249212,174196,131488,139529,1270
1783334802786646540,2026-07-06T17:46:42.786+07:00,540196381794249212,174168,131466,139541,1265
1783334802804828358,2026-07-06T17:46:42.804+07:00,540196381794249212,174161,131447,139515,1314
1783334802823010176,2026-07-06T17:46:42.823+07:00,540196381794249212,174140,131441,139537,1285
1783334802841191994,2026-07-06T17:46:42.841+07:00,540196381794249212,174160,131393,139511,1256
1783334802859373812,2026-07-06T17:46:42.859+07:00,540196381794249212,174098,131424,139515,1286
1783334802877555630,2026-07-06T17:46:42.877+07:00,540196381794249212,174156,131372,139559,1340
1783334802895737448,2026-07-06T17:46:42.895+07:00,540196381794249212,174212,131370,139560,1353
1783334802913919266,2026-07-06T17:46:42.913+07:00,540196381794249212,174126,131316,139544,1314
1783334802932101084,2026-07-06T17:46:42.932+07:00,540196381794249212,174169,131343,139515,1308
1783334802950282902,2026-07-06T17:46:42.950+07:00,540196381794249212,174178,131379,139499,1347
1783334802968464720,2026-07-06T17:46:42.968+07:00,540196381794249212,174098,131340,139510,1292
1783334802986646538,2026-07-06T17:46:42.986+07:00,540196381794249212,174143,131309,139458,1264
1783334803004828356,2026-07-06T17:46:43.004+07:00,540196381794249212,174097,131308,139514,1327
1783334803023010174,2026-07-06T17:46:43.023+07:00,540196381794249212,174078,131345,139513,1330
1783334803041191992,2026-07-06T17:46:43.041+07:00,540196381794249212,174114,131304,139549,1319
1783334803059373810,2026-07-06T17:46:43.059+07:00,540196381794249212,174210,131331,139566,1301
1783334803077555628,2026-07-06T17:46:43.077+07:00,540196381794249212,174183,131272,139544,1271
1783334803095737446,2026-07-06T17:46:43.095+07:00,540196381794249212,174199,131297,139619,1330
1783334803113919264,2026-07-06T17:46:43.113+07:00,540196381794249212,174136,131274,139584,1286
1783334803132101082,2026-07-06T17:46:43.132+07:00,540196381794249212,174246,131321,139597,1318
1783334803150282900,2026-07-06T17:46:43.150+07:00,540196381794249212,174267,131289,139567,1323
1783334803168464718,2026-07-06T17:46:43.168+07:00,540196381794249212,174272,131276,139635,1347
1783334803186646536,2026-07-06T17:46:43.186+07:00,540196381794249212,174206,131206,139591,1309
1783334803204828354,2026-07-06T17:46:43.204+07:00,540196381794249212,174297,131315,139656,1366
1783334803223010172,2026-07-06T17:46:43.223+07:00,540196381794249212,174312,131263,139682,1328
1783334803241191990,2026-07-06T17:46:43.241+07:00,540196381794249212,174329,131319,139659,1318
1783334803259373808,2026-07-06T17:46:43.259+07:00,540196381794249212,174337,131353,139749,1288
1783334803277555626,2026-07-06T17:46:43.277+07:00,540196382740313322,174393,131351,139761,1311
1783334803295737444,2026-07-06T17:46:43.295+07:00,540196382740313322,174447,131326,139773,1330
1783334803313919262,2026-07-06T17:46:43.313+07:00,540196382740313322,174473,131386,139855,1335
1783334803332101080,2026-07-06T17:46:43.332+07:00,540196382740313322,174504,131398,139853,1336
1783334803350282898,2026-07-06T17:46:43.350+07:00,540196382740313322,174520,131432,139855,1339
1783334803368464716,2026-07-06T17:46:43.368+07:00,540196382740313322,174581,131440,139898,1292
1783334803386646534,2026-07-06T17:46:43.386+07:00,540196382740313322,174594,131507,139972,1340
1783334803404828352,2026-07-06T17:46:43.404+07:00,540196382740313322,174610,131461,139895,1326
1783334803423010170,2026-07-06T17:46:43.423+07:00,540196382740313322,174702,131498,139976,1307
1783334803441191988,2026-07-06T17:46:43.441+07:00,540196382740313322,174772,131513,140049,1300
1783334803459373806,2026-07-06T17:46:43.459+07:00,540196382740313322,174762,131570,140069,1321
1783334803477555624,2026-07-06T17:46:43.477+07:00,540196382740313322,174886,131538,140146,1399
1783334803495737442,2026-07-06T17:46:43.495+07:00,540196382740313322,174808,131576,140110,1362
1783334803513919260,2026-07-06T17:46:43.513+07:00,540196382740313322,174836,131569,140148,1342
1783334803532101078,2026-07-06T17:46:43.532+07:00,540196382740313322,174806,131579,140113,1267
1783334803550282896,2026-07-06T17:46:43.550+07:00,540196382740313322,174885,131548,140124,1291
1783334803568464714,2026-07-06T17:46:43.568+07:00,540196382740313322,174766,131538,140006,1307
1783334803586646532,2026-07-06T17:46:43.586+07:00,540196382740313322,174745,131512,139967,1302
1783334803604828350,2026-07-06T17:46:43.604+07:00,540196382740313322,174801,131481,140001,1307
1783334803623010168,2026-07-06T17:46:43.623+07:00,540196382740313322,174752,131461,139990,1318
1783334803641191986,2026-07-06T17:46:43.641+07:00,540196382740313322,174743,131473,139976,1283
1783334803659373804,2026-07-06T17:46:43.659+07:00,540196382740313322,174798,131512,140064,1325
1783334803677555622,2026-07-06T17:46:43.677+07:00,540196382740313322,174748,131491,139994,1318
1783334803695737440,2026-07-06T17:46:43.695+07:00,540196382740313322,174765,131455,140017,1411
1783334803713919258,2026-07-06T17:46:43.713+07:00,540196382740313322,174724,131468,140007,1354
1783334803732101076,2026-07-06T17:46:43.732+07:00,540196382740313322,174767,131463,140046,1352
1783334803750282894,2026-07-06T17:46:43.750+07:00,540196382740313322,174714,131417,140068,1297
1783334803768464712,2026-07-06T17:46:43.768+07:00,540196382740313322,174750,131373,140050,1359
1783334803786646530,2026-07-06T17:46:43.786+07:00,540196382740313322,174742,131386,140088,1318
1783334803804828348,2026-07-06T17:46:43.804+07:00,540196382740313322,174717,131386,140126,1285
1783334803823010166,2026-07-06T17:46:43.823+07:00,540196382740313322,174760,131395,140022,1308
1783334803841191984,2026-07-06T17:46:43.841+07:00,540196382740313322,174769,131385,140095,1320
1783334803859373802,2026-07-06T17:46:43.859+07:00,540196382740313322,174789,131403,140154,1297
1783334803877555620,2026-07-06T17:46:43.877+07:00,540196382740313322,174861,131433,140162,1309
1783334803895737438,2026-07-06T17:46:43.895+07:00,540196382740313322,174868,131430,140187,1344
1783334803913919256,2026-07-06T17:46:43.913+07:00,540196382740313322,174849,131415,140126,1344
1783334803932101074,2026-07-06T17:46:43.932+07:00,540196382740313322,174843,131471,140175,1290
1783334803950282892,2026-07-06T17:46:43.950+07:00,540196382740313322,174894,131423,140171,1310
1783334803968464710,2026-07-06T17:46:43.968+07:00,540196382740313322,174891,131493,140241,1293
1783334803986646528,2026-07-06T17:46:43.986+07:00,540196382740313322,174885,131437,140302,1282
1783334804004828346,2026-07-06T17:46:44.004+07:00,540196382740313322,174901,131449,140291,1242
1783334804023010164,2026-07-06T17:46:44.023+07:00,540196382740313322,174961,131529,140404,1307
1783334804041191982,2026-07-06T17:46:44.041+07:00,540196382740313322,174969,131488,140368,1230
1783334804059373800,2026-07-06T17:46:44.059+07:00,540196382740313322,175004,131535,140380,1296
1783334804077555618,2026-07-06T17:46:44.077+07:00,540196382740313322,175006,131497,140407,1303
1783334804095737436,2026-07-06T17:46:44.095+07:00,540196382740313322,175117,131522,140449,1302
1783334804113919254,2026-07-06T17:46:44.113+07:00,540196382740313322,175137,131551,140482,1323
1783334804132101072,2026-07-06T17:46:44.132+07:00,540196382740313322,175158,131569,140483,1326
1783334804150282890,2026-07-06T17:46:44.150+07:00,540196382740313322,175163,131571,140543,1338
1783334804168464708,2026-07-06T17:46:44.168+07:00,540196382740313322,175222,131594,140606,1304
1783334804186646526,2026-07-06T17:46:44.186+07:00,540196382740313322,175220,131607,140597,1324
1783334804204828344,2026-07-06T17:46:44.204+07:00,540196382740313322,175317,131682,140622,1313
1783334804223010162,2026-07-06T17:46:44.223+07:00,540196383595516183,175267,131734,140659,1304
1783334804241191980,2026-07-06T17:46:44.241+07:00,540196383595516183,175358,131751,140670,1320
1783334804259373798,2026-07-06T17:46:44.259+07:00,540196383595516183,175370,131803,140736,1338
1783334804277555616,2026-07-06T17:46:44.277+07:00,540196383595516183,175413,131817,140803,1321
1783334804295737434,2026-07-06T17:46:44.295+07:00,540196383595516183,175439,131767,140806,1323
1783334804313919252,2026-07-06T17:46:44.313+07:00,540196383595516183,175491,131810,140792,1325
1783334804332101070,2026-07-06T17:46:44.332+07:00,540196383595516183,175504,131861,140894,1284
1783334804350282888,2026-07-06T17:46:44.350+07:00,540196383595516183,175583,131788,140904,1293
1783334804368464706,2026-07-06T17:46:44.368+07:00,540196383595516183,175611,131920,141001,1300
1783334804386646524,2026-07-06T17:46:44.386+07:00,540196383595516183,175610,131905,140999,1276
1783334804404828342,2026-07-06T17:46:44.404+07:00,540196383595516183,175687,131952,141021,1325
1783334804423010160,2026-07-06T17:46:44.423+07:00,540196383595516183,175686,131972,141075,1326
1783334804441191978,2026-07-06T17:46:44.441+07:00,540196383595516183,175651,131966,141076,1291
1783334804459373796,2026-07-06T17:46:44.459+07:00,540196383595516183,175662,131954,141040,1309
1783334804477555614,2026-07-06T17:46:44.477+07:00,540196383595516183,175722,131944,141065,1384
1783334804495737432,2026-07-06T17:46:44.495+07:00,540196383595516183,175704,131874,141039,1357
1783334804513919250,2026-07-06T17:46:44.513+07:00,540196383595516183,175684,131886,140964,1333
1783334804532101068,2026-07-06T17:46:44.532+07:00,540196383595516183,175668,131862,140977,1340
1783334804550282886,2026-07-06T17:46:44.550+07:00,540196383595516183,175690,131852,140948,1384
1783334804568464704,2026-07-06T17:46:44.568+07:00,540196383595516183,175660,131824,140981,1324
1783334804586646522,2026-07-06T17:46:44.586+07:00,540196383595516183,175607,131847,141075,1305
1783334804604828340,2026-07-06T17:46:44.604+07:00,540196383595516183,175646,131847,141042,1338
1783334804623010158,2026-07-06T17:46:44.623+07:00,540196383595516183,175639,131837,140988,1349
1783334804641191976,2026-07-06T17:46:44.641+07:00,540196383595516183,175580,131771,140906,1310
1783334804659373794,2026-07-06T17:46:44.659+07:00,540196383595516183,175562,131724,140996,1335
1783334804677555612,2026-07-06T17:46:44.677+07:00,540196383595516183,175574,131749,140928,1333
1783334804695737430,2026-07-06T17:46:44.695+07:00,540196383595516183,175607,131735,141034,1290
1783334804713919248,2026-07-06T17:46:44.713+07:00,540196383595516183,175663,131773,141050,1279
1783334804732101066,2026-07-06T17:46:44.732+07:00,540196383595516183,175667,131818,141079,1309
1783334804750282884,2026-07-06T17:46:44.750+07:00,540196383595516183,175651,131807,141119,1307
1783334804768464702,2026-07-06T17:46:44.768+07:00,540196383595516183,175632,131826,141083,1321
1783334804786646520,2026-07-06T17:46:44.786+07:00,540196383595516183,175625,131798,141129,1226
1783334804804828338,2026-07-06T17:46:44.804+07:00,540196383595516183,175664,131847,141213,1285
1783334804823010156,2026-07-06T17:46:44.823+07:00,540196383595516183,175700,131835,141166,1281
1783334804841191974,2026-07-06T17:46:44.841+07:00,540196383595516183,175775,131853,141184,1289
1783334804859373792,2026-07-06T17:46:44.859+07:00,540196383595516183,175768,131878,141241,1332
1783334804877555610,2026-07-06T17:46:44.877+07:00,540196383595516183,175809,131902,141254,1313
1783334804895737428,2026-07-06T17:46:44.895+07:00,540196383595516183,175822,131921,141294,1336
1783334804913919246,2026-07-06T17:46:44.913+07:00,540196383595516183,175898,131976,141360,1330
1783334804932101064,2026-07-06T17:46:44.932+07:00,540196383595516183,175912,131969,141357,1271
1783334804950282882,2026-07-06T17:46:44.950+07:00,540196383595516183,175907,131982,141389,1322
1783334804968464700,2026-07-06T17:46:44.968+07:00,540196383595516183,175928,132014,141362,1270
1783334804986646518,2026-07-06T17:46:44.986+07:00,540196383595516183,175983,132006,141382,1318
1783334805004828336,2026-07-06T17:46:45.004+07:00,540196383595516183,175985,131946,141405,1318
1783334805023010154,2026-07-06T17:46:45.023+07:00,540196383595516183,175986,132078,141415,1289
1783334805041191972,2026-07-06T17:46:45.041+07:00,540196383595516183,175985,132034,141469,1300
1783334805059373790,2026-07-06T17:46:45.059+07:00,540196383595516183,176037,132085,141529,1271
1783334805077555608,2026-07-06T17:46:45.077+07:00,540196384396252045,176123,132095,141562,1317
1783334805095737426,2026-07-06T17:46:45.095+07:00,540196384396252045,176190,132213,141619,1294
1783334805113919244,2026-07-06T17:46:45.113+07:00,540196384396252045,176146,132142,141596,1266
1783334805132101062,2026-07-06T17:46:45.132+07:00,540196384396252045,176221,132211,141714,1290
1783334805150282880,2026-07-06T17:46:45.150+07:00,540196384396252045,176242,132310,141733,1282
1783334805168464698,2026-07-06T17:46:45.168+07:00,540196384396252045,176329,132280,141781,1291
1783334805186646516,2026-07-06T17:46:45.186+07:00,540196384396252045,176376,132299,141858,1283
1783334805204828334,2026-07-06T17:46:45.204+07:00,540196384396252045,176402,132298,141892,1265
1783334805223010152,2026-07-06T17:46:45.223+07:00,540196384396252045,176484,132298,141909,1289
1783334805241191970,2026-07-06T17:46:45.241+07:00,540196384396252045,176450,132293,141844,1262
1783334805259373788,2026-07-06T17:46:45.259+07:00,540196384396252045,176526,132361,141948,1324
1783334805277555606,2026-07-06T17:46:45.277+07:00,540196384396252045,176515,132413,141977,1351
1783334805295737424,2026-07-06T17:46:45.295+07:00,540196384396252045,176556,132497,142065,1315
1783334805313919242,2026-07-06T17:46:45.313+07:00,540196384396252045,176646,132450,142084,1314
1783334805332101060,2026-07-06T17:46:45.332+07:00,540196384396252045,176660,132564,142173,1287
1783334805350282878,2026-07-06T17:46:45.350+07:00,540196384396252045,176702,132522,142123,1292
1783334805368464696,2026-07-06T17:46:45.368+07:00,540196384396252045,176763,132576,142138,1239
1783334805386646514,2026-07-06T17:46:45.386+07:00,540196384396252045,176825,132657,142236,1313
1783334805404828332,2026-07-06T17:46:45.404+07:00,540196384396252045,176753,132588,142253,1267
1783334805423010150,2026-07-06T17:46:45.423+07:00,540196384396252045,176804,132579,142234,1276
1783334805441191968,2026-07-06T17:46:45.441+07:00,540196384396252045,176759,132528,142125,1272
1783334805459373786,2026-07-06T17:46:45.459+07:00,540196384396252045,176737,132596,142162,1401
1783334805477555604,2026-07-06T17:46:45.477+07:00,540196384396252045,176669,132478,142082,1276
1783334805495737422,2026-07-06T17:46:45.495+07:00,540196384396252045,176643,132443,142102,1287
1783334805513919240,2026-07-06T17:46:45.513+07:00,540196384396252045,176716,132502,142173,1328
1783334805532101058,2026-07-06T17:46:45.532+07:00,540196384396252045,176765,132539,142206,1376
1783334805550282876,2026-07-06T17:46:45.550+07:00,540196384396252045,176586,132436,142152,1269
1783334805568464694,2026-07-06T17:46:45.568+07:00,540196384396252045,176656,132482,142148,1349
1783334805586646512,2026-07-06T17:46:45.586+07:00,540196384396252045,176559,132417,142167,1326
1783334805604828330,2026-07-06T17:46:45.604+07:00,540196384396252045,176563,132433,142098,1299
1783334805623010148,2026-07-06T17:46:45.623+07:00,540196384396252045,176594,132394,142133,1282
1783334805641191966,2026-07-06T17:46:45.641+07:00,540196384396252045,176618,132375,142113,1322
1783334805659373784,2026-07-06T17:46:45.659+07:00,540196384396252045,176558,132376,142141,1338
1783334805677555602,2026-07-06T17:46:45.677+07:00,540196384396252045,176567,132388,142165,1344
1783334805695737420,2026-07-06T17:46:45.695+07:00,540196384396252045,176583,132454,142171,1331
1783334805713919238,2026-07-06T17:46:45.713+07:00,540196384396252045,176526,132427,142206,1320
1783334805732101056,2026-07-06T17:46:45.732+07:00,540196384396252045,176615,132430,142188,1339
1783334805750282874,2026-07-06T17:46:45.750+07:00,540196384396252045,176655,132422,142230,1335
1783334805768464692,2026-07-06T17:46:45.768+07:00,540196384396252045,176656,132399,142226,1338
1783334805786646510,2026-07-06T17:46:45.786+07:00,540196384396252045,176626,132366,142196,1349
1783334805804828328,2026-07-06T17:46:45.804+07:00,540196384396252045,176649,132398,142244,1335
1783334805823010146,2026-07-06T17:46:45.823+07:00,540196384396252045,176693,132334,142227,1345
1783334805841191964,2026-07-06T17:46:45.841+07:00,540196384396252045,176740,132414,142277,1366
1783334805859373782,2026-07-06T17:46:45.859+07:00,540196384396252045,176660,132408,142268,1357
1783334805877555600,2026-07-06T17:46:45.877+07:00,540196385233363841,176676,132410,142284,1340
1783334805895737418,2026-07-06T17:46:45.895+07:00,540196385233363841,176776,132468,142304,1331
1783334805913919236,2026-07-06T17:46:45.913+07:00,540196385233363841,176807,132433,142308,1285
1783334805932101054,2026-07-06T17:46:45.932+07:00,540196385233363841,176757,132436,142345,1315
1783334805950282872,2026-07-06T17:46:45.950+07:00,540196385233363841,176760,132476,142323,1279
1783334805968464690,2026-07-06T17:46:45.968+07:00,540196385233363841,176780,132482,142425,1330
1783334805986646508,2026-07-06T17:46:45.986+07:00,540196385233363841,176808,132484,142463,1350
1783334806004828326,2026-07-06T17:46:46.004+07:00,540196385233363841,176827,132499,142508,1371
1783334806023010144,2026-07-06T17:46:46.023+07:00,540196385233363841,176848,132560,142460,1320
1783334806041191962,2026-07-06T17:46:46.041+07:00,540196385233363841,176841,132568,142498,1337
1783334806059373780,2026-07-06T17:46:46.059+07:00,540196385233363841,176906,132510,142496,1360
1783334806077555598,2026-07-06T17:46:46.077+07:00,540196385233363841,176960,132572,142564,1335
1783334806095737416,2026-07-06T17:46:46.095+07:00,540196385233363841,176999,132573,142535,1324
1783334806113919234,2026-07-06T17:46:46.113+07:00,540196385233363841,177013,132580,142544,1326
1783334806132101052,2026-07-06T17:46:46.132+07:00,540196385233363841,176994,132614,142536,1280
1783334806150282870,2026-07-06T17:46:46.150+07:00,540196385233363841,177041,132662,142616,1285
1783334806168464688,2026-07-06T17:46:46.168+07:00,540196385233363841,177075,132628,142628,1264
1783334806186646506,2026-07-06T17:46:46.186+07:00,540196385233363841,177085,132669,142681,1306
1783334806204828324,2026-07-06T17:46:46.204+07:00,540196385233363841,177125,132685,142683,1379
1783334806223010142,2026-07-06T17:46:46.223+07:00,540196385233363841,177230,132693,142738,1350
1783334806241191960,2026-07-06T17:46:46.241+07:00,540196385233363841,177198,132683,142714,1350
1783334806259373778,2026-07-06T17:46:46.259+07:00,540196385233363841,177260,132679,142747,1387
1783334806277555596,2026-07-06T17:46:46.277+07:00,540196385233363841,177263,132721,142780,1314
1783334806295737414,2026-07-06T17:46:46.295+07:00,540196385233363841,177274,132731,142809,1380
1783334806313919232,2026-07-06T17:46:46.313+07:00,540196385233363841,177316,132708,142821,1327
1783334806332101050,2026-07-06T17:46:46.332+07:00,540196385233363841,177365,132773,142879,1334
1783334806350282868,2026-07-06T17:46:46.350+07:00,540196385233363841,177391,132815,142891,1373
1783334806368464686,2026-07-06T17:46:46.368+07:00,540196385233363841,177402,132755,142864,1332
1783334806386646504,2026-07-06T17:46:46.386+07:00,540196385233363841,177455,132886,142919,1380
1783334806404828322,2026-07-06T17:46:46.404+07:00,540196385233363841,177465,132845,142895,1355
1783334806423010140,2026-07-06T17:46:46.423+07:00,540196385233363841,177503,132893,142888,1344
1783334806441191958,2026-07-06T17:46:46.441+07:00,540196385233363841,177501,132842,142925,1296
1783334806459373776,2026-07-06T17:46:46.459+07:00,540196385233363841,177447,132844,142961,1340
1783334806477555594,2026-07-06T17:46:46.477+07:00,540196385233363841,177416,132783,142860,1327
1783334806495737412,2026-07-06T17:46:46.495+07:00,540196385233363841,177353,132795,142862,1333
1783334806513919230,2026-07-06T17:46:46.513+07:00,540196385233363841,177285,132716,142809,1307
1783334806532101048,2026-07-06T17:46:46.532+07:00,540196385233363841,177317,132742,142796,1310
1783334806550282866,2026-07-06T17:46:46.550+07:00,540196385233363841,177259,132712,142680,1291
1783334806568464684,2026-07-06T17:46:46.568+07:00,540196385233363841,177241,132638,142694,1326
1783334806586646502,2026-07-06T17:46:46.586+07:00,540196385233363841,177236,132663,142684,1336
1783334806604828320,2026-07-06T17:46:46.604+07:00,540196385233363841,177147,132605,142637,1305
1783334806623010138,2026-07-06T17:46:46.623+07:00,540196385233363841,177120,132567,142608,1352
1783334806641191956,2026-07-06T17:46:46.641+07:00,540196385233363841,177125,132553,142563,1277
1783334806659373774,2026-07-06T17:46:46.659+07:00,540196385233363841,177067,132503,142578,1256
1783334806677555592,2026-07-06T17:46:46.677+07:00,540196385233363841,177110,132451,142565,1251
1783334806695737410,2026-07-06T17:46:46.695+07:00,540196385233363841,177086,132445,142629,1307
1783334806713919228,2026-07-06T17:46:46.713+07:00,540196386179702603,177093,132407,142580,1259
1783334806732101046,2026-07-06T17:46:46.732+07:00,540196386179702603,177059,132447,142593,1255
1783334806750282864,2026-07-06T17:46:46.750+07:00,540196386179702603,177166,132460,142613,1319
1783334806768464682,2026-07-06T17:46:46.768+07:00,540196386179702603,177122,132454,142606,1307
1783334806786646500,2026-07-06T17:46:46.786+07:00,540196386179702603,177132,132430,142596,1306
1783334806804828318,2026-07-06T17:46:46.804+07:00,540196386179702603,177088,132397,142614,1324
1783334806823010136,2026-07-06T17:46:46.823+07:00,540196386179702603,177096,132339,142646,1340
1783334806841191954,2026-07-06T17:46:46.841+07:00,540196386179702603,177113,132370,142596,1318
1783334806859373772,2026-07-06T17:46:46.859+07:00,540196386179702603,177151,132376,142625,1298
1783334806877555590,2026-07-06T17:46:46.877+07:00,540196386179702603,177170,132346,142593,1351
1783334806895737408,2026-07-06T17:46:46.895+07:00,540196386179702603,177134,132373,142632,1297
1783334806913919226,2026-07-06T17:46:46.913+07:00,540196386179702603,177178,132370,142639,1362
1783334806932101044,2026-07-06T17:46:46.932+07:00,540196386179702603,177151,132309,142546,1292
1783334806950282862,2026-07-06T17:46:46.950+07:00,540196386179702603,177187,132372,142640,1345
1783334806968464680,2026-07-06T17:46:46.968+07:00,540196386179702603,177209,132409,142644,1358
1783334806986646498,2026-07-06T17:46:46.986+07:00,540196386179702603,177167,132420,142618,1289
1783334807004828316,2026-07-06T17:46:47.004+07:00,540196386179702603,177212,132375,142645,1286
1783334807023010134,2026-07-06T17:46:47.023+07:00,540196386179702603,177187,132380,142629,1345
1783334807041191952,2026-07-06T17:46:47.041+07:00,540196386179702603,177218,132401,142616,1302
1783334807059373770,2026-07-06T17:46:47.059+07:00,540196386179702603,177217,132399,142685,1301
1783334807077555588,2026-07-06T17:46:47.077+07:00,540196386179702603,177303,132418,142693,1338
1783334807095737406,2026-07-06T17:46:47.095+07:00,540196386179702603,177272,132391,142717,1331
1783334807113919224,2026-07-06T17:46:47.113+07:00,540196386179702603,177304,132437,142752,1319
1783334807132101042,2026-07-06T17:46:47.132+07:00,540196386179702603,177388,132435,142720,1309
1783334807150282860,2026-07-06T17:46:47.150+07:00,540196386179702603,177375,132498,142741,1313
1783334807168464678,2026-07-06T17:46:47.168+07:00,540196386179702603,177393,132440,142788,1283
1783334807186646496,2026-07-06T17:46:47.186+07:00,540196386179702603,177461,132531,142877,1298
1783334807204828314,2026-07-06T17:46:47.204+07:00,540196386179702603,177422,132509,142790,1311
1783334807223010132,2026-07-06T17:46:47.223+07:00,540196386179702603,177446,132461,142803,1292
1783334807241191950,2026-07-06T17:46:47.241+07:00,540196386179702603,177493,132483,142853,1341
1783334807259373768,2026-07-06T17:46:47.259+07:00,540196386179702603,177558,132513,142883,1389
1783334807277555586,2026-07-06T17:46:47.277+07:00,540196386179702603,177578,132615,142959,1338
1783334807295737404,2026-07-06T17:46:47.295+07:00,540196386179702603,177576,132585,142916,1339
1783334807313919222,2026-07-06T17:46:47.313+07:00,540196386179702603,177620,132576,142957,1281
1783334807332101040,2026-07-06T17:46:47.332+07:00,540196386179702603,177655,132603,142976,1344
1783334807350282858,2026-07-06T17:46:47.350+07:00,540196386179702603,177662,132602,142979,1340
1783334807368464676,2026-07-06T17:46:47.368+07:00,540196386179702603,177659,132644,143035,1316
1783334807386646494,2026-07-06T17:46:47.386+07:00,540196386179702603,177659,132635,142963,1325
1783334807404828312,2026-07-06T17:46:47.404+07:00,540196386179702603,177683,132565,142997,1298
1783334807423010130,2026-07-06T17:46:47.423+07:00,540196386179702603,177644,132578,142993,1307
1783334807441191948,2026-07-06T17:46:47.441+07:00,540196386179702603,177589,132561,142949,1340
1783334807459373766,2026-07-06T17:46:47.459+07:00,540196386179702603,177554,132515,142849,1307
1783334807477555584,2026-07-06T17:46:47.477+07:00,540196386179702603,177508,132521,142879,1309
1783334807495737402,2026-07-06T17:46:47.495+07:00,540196386179702603,177515,132478,142869,1343
1783334807513919220,2026-07-06T17:46:47.513+07:00,540196386179702603,177487,132428,142828,1292
1783334807532101038,2026-07-06T17:46:47.532+07:00,540196386179702603,177422,132400,142804,1303
1783334807550282856,2026-07-06T17:46:47.550+07:00,540196386179702603,177400,132336,142700,1304
1783334807568464674,2026-07-06T17:46:47.568+07:00,540196386179702603,177398,132342,142759,1336
1783334807586646492,2026-07-06T17:46:47.586+07:00,540196386179702603,177352,132243,142704,1294
1783334807604828310,2026-07-06T17:46:47.604+07:00,540196386179702603,177324,132251,142654,1331
1783334807623010128,2026-07-06T17:46:47.623+07:00,540196386179702603,177267,132224,142647,1304
1783334807641191946,2026-07-06T17:46:47.641+07:00,540196386179702603,177288,132223,142683,1297
1783334807659373764,2026-07-06T17:46:47.659+07:00,540196386962216172,177279,132146,142647,1286
1783334807677555582,2026-07-06T17:46:47.677+07:00,540196386962216172,177276,132155,142702,1294
1783334807695737400,2026-07-06T17:46:47.695+07:00,540196386962216172,177316,132211,142670,1297
1783334807713919218,2026-07-06T17:46:47.713+07:00,540196386962216172,177266,132186,142636,1260
1783334807732101036,2026-07-06T17:46:47.732+07:00,540196386962216172,177325,132185,142703,1343
1783334807750282854,2026-07-06T17:46:47.750+07:00,540196386962216172,177331,132215,142677,1355
1783334807768464672,2026-07-06T17:46:47.768+07:00,540196386962216172,177250,132175,142619,1324
1783334807786646490,2026-07-06T17:46:47.786+07:00,540196386962216172,177219,132168,142594,1293
1783334807804828308,2026-07-06T17:46:47.804+07:00,540196386962216172,177286,132201,142643,1303
1783334807823010126,2026-07-06T17:46:47.823+07:00,540196386962216172,177306,132177,142649,1322
1783334807841191944,2026-07-06T17:46:47.841+07:00,540196386962216172,177342,132155,142680,1293
1783334807859373762,2026-07-06T17:46:47.859+07:00,540196386962216172,177296,132157,142679,1293
1783334807877555580,2026-07-06T17:46:47.877+07:00,540196386962216172,177326,132174,142685,1283
1783334807895737398,2026-07-06T17:46:47.895+07:00,540196386962216172,177309,132108,142596,1298
1783334807913919216,2026-07-06T17:46:47.913+07:00,540196386962216172,177305,132171,142665,1279
1783334807932101034,2026-07-06T17:46:47.932+07:00,540196386962216172,177286,132129,142660,1352
1783334807950282852,2026-07-06T17:46:47.950+07:00,540196386962216172,177299,132198,142714,1317
1783334807968464670,2026-07-06T17:46:47.968+07:00,540196386962216172,177253,132161,142698,1260
1783334807986646488,2026-07-06T17:46:47.986+07:00,540196386962216172,177270,132140,142680,1255
1783334808004828306,2026-07-06T17:46:48.004+07:00,540196386962216172,177347,132196,142758,1335
1783334808023010124,2026-07-06T17:46:48.023+07:00,540196386962216172,177352,132171,142758,1264
1783334808041191942,2026-07-06T17:46:48.041+07:00,540196386962216172,177375,132167,142710,1264
1783334808059373760,2026-07-06T17:46:48.059+07:00,540196386962216172,177421,132295,142751,1277
1783334808077555578,2026-07-06T17:46:48.077+07:00,540196386962216172,177465,132272,142790,1326
1783334808095737396,2026-07-06T17:46:48.095+07:00,540196386962216172,177424,132236,142822,1308
1783334808113919214,2026-07-06T17:46:48.113+07:00,540196386962216172,177435,132239,142797,1258
1783334808132101032,2026-07-06T17:46:48.132+07:00,540196386962216172,177411,132258,142768,1309
1783334808150282850,2026-07-06T17:46:48.150+07:00,540196386962216172,177452,132322,142857,1307
1783334808168464668,2026-07-06T17:46:48.168+07:00,540196386962216172,177450,132256,142833,1277
1783334808186646486,2026-07-06T17:46:48.186+07:00,540196386962216172,177518,132282,142920,1331
1783334808204828304,2026-07-06T17:46:48.204+07:00,540196386962216172,177544,132288,142941,1294
1783334808223010122,2026-07-06T17:46:48.223+07:00,540196386962216172,177621,132339,142986,1334
1783334808241191940,2026-07-06T17:46:48.241+07:00,540196386962216172,177582,132379,143017,1254
1783334808259373758,2026-07-06T17:46:48.259+07:00,540196386962216172,177595,132413,142952,1265
1783334808277555576,2026-07-06T17:46:48.277+07:00,540196386962216172,177625,132428,143031,1285
1783334808295737394,2026-07-06T17:46:48.295+07:00,540196386962216172,177681,132478,143069,1267
1783334808313919212,2026-07-06T17:46:48.313+07:00,540196386962216172,177678,132440,143133,1298
1783334808332101030,2026-07-06T17:46:48.332+07:00,540196386962216172,177708,132434,143157,1305
1783334808350282848,2026-07-06T17:46:48.350+07:00,540196386962216172,177675,132428,143011,1192
1783334808368464666,2026-07-06T17:46:48.368+07:00,540196386962216172,177620,132330,142991,1199
1783334808386646484,2026-07-06T17:46:48.386+07:00,540196386962216172,177578,132399,142951,1273
1783334808404828302,2026-07-06T17:46:48.404+07:00,540196386962216172,177579,132356,142986,1334
1783334808423010120,2026-07-06T17:46:48.423+07:00,540196386962216172,177523,132324,142946,1270
1783334808441191938,2026-07-06T17:46:48.441+07:00,540196387908554934,177479,132277,142901,1307
1783334808459373756,2026-07-06T17:46:48.459+07:00,540196387908554934,177457,132325,142874,1258
1783334808477555574,2026-07-06T17:46:48.477+07:00,540196387908554934,177409,132236,142852,1265
1783334808495737392,2026-07-06T17:46:48.495+07:00,540196387908554934,177389,132201,142794,1258
1783334808513919210,2026-07-06T17:46:48.513+07:00,540196387908554934,177319,132166,142788,1276
1783334808532101028,2026-07-06T17:46:48.532+07:00,540196387908554934,177238,132179,142744,1274
1783334808550282846,2026-07-06T17:46:48.550+07:00,540196387908554934,177229,132100,142751,1281
1783334808568464664,2026-07-06T17:46:48.568+07:00,540196387908554934,177222,132111,142749,1307
1783334808586646482,2026-07-06T17:46:48.586+07:00,540196387908554934,177256,132138,142705,1296
1783334808604828300,2026-07-06T17:46:48.604+07:00,540196387908554934,177262,132133,142753,1318
1783334808623010118,2026-07-06T17:46:48.623+07:00,540196387908554934,177281,132168,142727,1347
1783334808641191936,2026-07-06T17:46:48.641+07:00,540196387908554934,177235,132124,142735,1387
1783334808659373754,2026-07-06T17:46:48.659+07:00,540196387908554934,177246,132110,142733,1305
1783334808677555572,2026-07-06T17:46:48.677+07:00,540196387908554934,177236,132126,142763,1336
1783334808695737390,2026-07-06T17:46:48.695+07:00,540196387908554934,177199,132086,142750,1325
1783334808713919208,2026-07-06T17:46:48.713+07:00,540196387908554934,177197,132089,142706,1322
1783334808732101026,2026-07-06T17:46:48.732+07:00,540196387908554934,177199,132067,142737,1285
1783334808750282844,2026-07-06T17:46:48.750+07:00,540196387908554934,177144,132048,142699,1293
1783334808768464662,2026-07-06T17:46:48.768+07:00,540196387908554934,177156,132051,142668,1276
1783334808786646480,2026-07-06T17:46:48.786+07:00,540196387908554934,177123,132031,142625,1297
1783334808804828298,2026-07-06T17:46:48.804+07:00,540196387908554934,177222,132058,142698,1334
1783334808823010116,2026-07-06T17:46:48.823+07:00,540196387908554934,177156,132031,142772,1260
1783334808841191934,2026-07-06T17:46:48.841+07:00,540196387908554934,177152,132020,142683,1259
1783334808859373752,2026-07-06T17:46:48.859+07:00,540196387908554934,177170,132036,142717,1276
1783334808877555570,2026-07-06T17:46:48.877+07:00,540196387908554934,177134,132026,142780,1304
1783334808895737388,2026-07-06T17:46:48.895+07:00,540196387908554934,177162,132042,142711,1285
1783334808913919206,2026-07-06T17:46:48.913+07:00,540196387908554934,177233,132115,142766,1314
1783334808932101024,2026-07-06T17:46:48.932+07:00,540196387908554934,177138,132083,142781,1318
1783334808950282842,2026-07-06T17:46:48.950+07:00,540196387908554934,177155,132078,142784,1291
1783334808968464660,2026-07-06T17:46:48.968+07:00,540196387908554934,177228,132137,142830,1294
1783334808986646478,2026-07-06T17:46:48.986+07:00,540196387908554934,177231,132095,142797,1265
1783334809004828296,2026-07-06T17:46:49.004+07:00,540196387908554934,177252,132173,142814,1324
1783334809023010114,2026-07-06T17:46:49.023+07:00,540196387908554934,177220,132080,142782,1286
1783334809041191932,2026-07-06T17:46:49.041+07:00,540196387908554934,177283,132121,142841,1289
1783334809059373750,2026-07-06T17:46:49.059+07:00,540196387908554934,177284,132185,142867,1342
1783334809077555568,2026-07-06T17:46:49.077+07:00,540196387908554934,177357,132247,142871,1272
1783334809095737386,2026-07-06T17:46:49.095+07:00,540196387908554934,177339,132189,142953,1304
1783334809113919204,2026-07-06T17:46:49.113+07:00,540196387908554934,177370,132238,142955,1297
1783334809132101022,2026-07-06T17:46:49.132+07:00,540196387908554934,177347,132211,142943,1298
1783334809150282840,2026-07-06T17:46:49.150+07:00,540196387908554934,177384,132249,142969,1301
1783334809168464658,2026-07-06T17:46:49.168+07:00,540196387908554934,177372,132256,142952,1344
1783334809186646476,2026-07-06T17:46:49.186+07:00,540196387908554934,177350,132239,142988,1304
1783334809204828294,2026-07-06T17:46:49.204+07:00,540196387908554934,177436,132312,143031,1288
1783334809223010112,2026-07-06T17:46:49.223+07:00,540196387908554934,177550,132329,143058,1354
1783334809241191930,2026-07-06T17:46:49.241+07:00,540196387908554934,177525,132340,143039,1328
1783334809259373748,2026-07-06T17:46:49.259+07:00,540196387908554934,177594,132364,143069,1305
1783334809277555566,2026-07-06T17:46:49.277+07:00,540196387908554934,177572,132397,143138,1325
1783334809295737384,2026-07-06T17:46:49.295+07:00,540196387908554934,177570,132435,143084,1304
1783334809313919202,2026-07-06T17:46:49.313+07:00,540196387908554934,177624,132401,143180,1266
1783334809332101020,2026-07-06T17:46:49.332+07:00,540196387908554934,177612,132402,143128,1276
1783334809350282838,2026-07-06T17:46:49.350+07:00,540196387908554934,177654,132363,143160,1328
1783334809368464656,2026-07-06T17:46:49.368+07:00,540196387908554934,177654,132412,143134,1317
1783334809386646474,2026-07-06T17:46:49.386+07:00,540196388854887598,177593,132363,143083,1283
1783334809404828292,2026-07-06T17:46:49.404+07:00,540196388854887598,177514,132327,143018,1283
1783334809423010110,2026-07-06T17:46:49.423+07:00,540196388854887598,177464,132312,142977,1331
1783334809441191928,2026-07-06T17:46:49.441+07:00,540196388854887598,177487,132321,142997,1372
1783334809459373746,2026-07-06T17:46:49.459+07:00,540196388854887598,177451,132238,142904,1328
1783334809477555564,2026-07-06T17:46:49.477+07:00,540196388854887598,177382,132174,142930,1342
1783334809495737382,2026-07-06T17:46:49.495+07:00,540196388854887598,177297,132100,142830,1283
1783334809513919200,2026-07-06T17:46:49.513+07:00,540196388854887598,177338,132146,142841,1332
1783334809532101018,2026-07-06T17:46:49.532+07:00,540196388854887598,177254,132054,142725,1287
1783334809550282836,2026-07-06T17:46:49.550+07:00,540196388854887598,177237,131973,142701,1296
1783334809568464654,2026-07-06T17:46:49.568+07:00,540196388854887598,177202,132016,142707,1291
1783334809586646472,2026-07-06T17:46:49.586+07:00,540196388854887598,177148,131973,142642,1253
1783334809604828290,2026-07-06T17:46:49.604+07:00,540196388854887598,177187,131993,142659,1275
1783334809623010108,2026-07-06T17:46:49.623+07:00,540196388854887598,177112,131908,142618,1256
1783334809641191926,2026-07-06T17:46:49.641+07:00,540196388854887598,177089,131853,142621,1251
1783334809659373744,2026-07-06T17:46:49.659+07:00,540196388854887598,177119,131867,142627,1284
1783334809677555562,2026-07-06T17:46:49.677+07:00,540196388854887598,177097,131891,142597,1264
1783334809695737380,2026-07-06T17:46:49.695+07:00,540196388854887598,177169,131848,142617,1319
1783334809713919198,2026-07-06T17:46:49.713+07:00,540196388854887598,177145,131803,142601,1223
1783334809732101016,2026-07-06T17:46:49.732+07:00,540196388854887598,177104,131872,142567,1328
1783334809750282834,2026-07-06T17:46:49.750+07:00,540196388854887598,177055,131773,142520,1257
1783334809768464652,2026-07-06T17:46:49.768+07:00,540196388854887598,177027,131792,142560,1307
1783334809786646470,2026-07-06T17:46:49.786+07:00,540196388854887598,177074,131778,142597,1358
1783334809804828288,2026-07-06T17:46:49.804+07:00,540196388854887598,177052,131759,142616,1307
1783334809823010106,2026-07-06T17:46:49.823+07:00,540196388854887598,177100,131761,142583,1353
1783334809841191924,2026-07-06T17:46:49.841+07:00,540196388854887598,177153,131762,142582,1334
1783334809859373742,2026-07-06T17:46:49.859+07:00,540196388854887598,177062,131741,142576,1289
1783334809877555560,2026-07-06T17:46:49.877+07:00,540196388854887598,177106,131710,142574,1275
1783334809895737378,2026-07-06T17:46:49.895+07:00,540196388854887598,177118,131748,142606,1301
1783334809913919196,2026-07-06T17:46:49.913+07:00,540196388854887598,177118,131743,142526,1325
1783334809932101014,2026-07-06T17:46:49.932+07:00,540196388854887598,177169,131744,142630,1326
1783334809950282832,2026-07-06T17:46:49.950+07:00,540196388854887598,177121,131707,142532,1289
1783334809968464650,2026-07-06T17:46:49.968+07:00,540196388854887598,177130,131727,142601,1356
1783334809986646468,2026-07-06T17:46:49.986+07:00,540196388854887598,177150,131726,142589,1352
1783334810004828286,2026-07-06T17:46:50.004+07:00,540196388854887598,177194,131779,142591,1359
1783334810023010104,2026-07-06T17:46:50.023+07:00,540196388854887598,177168,131753,142580,1299
1783334810041191922,2026-07-06T17:46:50.041+07:00,540196388854887598,177171,131722,142570,1367
1783334810059373740,2026-07-06T17:46:50.059+07:00,540196388854887598,177243,131761,142592,1286
1783334810077555558,2026-07-06T17:46:50.077+07:00,540196388854887598,177286,131743,142661,1356
1783334810095737376,2026-07-06T17:46:50.095+07:00,540196388854887598,177240,131760,142670,1266
1783334810113919194,2026-07-06T17:46:50.113+07:00,540196388854887598,177277,131811,142637,1316
1783334810132101012,2026-07-06T17:46:50.132+07:00,540196388854887598,177331,131885,142667,1384
1783334810150282830,2026-07-06T17:46:50.150+07:00,540196388854887598,177368,131913,142717,1305
1783334810168464648,2026-07-06T17:46:50.168+07:00,540196388854887598,177328,131833,142657,1280
1783334810186646466,2026-07-06T17:46:50.186+07:00,540196388854887598,177357,131903,142748,1300
1783334810204828284,2026-07-06T17:46:50.204+07:00,540196388854887598,177379,131849,142725,1305
1783334810223010102,2026-07-06T17:46:50.223+07:00,540196388854887598,177428,131949,142825,1356
1783334810241191920,2026-07-06T17:46:50.241+07:00,540196388854887598,177426,131916,142848,1325
1783334810259373738,2026-07-06T17:46:50.259+07:00,540196388854887598,177460,131957,142874,1306
1783334810277555556,2026-07-06T17:46:50.277+07:00,540196388854887598,177481,131912,142838,1337
1783334810295737374,2026-07-06T17:46:50.295+07:00,540196388854887598,177532,131962,142899,1350
1783334810313919192,2026-07-06T17:46:50.313+07:00,540196388854887598,177548,131929,142883,1359
1783334810332101010,2026-07-06T17:46:50.332+07:00,540196389801208048,177600,131900,142857,1245
1783334810350282828,2026-07-06T17:46:50.350+07:00,540196389801208048,177655,132019,142936,1321
1783334810368464646,2026-07-06T17:46:50.368+07:00,540196389801208048,177703,132058,142916,1343
1783334810386646464,2026-07-06T17:46:50.386+07:00,540196389801208048,177642,132032,142936,1326
1783334810404828282,2026-07-06T17:46:50.404+07:00,540196389801208048,177632,131956,142962,1287
1783334810423010100,2026-07-06T17:46:50.423+07:00,540196389801208048,177695,132051,142959,1319
1783334810441191918,2026-07-06T17:46:50.441+07:00,540196389801208048,177712,132055,142995,1267
1783334810459373736,2026-07-06T17:46:50.459+07:00,540196389801208048,177674,132000,142918,1309
1783334810477555554,2026-07-06T17:46:50.477+07:00,540196389801208048,177656,131984,142893,1334
1783334810495737372,2026-07-06T17:46:50.495+07:00,540196389801208048,177575,131936,142881,1315
1783334810513919190,2026-07-06T17:46:50.513+07:00,540196389801208048,177522,131905,142788,1313
1783334810532101008,2026-07-06T17:46:50.532+07:00,540196389801208048,177501,131870,142762,1292
1783334810550282826,2026-07-06T17:46:50.550+07:00,540196389801208048,177481,131829,142742,1292
1783334810568464644,2026-07-06T17:46:50.568+07:00,540196389801208048,177465,131750,142699,1303
1783334810586646462,2026-07-06T17:46:50.586+07:00,540196389801208048,177433,131714,142679,1309
1783334810604828280,2026-07-06T17:46:50.604+07:00,540196389801208048,177423,131714,142616,1313
1783334810623010098,2026-07-06T17:46:50.623+07:00,540196389801208048,177335,131659,142616,1273
1783334810641191916,2026-07-06T17:46:50.641+07:00,540196389801208048,177304,131635,142577,1256
1783334810659373734,2026-07-06T17:46:50.659+07:00,540196389801208048,177306,131593,142565,1253
1783334810677555552,2026-07-06T17:46:50.677+07:00,540196389801208048,177333,131561,142568,1257
1783334810695737370,2026-07-06T17:46:50.695+07:00,540196389801208048,177231,131554,142496,1206
1783334810713919188,2026-07-06T17:46:50.713+07:00,540196389801208048,177260,131542,142543,1245
1783334810732101006,2026-07-06T17:46:50.732+07:00,540196389801208048,177288,131582,142600,1333
1783334810750282824,2026-07-06T17:46:50.750+07:00,540196389801208048,177334,131534,142588,1283
1783334810768464642,2026-07-06T17:46:50.768+07:00,540196389801208048,177266,131553,142562,1344
1783334810786646460,2026-07-06T17:46:50.786+07:00,540196389801208048,177230,131498,142523,1268
1783334810804828278,2026-07-06T17:46:50.804+07:00,540196389801208048,177311,131502,142551,1226
1783334810823010096,2026-07-06T17:46:50.823+07:00,540196389801208048,177294,131523,142540,1258
1783334810841191914,2026-07-06T17:46:50.841+07:00,540196389801208048,177292,131515,142545,1294
1783334810859373732,2026-07-06T17:46:50.859+07:00,540196389801208048,177299,131479,142546,1286
1783334810877555550,2026-07-06T17:46:50.877+07:00,540196389801208048,177300,131514,142532,1331
1783334810895737368,2026-07-06T17:46:50.895+07:00,540196389801208048,177249,131455,142528,1252
1783334810913919186,2026-07-06T17:46:50.913+07:00,540196389801208048,177343,131509,142599,1304
1783334810932101004,2026-07-06T17:46:50.932+07:00,540196389801208048,177330,131468,142588,1272
1783334810950282822,2026-07-06T17:46:50.950+07:00,540196389801208048,177328,131469,142597,1219
1783334810968464640,2026-07-06T17:46:50.968+07:00,540196389801208048,177284,131449,142596,1289
1783334810986646458,2026-07-06T17:46:50.986+07:00,540196389801208048,177395,131520,142646,1313
1783334811004828276,2026-07-06T17:46:51.004+07:00,540196389801208048,177360,131509,142611,1286
1783334811023010094,2026-07-06T17:46:51.023+07:00,540196389801208048,177426,131428,142638,1253
1783334811041191912,2026-07-06T17:46:51.041+07:00,540196389801208048,177467,131469,142620,1290
1783334811059373730,2026-07-06T17:46:51.059+07:00,540196389801208048,177498,131480,142650,1282
1783334811077555548,2026-07-06T17:46:51.077+07:00,540196389801208048,177539,131490,142620,1327
1783334811095737366,2026-07-06T17:46:51.095+07:00,540196389801208048,177528,131459,142644,1282
1783334811113919184,2026-07-06T17:46:51.113+07:00,540196389801208048,177421,131504,142628,1222
1783334811132101002,2026-07-06T17:46:51.132+07:00,540196389801208048,177495,131503,142654,1249
1783334811150282820,2026-07-06T17:46:51.150+07:00,540196389801208048,177560,131536,142642,1270
1783334811168464638,2026-07-06T17:46:51.168+07:00,540196389801208048,177573,131546,142687,1263
1783334811186646456,2026-07-06T17:46:51.186+07:00,540196389801208048,177591,131598,142757,1235
1783334811204828274,2026-07-06T17:46:51.204+07:00,540196389801208048,177650,131620,142793,1314
1783334811223010092,2026-07-06T17:46:51.223+07:00,540196389801208048,177698,131600,142784,1300
1783334811241191910,2026-07-06T17:46:51.241+07:00,540196389801208048,177689,131625,142801,1266
1783334811259373728,2026-07-06T17:46:51.259+07:00,540196389801208048,177702,131711,142862,1320
1783334811277555546,2026-07-06T17:46:51.277+07:00,540196390674743078,177749,131705,142918,1319
1783334811295737364,2026-07-06T17:46:51.295+07:00,540196390674743078,177782,131683,142862,1289
1783334811313919182,2026-07-06T17:46:51.313+07:00,540196390674743078,177822,131669,142904,1332
1783334811332101000,2026-07-06T17:46:51.332+07:00,540196390674743078,177861,131678,142910,1309
1783334811350282818,2026-07-06T17:46:51.350+07:00,540196390674743078,177860,131764,142938,1289
1783334811368464636,2026-07-06T17:46:51.368+07:00,540196390674743078,177906,131757,142978,1273
1783334811386646454,2026-07-06T17:46:51.386+07:00,540196390674743078,177933,131729,142976,1279
1783334811404828272,2026-07-06T17:46:51.404+07:00,540196390674743078,177936,131746,143041,1306
1783334811423010090,2026-07-06T17:46:51.423+07:00,540196390674743078,177973,131759,143002,1241
1783334811441191908,2026-07-06T17:46:51.441+07:00,540196390674743078,178071,131870,143093,1315
1783334811459373726,2026-07-06T17:46:51.459+07:00,540196390674743078,178083,131868,143101,1274
1783334811477555544,2026-07-06T17:46:51.477+07:00,540196390674743078,178081,131913,143141,1331
1783334811495737362,2026-07-06T17:46:51.495+07:00,540196390674743078,178064,131836,143141,1306
1783334811513919180,2026-07-06T17:46:51.513+07:00,540196390674743078,178027,131816,143060,1308
1783334811532100998,2026-07-06T17:46:51.532+07:00,540196390674743078,178089,131879,143109,1326
1783334811550282816,2026-07-06T17:46:51.550+07:00,540196390674743078,178059,131780,143062,1332
1783334811568464634,2026-07-06T17:46:51.568+07:00,540196390674743078,177996,131810,143061,1265
1783334811586646452,2026-07-06T17:46:51.586+07:00,540196390674743078,178008,131762,143043,1321
1783334811604828270,2026-07-06T17:46:51.604+07:00,540196390674743078,177959,131683,142968,1260
1783334811623010088,2026-07-06T17:46:51.623+07:00,540196390674743078,177935,131702,142994,1281
1783334811641191906,2026-07-06T17:46:51.641+07:00,540196390674743078,177966,131662,143006,1302
1783334811659373724,2026-07-06T17:46:51.659+07:00,540196390674743078,177902,131639,142945,1298
1783334811677555542,2026-07-06T17:46:51.677+07:00,540196390674743078,177941,131657,142951,1317
1783334811695737360,2026-07-06T17:46:51.695+07:00,540196390674743078,177895,131605,142908,1267
1783334811713919178,2026-07-06T17:46:51.713+07:00,540196390674743078,177917,131680,143001,1277
1783334811732100996,2026-07-06T17:46:51.732+07:00,540196390674743078,178002,131709,143070,1275
1783334811750282814,2026-07-06T17:46:51.750+07:00,540196390674743078,177996,131680,143054,1313
1783334811768464632,2026-07-06T17:46:51.768+07:00,540196390674743078,178018,131647,143055,1245
1783334811786646450,2026-07-06T17:46:51.786+07:00,540196390674743078,177986,131667,143043,1279
1783334811804828268,2026-07-06T17:46:51.804+07:00,540196390674743078,178031,131751,143101,1304
1783334811823010086,2026-07-06T17:46:51.823+07:00,540196390674743078,178058,131778,143171,1297
1783334811841191904,2026-07-06T17:46:51.841+07:00,540196390674743078,178091,131801,143164,1290
1783334811859373722,2026-07-06T17:46:51.859+07:00,540196390674743078,178113,131877,143230,1348
1783334811877555540,2026-07-06T17:46:51.877+07:00,540196390674743078,178143,131877,143322,1308
1783334811895737358,2026-07-06T17:46:51.895+07:00,540196390674743078,178220,131870,143397,1327
1783334811913919176,2026-07-06T17:46:51.913+07:00,540196390674743078,178197,131885,143334,1331
1783334811932100994,2026-07-06T17:46:51.932+07:00,540196390674743078,178223,131929,143398,1345
1783334811950282812,2026-07-06T17:46:51.950+07:00,540196390674743078,178241,131958,143388,1272
1783334811968464630,2026-07-06T17:46:51.968+07:00,540196390674743078,178344,132088,143543,1309
1783334811986646448,2026-07-06T17:46:51.986+07:00,540196390674743078,178375,132005,143574,1281
1783334812004828266,2026-07-06T17:46:52.004+07:00,540196390674743078,178383,132033,143539,1270
1783334812023010084,2026-07-06T17:46:52.023+07:00,540196390674743078,178462,132085,143635,1309
1783334812041191902,2026-07-06T17:46:52.041+07:00,540196390674743078,178454,132187,143740,1262
1783334812059373720,2026-07-06T17:46:52.059+07:00,540196390674743078,178535,132200,143741,1311
1783334812077555538,2026-07-06T17:46:52.077+07:00,540196390674743078,178552,132241,143845,1339
1783334812095737356,2026-07-06T17:46:52.095+07:00,540196390674743078,178584,132343,143872,1347
1783334812113919174,2026-07-06T17:46:52.113+07:00,540196390674743078,178676,132387,143935,1325
1783334812132100992,2026-07-06T17:46:52.132+07:00,540196390674743078,178724,132410,144004,1368
1783334812150282810,2026-07-06T17:46:52.150+07:00,540196391511885386,178699,132411,143967,1291
1783334812168464628,2026-07-06T17:46:52.168+07:00,540196391511885386,178804,132484,144047,1361
1783334812186646446,2026-07-06T17:46:52.186+07:00,540196391511885386,178869,132551,144136,1286
1783334812204828264,2026-07-06T17:46:52.204+07:00,540196391511885386,178859,132624,144188,1257
1783334812223010082,2026-07-06T17:46:52.223+07:00,540196391511885386,178922,132620,144217,1301
1783334812241191900,2026-07-06T17:46:52.241+07:00,540196391511885386,179028,132720,144322,1305
1783334812259373718,2026-07-06T17:46:52.259+07:00,540196391511885386,179046,132705,144348,1321
1783334812277555536,2026-07-06T17:46:52.277+07:00,540196391511885386,179082,132738,144408,1327
1783334812295737354,2026-07-06T17:46:52.295+07:00,540196391511885386,179098,132761,144406,1383
1783334812313919172,2026-07-06T17:46:52.313+07:00,540196391511885386,179163,132844,144471,1291
1783334812332100990,2026-07-06T17:46:52.332+07:00,540196391511885386,179133,132839,144541,1253
1783334812350282808,2026-07-06T17:46:52.350+07:00,540196391511885386,179183,132936,144650,1323
1783334812368464626,2026-07-06T17:46:52.368+07:00,540196391511885386,179210,132928,144677,1296
1783334812386646444,2026-07-06T17:46:52.386+07:00,540196391511885386,179315,132980,144653,1333
1783334812404828262,2026-07-06T17:46:52.404+07:00,540196391511885386,179321,133019,144718,1355
1783334812423010080,2026-07-06T17:46:52.423+07:00,540196391511885386,179370,132988,144685,1317
1783334812441191898,2026-07-06T17:46:52.441+07:00,540196391511885386,179328,133043,144705,1339
1783334812459373716,2026-07-06T17:46:52.459+07:00,540196391511885386,179410,133092,144765,1367
1783334812477555534,2026-07-06T17:46:52.477+07:00,540196391511885386,179347,132993,144662,1310
1783334812495737352,2026-07-06T17:46:52.495+07:00,540196391511885386,179357,133003,144675,1322
1783334812513919170,2026-07-06T17:46:52.513+07:00,540196391511885386,179271,132913,144538,1348
1783334812532100988,2026-07-06T17:46:52.532+07:00,540196391511885386,179264,132980,144664,1377
1783334812550282806,2026-07-06T17:46:52.550+07:00,540196391511885386,179245,132925,144583,1293
1783334812568464624,2026-07-06T17:46:52.568+07:00,540196391511885386,179194,132892,144559,1280
1783334812586646442,2026-07-06T17:46:52.586+07:00,540196391511885386,179184,132806,144532,1282
1783334812604828260,2026-07-06T17:46:52.604+07:00,540196391511885386,179100,132786,144459,1311
1783334812623010078,2026-07-06T17:46:52.623+07:00,540196391511885386,179139,132770,144506,1314
1783334812641191896,2026-07-06T17:46:52.641+07:00,540196391511885386,179124,132801,144489,1285
1783334812659373714,2026-07-06T17:46:52.659+07:00,540196391511885386,179100,132746,144487,1294
1783334812677555532,2026-07-06T17:46:52.677+07:00,540196391511885386,179082,132700,144491,1287
1783334812695737350,2026-07-06T17:46:52.695+07:00,540196391511885386,179054,132713,144423,1268
1783334812713919168,2026-07-06T17:46:52.713+07:00,540196391511885386,179005,132682,144397,1269
1783334812732100986,2026-07-06T17:46:52.732+07:00,540196391511885386,179005,132587,144399,1311
1783334812750282804,2026-07-06T17:46:52.750+07:00,540196391511885386,179002,132571,144402,1264
1783334812768464622,2026-07-06T17:46:52.768+07:00,540196391511885386,179002,132573,144387,1301
1783334812786646440,2026-07-06T17:46:52.786+07:00,540196391511885386,178980,132599,144399,1322
1783334812804828258,2026-07-06T17:46:52.804+07:00,540196391511885386,178989,132600,144383,1347
1783334812823010076,2026-07-06T17:46:52.823+07:00,540196391511885386,178965,132552,144363,1323
1783334812841191894,2026-07-06T17:46:52.841+07:00,540196391511885386,178917,132593,144348,1345
1783334812859373712,2026-07-06T17:46:52.859+07:00,540196391511885386,178926,132518,144325,1304
1783334812877555530,2026-07-06T17:46:52.877+07:00,540196391511885386,178910,132485,144270,1302
1783334812895737348,2026-07-06T17:46:52.895+07:00,540196391511885386,178905,132476,144319,1319
1783334812913919166,2026-07-06T17:46:52.913+07:00,540196391511885386,178934,132471,144267,1291
1783334812932100984,2026-07-06T17:46:52.932+07:00,540196391511885386,178900,132431,144230,1313
1783334812950282802,2026-07-06T17:46:52.950+07:00,540196391511885386,178818,132414,144210,1302
1783334812968464620,2026-07-06T17:46:52.968+07:00,540196391511885386,178901,132379,144230,1322
1783334812986646438,2026-07-06T17:46:52.986+07:00,540196392294440147,178829,132388,144117,1336
1783334813004828256,2026-07-06T17:46:53.004+07:00,540196392294440147,178811,132348,144118,1310
1783334813023010074,2026-07-06T17:46:53.023+07:00,540196392294440147,178774,132260,144081,1308
1783334813041191892,2026-07-06T17:46:53.041+07:00,540196392294440147,178787,132245,144015,1353
1783334813059373710,2026-07-06T17:46:53.059+07:00,540196392294440147,178842,132246,144016,1299
1783334813077555528,2026-07-06T17:46:53.077+07:00,540196392294440147,178833,132195,144066,1332
1783334813095737346,2026-07-06T17:46:53.095+07:00,540196392294440147,178776,132164,143950,1311
1783334813113919164,2026-07-06T17:46:53.113+07:00,540196392294440147,178708,132141,143954,1345
1783334813132100982,2026-07-06T17:46:53.132+07:00,540196392294440147,178714,132076,143851,1293
1783334813150282800,2026-07-06T17:46:53.150+07:00,540196392294440147,178703,132097,143789,1345
1783334813168464618,2026-07-06T17:46:53.168+07:00,540196392294440147,178707,132108,143822,1316
1783334813186646436,2026-07-06T17:46:53.186+07:00,540196392294440147,178731,132021,143755,1302
1783334813204828254,2026-07-06T17:46:53.204+07:00,540196392294440147,178696,132059,143708,1302
1783334813223010072,2026-07-06T17:46:53.223+07:00,540196392294440147,178734,132072,143730,1354
1783334813241191890,2026-07-06T17:46:53.241+07:00,540196392294440147,178710,131986,143636,1316
1783334813259373708,2026-07-06T17:46:53.259+07:00,540196392294440147,178630,131921,143524,1252
1783334813277555526,2026-07-06T17:46:53.277+07:00,540196392294440147,178535,131878,143450,1313
1783334813295737344,2026-07-06T17:46:53.295+07:00,540196392294440147,178407,131783,143322,1286
1783334813313919162,2026-07-06T17:46:53.313+07:00,540196392294440147,178314,131686,143222,1318
1783334813332100980,2026-07-06T17:46:53.332+07:00,540196392294440147,178238,131526,143087,1321
1783334813350282798,2026-07-06T17:46:53.350+07:00,540196392294440147,178134,131495,143044,1275
1783334813368464616,2026-07-06T17:46:53.368+07:00,540196392294440147,178093,131370,142896,1302
1783334813386646434,2026-07-06T17:46:53.386+07:00,540196392294440147,178047,131351,142858,1326
1783334813404828252,2026-07-06T17:46:53.404+07:00,540196392294440147,177928,131268,142758,1337
1783334813423010070,2026-07-06T17:46:53.423+07:00,540196392294440147,177894,131215,142702,1291
1783334813441191888,2026-07-06T17:46:53.441+07:00,540196392294440147,177827,131179,142557,1259
1783334813459373706,2026-07-06T17:46:53.459+07:00,540196392294440147,177758,131082,142483,1306
1783334813477555524,2026-07-06T17:46:53.477+07:00,540196392294440147,177736,131049,142417,1318
1783334813495737342,2026-07-06T17:46:53.495+07:00,540196392294440147,177688,130989,142371,1361
1783334813513919160,2026-07-06T17:46:53.513+07:00,540196392294440147,177701,130956,142363,1342
1783334813532100978,2026-07-06T17:46:53.532+07:00,540196392294440147,177599,130944,142271,1309
1783334813550282796,2026-07-06T17:46:53.550+07:00,540196392294440147,177533,130882,142250,1354
1783334813568464614,2026-07-06T17:46:53.568+07:00,540196392294440147,177425,130757,142098,1334
1783334813586646432,2026-07-06T17:46:53.586+07:00,540196392294440147,177341,130740,142045,1294
1783334813604828250,2026-07-06T17:46:53.604+07:00,540196392294440147,177356,130724,142056,1271
1783334813623010068,2026-07-06T17:46:53.623+07:00,540196392294440147,177387,130700,142060,1324
1783334813641191886,2026-07-06T17:46:53.641+07:00,540196392294440147,177324,130682,141954,1290
1783334813659373704,2026-07-06T17:46:53.659+07:00,540196392294440147,177253,130619,141933,1305
1783334813677555522,2026-07-06T17:46:53.677+07:00,540196392294440147,177269,130531,141862,1297
1783334813695737340,2026-07-06T17:46:53.695+07:00,540196392294440147,177257,130588,141862,1387
1783334813713919158,2026-07-06T17:46:53.713+07:00,540196392294440147,177234,130575,141823,1300
1783334813732100976,2026-07-06T17:46:53.732+07:00,540196392294440147,177159,130497,141762,1286
1783334813750282794,2026-07-06T17:46:53.750+07:00,540196392294440147,177117,130457,141769,1269
1783334813768464612,2026-07-06T17:46:53.768+07:00,540196393095203475,177129,130474,141706,1286
1783334813786646430,2026-07-06T17:46:53.786+07:00,540196393095203475,177122,130454,141704,1299
1783334813804828248,2026-07-06T17:46:53.804+07:00,540196393095203475,177096,130466,141619,1301
1783334813823010066,2026-07-06T17:46:53.823+07:00,540196393095203475,177109,130454,141628,1358
1783334813841191884,2026-07-06T17:46:53.841+07:00,540196393095203475,177058,130439,141628,1289
1783334813859373702,2026-07-06T17:46:53.859+07:00,540196393095203475,177035,130419,141630,1298
1783334813877555520,2026-07-06T17:46:53.877+07:00,540196393095203475,177024,130426,141615,1334
1783334813895737338,2026-07-06T17:46:53.895+07:00,540196393095203475,177043,130406,141548,1301
1783334813913919156,2026-07-06T17:46:53.913+07:00,540196393095203475,177035,130427,141508,1259
1783334813932100974,2026-07-06T17:46:53.932+07:00,540196393095203475,177013,130394,141487,1282
1783334813950282792,2026-07-06T17:46:53.950+07:00,540196393095203475,177028,130445,141492,1292
1783334813968464610,2026-07-06T17:46:53.968+07:00,540196393095203475,177040,130439,141499,1265
1783334813986646428,2026-07-06T17:46:53.986+07:00,540196393095203475,177004,130392,141462,1289
1783334814004828246,2026-07-06T17:46:54.004+07:00,540196393095203475,177037,130417,141493,1302
1783334814023010064,2026-07-06T17:46:54.023+07:00,540196393095203475,177066,130425,141551,1297
1783334814041191882,2026-07-06T17:46:54.041+07:00,540196393095203475,177097,130415,141540,1341
1783334814059373700,2026-07-06T17:46:54.059+07:00,540196393095203475,177122,130438,141495,1373
1783334814077555518,2026-07-06T17:46:54.077+07:00,540196393095203475,177052,130369,141551,1299
1783334814095737336,2026-07-06T17:46:54.095+07:00,540196393095203475,177068,130420,141499,1287
1783334814113919154,2026-07-06T17:46:54.113+07:00,540196393095203475,177080,130455,141482,1263
1783334814132100972,2026-07-06T17:46:54.132+07:00,540196393095203475,177165,130533,141486,1288
1783334814150282790,2026-07-06T17:46:54.150+07:00,540196393095203475,177087,130463,141496,1297
1783334814168464608,2026-07-06T17:46:54.168+07:00,540196393095203475,177041,130455,141499,1356
1783334814186646426,2026-07-06T17:46:54.186+07:00,540196393095203475,177001,130411,141411,1320
1783334814204828244,2026-07-06T17:46:54.204+07:00,540196393095203475,176918,130375,141268,1280
1783334814223010062,2026-07-06T17:46:54.223+07:00,540196393095203475,176850,130337,141216,1289
1783334814241191880,2026-07-06T17:46:54.241+07:00,540196393095203475,176708,130192,141137,1253
1783334814259373698,2026-07-06T17:46:54.259+07:00,540196393095203475,176670,130161,141108,1305
1783334814277555516,2026-07-06T17:46:54.277+07:00,540196393095203475,176521,130080,141024,1297
1783334814295737334,2026-07-06T17:46:54.295+07:00,540196393095203475,176516,130039,140934,1332
1783334814313919152,2026-07-06T17:46:54.313+07:00,540196393095203475,176368,129939,140847,1298
1783334814332100970,2026-07-06T17:46:54.332+07:00,540196393095203475,176251,129903,140686,1282
1783334814350282788,2026-07-06T17:46:54.350+07:00,540196393095203475,176128,129760,140574,1296
1783334814368464606,2026-07-06T17:46:54.368+07:00,540196393095203475,176097,129715,140515,1301
1783334814386646424,2026-07-06T17:46:54.386+07:00,540196393095203475,176041,129661,140437,1286
1783334814404828242,2026-07-06T17:46:54.404+07:00,540196393095203475,175965,129585,140368,1272
1783334814423010060,2026-07-06T17:46:54.423+07:00,540196393095203475,175832,129482,140271,1297
1783334814441191878,2026-07-06T17:46:54.441+07:00,540196393095203475,175760,129478,140240,1304
1783334814459373696,2026-07-06T17:46:54.459+07:00,540196393095203475,175681,129431,140182,1308
1783334814477555514,2026-07-06T17:46:54.477+07:00,540196393095203475,175659,129333,140070,1268
1783334814495737332,2026-07-06T17:46:54.495+07:00,540196393095203475,175594,129371,140024,1310
1783334814513919150,2026-07-06T17:46:54.513+07:00,540196393095203475,175564,129265,139948,1293
1783334814532100968,2026-07-06T17:46:54.532+07:00,540196393095203475,175508,129245,139892,1303
1783334814550282786,2026-07-06T17:46:54.550+07:00,540196393095203475,175478,129263,139870,1317
1783334814568464604,2026-07-06T17:46:54.568+07:00,540196393968736977,175369,129195,139735,1302
1783334814586646422,2026-07-06T17:46:54.586+07:00,540196393968736977,175332,129159,139735,1310
1783334814604828240,2026-07-06T17:46:54.604+07:00,540196393968736977,175335,129140,139695,1338
1783334814623010058,2026-07-06T17:46:54.623+07:00,540196393968736977,175258,129150,139733,1305
1783334814641191876,2026-07-06T17:46:54.641+07:00,540196393968736977,175257,129068,139671,1271
1783334814659373694,2026-07-06T17:46:54.659+07:00,540196393968736977,175159,129002,139594,1307
1783334814677555512,2026-07-06T17:46:54.677+07:00,540196393968736977,175097,128960,139558,1270
1783334814695737330,2026-07-06T17:46:54.695+07:00,540196393968736977,175123,128959,139526,1299
1783334814713919148,2026-07-06T17:46:54.713+07:00,540196393968736977,175041,128967,139539,1254
1783334814732100966,2026-07-06T17:46:54.732+07:00,540196393968736977,175019,128918,139482,1365
1783334814750282784,2026-07-06T17:46:54.750+07:00,540196393968736977,175016,128887,139413,1303
1783334814768464602,2026-07-06T17:46:54.768+07:00,540196393968736977,175048,128884,139367,1259
