host_timestamp_ns,host_timestamp_iso,pmd_timestamp,ppg0,ppg1,ppg2,ambient
1783335487269998823,2026-07-06T17:58:07.269+07:00,540197064541925916,165903,126262,126196,1337
1783335487288180641,2026-07-06T17:58:07.288+07:00,540197064541925916,165899,126251,126148,1265
1783335487306362459,2026-07-06T17:58:07.306+07:00,540197064541925916,165944,126316,126229,1365
1783335487324544277,2026-07-06T17:58:07.324+07:00,540197064541925916,165899,126266,126188,1340
1783335487342726095,2026-07-06T17:58:07.342+07:00,540197064541925916,165898,126293,126231,1348
1783335487360907913,2026-07-06T17:58:07.360+07:00,540197064541925916,165925,126277,126196,1265
1783335487379089731,2026-07-06T17:58:07.379+07:00,540197064541925916,165981,126368,126248,1313
1783335487397271549,2026-07-06T17:58:07.397+07:00,540197064541925916,165989,126376,126287,1299
1783335487415453367,2026-07-06T17:58:07.415+07:00,540197064541925916,166023,126391,126306,1342
1783335487433635185,2026-07-06T17:58:07.433+07:00,540197064541925916,166057,126359,126302,1291
1783335487451817003,2026-07-06T17:58:07.451+07:00,540197064541925916,166057,126385,126286,1252
1783335487469998821,2026-07-06T17:58:07.469+07:00,540197064541925916,166077,126441,126360,1284
1783335487488180639,2026-07-06T17:58:07.488+07:00,540197064541925916,166093,126451,126327,1253
1783335487506362457,2026-07-06T17:58:07.506+07:00,540197064541925916,166143,126479,126352,1273
1783335487524544275,2026-07-06T17:58:07.524+07:00,540197064541925916,166167,126459,126361,1285
1783335487542726093,2026-07-06T17:58:07.542+07:00,540197064541925916,166193,126495,126403,1293
1783335487560907911,2026-07-06T17:58:07.560+07:00,540197064541925916,166150,126472,126394,1262
1783335487579089729,2026-07-06T17:58:07.579+07:00,540197064541925916,166146,126442,126326,1301
1783335487597271547,2026-07-06T17:58:07.597+07:00,540197064541925916,166072,126430,126325,1331
1783335487615453365,2026-07-06T17:58:07.615+07:00,540197064541925916,166030,126349,126283,1314
1783335487633635183,2026-07-06T17:58:07.633+07:00,540197064541925916,165991,126323,126194,1280
1783335487651817001,2026-07-06T17:58:07.651+07:00,540197064541925916,166021,126343,126289,1377
1783335487669998819,2026-07-06T17:58:07.669+07:00,540197064541925916,165973,126321,126264,1365
1783335487688180637,2026-07-06T17:58:07.688+07:00,540197064541925916,165978,126342,126226,1376
1783335487706362455,2026-07-06T17:58:07.706+07:00,540197064541925916,166003,126304,126270,1361
1783335487724544273,2026-07-06T17:58:07.724+07:00,540197064541925916,165935,126306,126260,1336
1783335487742726091,2026-07-06T17:58:07.742+07:00,540197064541925916,165924,126277,126191,1300
1783335487760907909,2026-07-06T17:58:07.760+07:00,540197064541925916,165985,126339,126199,1320
1783335487779089727,2026-07-06T17:58:07.779+07:00,540197064541925916,165898,126319,126167,1332
1783335487797271545,2026-07-06T17:58:07.797+07:00,540197064541925916,165925,126275,126214,1338
1783335487815453363,2026-07-06T17:58:07.815+07:00,540197064541925916,165946,126264,126245,1355
1783335487833635181,2026-07-06T17:58:07.833+07:00,540197064541925916,165952,126262,126188,1300
1783335487851816999,2026-07-06T17:58:07.851+07:00,540197064541925916,166003,126188,126250,1294
1783335487869998817,2026-07-06T17:58:07.869+07:00,540197064541925916,165926,126143,126180,1311
1783335487888180635,2026-07-06T17:58:07.888+07:00,540197064541925916,165893,126157,126151,1336
1783335487906362453,2026-07-06T17:58:07.906+07:00,540197064541925916,165849,126126,126162,1306
1783335487924544271,2026-07-06T17:58:07.924+07:00,540197064541925916,165760,126089,126145,1288
1783335487942726089,2026-07-06T17:58:07.942+07:00,540197064541925916,165763,126012,126146,1321
1783335487960907907,2026-07-06T17:58:07.960+07:00,540197064541925916,165734,126052,126116,1320
1783335487979089725,2026-07-06T17:58:07.979+07:00,540197064541925916,165776,126068,126108,1331
1783335487997271543,2026-07-06T17:58:07.997+07:00,540197064541925916,165719,125991,126075,1299
1783335488015453361,2026-07-06T17:58:08.015+07:00,540197064541925916,165790,126048,126126,1314
1783335488033635179,2026-07-06T17:58:08.033+07:00,540197064541925916,165745,125976,126144,1315
1783335488051816997,2026-07-06T17:58:08.051+07:00,540197064541925916,165769,125992,126181,1359
1783335488069998815,2026-07-06T17:58:08.069+07:00,540197064541925916,165768,125966,126171,1309
1783335488088180633,2026-07-06T17:58:08.088+07:00,540197064541925916,165792,126045,126260,1330
1783335488106362451,2026-07-06T17:58:08.106+07:00,540197064541925916,165844,125980,126248,1320
1783335488124544269,2026-07-06T17:58:08.124+07:00,540197064541925916,165809,125966,126198,1276
1783335488142726087,2026-07-06T17:58:08.142+07:00,540197064541925916,165818,125932,126214,1309
1783335488160907905,2026-07-06T17:58:08.160+07:00,540197064541925916,165865,126007,126225,1281
1783335488179089723,2026-07-06T17:58:08.179+07:00,540197064541925916,165853,126055,126245,1313
1783335488197271541,2026-07-06T17:58:08.197+07:00,540197064541925916,165859,126062,126330,1343
1783335488215453359,2026-07-06T17:58:08.215+07:00,540197065488142614,165875,126015,126333,1306
1783335488233635177,2026-07-06T17:58:08.233+07:00,540197065488142614,165896,126065,126304,1300
1783335488251816995,2026-07-06T17:58:08.251+07:00,540197065488142614,165913,126055,126351,1287
1783335488269998813,2026-07-06T17:58:08.269+07:00,540197065488142614,165952,126079,126301,1302
1783335488288180631,2026-07-06T17:58:08.288+07:00,540197065488142614,165984,126094,126369,1317
1783335488306362449,2026-07-06T17:58:08.306+07:00,540197065488142614,166048,126110,126351,1322
1783335488324544267,2026-07-06T17:58:08.324+07:00,540197065488142614,166041,126115,126406,1355
1783335488342726085,2026-07-06T17:58:08.342+07:00,540197065488142614,166054,126158,126427,1319
1783335488360907903,2026-07-06T17:58:08.360+07:00,540197065488142614,166035,126145,126474,1316
1783335488379089721,2026-07-06T17:58:08.379+07:00,540197065488142614,166124,126170,126468,1373
1783335488397271539,2026-07-06T17:58:08.397+07:00,540197065488142614,166168,126150,126479,1340
1783335488415453357,2026-07-06T17:58:08.415+07:00,540197065488142614,166211,126204,126488,1370
1783335488433635175,2026-07-06T17:58:08.433+07:00,540197065488142614,166222,126243,126482,1335
1783335488451816993,2026-07-06T17:58:08.451+07:00,540197065488142614,166215,126243,126473,1285
1783335488469998811,2026-07-06T17:58:08.469+07:00,540197065488142614,166220,126239,126523,1336
1783335488488180629,2026-07-06T17:58:08.488+07:00,540197065488142614,166178,126246,126479,1328
1783335488506362447,2026-07-06T17:58:08.506+07:00,540197065488142614,166165,126216,126463,1347
1783335488524544265,2026-07-06T17:58:08.524+07:00,540197065488142614,166192,126180,126476,1395
1783335488542726083,2026-07-06T17:58:08.542+07:00,540197065488142614,166109,126180,126409,1314
1783335488560907901,2026-07-06T17:58:08.560+07:00,540197065488142614,166036,126140,126411,1325
1783335488579089719,2026-07-06T17:58:08.579+07:00,540197065488142614,165976,126082,126374,1313
1783335488597271537,2026-07-06T17:58:08.597+07:00,540197065488142614,166042,126049,126342,1366
1783335488615453355,2026-07-06T17:58:08.615+07:00,540197065488142614,165946,125991,126289,1322
1783335488633635173,2026-07-06T17:58:08.633+07:00,540197065488142614,165878,125929,126214,1323
1783335488651816991,2026-07-06T17:58:08.651+07:00,540197065488142614,165838,126004,126282,1283
1783335488669998809,2026-07-06T17:58:08.669+07:00,540197065488142614,165782,125935,126213,1331
1783335488688180627,2026-07-06T17:58:08.688+07:00,540197065488142614,165799,125896,126169,1310
1783335488706362445,2026-07-06T17:58:08.706+07:00,540197065488142614,165767,125879,126179,1298
1783335488724544263,2026-07-06T17:58:08.724+07:00,540197065488142614,165723,125874,126230,1287
1783335488742726081,2026-07-06T17:58:08.742+07:00,540197065488142614,165693,125860,126121,1300
1783335488760907899,2026-07-06T17:58:08.760+07:00,540197065488142614,165686,125874,126184,1303
1783335488779089717,2026-07-06T17:58:08.779+07:00,540197065488142614,165737,125876,126172,1301
1783335488797271535,2026-07-06T17:58:08.797+07:00,540197065488142614,165765,125913,126241,1325
1783335488815453353,2026-07-06T17:58:08.815+07:00,540197065488142614,165745,125898,126248,1297
1783335488833635171,2026-07-06T17:58:08.833+07:00,540197065488142614,165720,125856,126172,1311
1783335488851816989,2026-07-06T17:58:08.851+07:00,540197065488142614,165745,125867,126212,1321
1783335488869998807,2026-07-06T17:58:08.869+07:00,540197065488142614,165771,125881,126185,1341
1783335488888180625,2026-07-06T17:58:08.888+07:00,540197065488142614,165758,125892,126254,1326
1783335488906362443,2026-07-06T17:58:08.906+07:00,540197065488142614,165771,125850,126224,1308
1783335488924544261,2026-07-06T17:58:08.924+07:00,540197065488142614,165739,125874,126214,1336
1783335488942726079,2026-07-06T17:58:08.942+07:00,540197065488142614,165760,125829,126235,1286
1783335488960907897,2026-07-06T17:58:08.960+07:00,540197065488142614,165799,125829,126241,1301
1783335488979089715,2026-07-06T17:58:08.979+07:00,540197065488142614,165788,125809,126189,1345
1783335488997271533,2026-07-06T17:58:08.997+07:00,540197065488142614,165742,125883,126237,1333
1783335489015453351,2026-07-06T17:58:09.015+07:00,540197065488142614,165828,125882,126250,1338
1783335489033635169,2026-07-06T17:58:09.033+07:00,540197065488142614,165825,125892,126238,1408
1783335489051816987,2026-07-06T17:58:09.051+07:00,540197065488142614,165825,125910,126283,1350
1783335489069998805,2026-07-06T17:58:09.069+07:00,540197065488142614,165875,125894,126314,1353
1783335489088180623,2026-07-06T17:58:09.088+07:00,540197065488142614,165881,125930,126332,1310
1783335489106362441,2026-07-06T17:58:09.106+07:00,540197065488142614,165922,125965,126373,1350
1783335489124544259,2026-07-06T17:58:09.124+07:00,540197065488142614,165911,125963,126344,1291
1783335489142726077,2026-07-06T17:58:09.142+07:00,540197065488142614,165986,125993,126412,1334
1783335489160907895,2026-07-06T17:58:09.160+07:00,540197066434487480,165998,126002,126360,1287
1783335489179089713,2026-07-06T17:58:09.179+07:00,540197066434487480,166045,126024,126385,1355
1783335489197271531,2026-07-06T17:58:09.197+07:00,540197066434487480,166011,125981,126376,1331
1783335489215453349,2026-07-06T17:58:09.215+07:00,540197066434487480,166041,126029,126401,1337
1783335489233635167,2026-07-06T17:58:09.233+07:00,540197066434487480,166074,126062,126390,1342
1783335489251816985,2026-07-06T17:58:09.251+07:00,540197066434487480,166047,126031,126419,1321
1783335489269998803,2026-07-06T17:58:09.269+07:00,540197066434487480,166110,126099,126520,1313
1783335489288180621,2026-07-06T17:58:09.288+07:00,540197066434487480,166067,126121,126509,1340
1783335489306362439,2026-07-06T17:58:09.306+07:00,540197066434487480,166186,126118,126520,1337
1783335489324544257,2026-07-06T17:58:09.324+07:00,540197066434487480,166168,126143,126484,1324
1783335489342726075,2026-07-06T17:58:09.342+07:00,540197066434487480,166199,126083,126473,1248
1783335489360907893,2026-07-06T17:58:09.360+07:00,540197066434487480,166283,126195,126553,1298
1783335489379089711,2026-07-06T17:58:09.379+07:00,540197066434487480,166277,126228,126571,1338
1783335489397271529,2026-07-06T17:58:09.397+07:00,540197066434487480,166321,126281,126607,1343
1783335489415453347,2026-07-06T17:58:09.415+07:00,540197066434487480,166337,126291,126668,1322
1783335489433635165,2026-07-06T17:58:09.433+07:00,540197066434487480,166415,126311,126654,1379
1783335489451816983,2026-07-06T17:58:09.451+07:00,540197066434487480,166386,126300,126696,1317
1783335489469998801,2026-07-06T17:58:09.469+07:00,540197066434487480,166425,126332,126668,1354
1783335489488180619,2026-07-06T17:58:09.488+07:00,540197066434487480,166376,126316,126661,1307
1783335489506362437,2026-07-06T17:58:09.506+07:00,540197066434487480,166332,126279,126629,1357
1783335489524544255,2026-07-06T17:58:09.524+07:00,540197066434487480,166295,126220,126555,1333
1783335489542726073,2026-07-06T17:58:09.542+07:00,540197066434487480,166279,126190,126548,1297
1783335489560907891,2026-07-06T17:58:09.560+07:00,540197066434487480,166260,126192,126562,1320
1783335489579089709,2026-07-06T17:58:09.579+07:00,540197066434487480,166226,126191,126522,1302
1783335489597271527,2026-07-06T17:58:09.597+07:00,540197066434487480,166176,126123,126479,1274
1783335489615453345,2026-07-06T17:58:09.615+07:00,540197066434487480,166269,126146,126511,1341
1783335489633635163,2026-07-06T17:58:09.633+07:00,540197066434487480,166220,126153,126431,1302
1783335489651816981,2026-07-06T17:58:09.651+07:00,540197066434487480,166161,126064,126367,1251
1783335489669998799,2026-07-06T17:58:09.669+07:00,540197066434487480,166120,126069,126361,1264
1783335489688180617,2026-07-06T17:58:09.688+07:00,540197066434487480,166185,126060,126394,1253
1783335489706362435,2026-07-06T17:58:09.706+07:00,540197066434487480,166139,126071,126371,1262
1783335489724544253,2026-07-06T17:58:09.724+07:00,540197066434487480,166178,126092,126442,1322
1783335489742726071,2026-07-06T17:58:09.742+07:00,540197066434487480,166202,126117,126403,1333
1783335489760907889,2026-07-06T17:58:09.760+07:00,540197066434487480,166199,126131,126442,1343
1783335489779089707,2026-07-06T17:58:09.779+07:00,540197066434487480,166176,126139,126367,1310
1783335489797271525,2026-07-06T17:58:09.797+07:00,540197066434487480,166190,126091,126372,1289
1783335489815453343,2026-07-06T17:58:09.815+07:00,540197066434487480,166184,126117,126422,1325
1783335489833635161,2026-07-06T17:58:09.833+07:00,540197066434487480,166216,126149,126392,1336
1783335489851816979,2026-07-06T17:58:09.851+07:00,540197066434487480,166215,126110,126423,1328
1783335489869998797,2026-07-06T17:58:09.869+07:00,540197066434487480,166259,126218,126427,1340
1783335489888180615,2026-07-06T17:58:09.888+07:00,540197066434487480,166294,126213,126455,1313
1783335489906362433,2026-07-06T17:58:09.906+07:00,540197066434487480,166327,126199,126436,1308
1783335489924544251,2026-07-06T17:58:09.924+07:00,540197066434487480,166277,126175,126492,1315
1783335489942726069,2026-07-06T17:58:09.942+07:00,540197066434487480,166333,126231,126523,1321
1783335489960907887,2026-07-06T17:58:09.960+07:00,540197066434487480,166346,126223,126527,1292
1783335489979089705,2026-07-06T17:58:09.979+07:00,540197066434487480,166421,126286,126569,1318
1783335489997271523,2026-07-06T17:58:09.997+07:00,540197066434487480,166448,126313,126588,1389
1783335490015453341,2026-07-06T17:58:10.015+07:00,540197066434487480,166454,126348,126648,1339
1783335490033635159,2026-07-06T17:58:10.033+07:00,540197066434487480,166457,126381,126615,1315
1783335490051816977,2026-07-06T17:58:10.051+07:00,540197066434487480,166518,126323,126663,1304
1783335490069998795,2026-07-06T17:58:10.069+07:00,540197066434487480,166540,126345,126658,1303
1783335490088180613,2026-07-06T17:58:10.088+07:00,540197066434487480,166598,126434,126673,1310
1783335490106362431,2026-07-06T17:58:10.106+07:00,540197067380789624,166574,126501,126760,1305
1783335490124544249,2026-07-06T17:58:10.124+07:00,540197067380789624,166621,126527,126755,1323
1783335490142726067,2026-07-06T17:58:10.142+07:00,540197067380789624,166685,126552,126771,1366
1783335490160907885,2026-07-06T17:58:10.160+07:00,540197067380789624,166698,126501,126820,1303
1783335490179089703,2026-07-06T17:58:10.179+07:00,540197067380789624,166688,126520,126794,1294
1783335490197271521,2026-07-06T17:58:10.197+07:00,540197067380789624,166755,126577,126812,1317
1783335490215453339,2026-07-06T17:58:10.215+07:00,540197067380789624,166813,126615,126822,1335
1783335490233635157,2026-07-06T17:58:10.233+07:00,540197067380789624,166789,126610,126847,1335
1783335490251816975,2026-07-06T17:58:10.251+07:00,540197067380789624,166869,126657,126873,1343
1783335490269998793,2026-07-06T17:58:10.269+07:00,540197067380789624,166908,126714,126957,1347
1783335490288180611,2026-07-06T17:58:10.288+07:00,540197067380789624,166888,126767,126970,1325
1783335490306362429,2026-07-06T17:58:10.306+07:00,540197067380789624,166998,126730,126987,1359
1783335490324544247,2026-07-06T17:58:10.324+07:00,540197067380789624,167025,126759,126936,1288
1783335490342726065,2026-07-06T17:58:10.342+07:00,540197067380789624,167129,126769,127059,1361
1783335490360907883,2026-07-06T17:58:10.360+07:00,540197067380789624,167042,126802,127016,1344
1783335490379089701,2026-07-06T17:58:10.379+07:00,540197067380789624,167100,126810,127037,1304
1783335490397271519,2026-07-06T17:58:10.397+07:00,540197067380789624,167134,126876,127143,1406
1783335490415453337,2026-07-06T17:58:10.415+07:00,540197067380789624,167122,126840,127023,1310
1783335490433635155,2026-07-06T17:58:10.433+07:00,540197067380789624,167098,126874,127047,1332
1783335490451816973,2026-07-06T17:58:10.451+07:00,540197067380789624,167156,126893,127059,1344
1783335490469998791,2026-07-06T17:58:10.469+07:00,540197067380789624,167128,126878,127016,1366
1783335490488180609,2026-07-06T17:58:10.488+07:00,540197067380789624,167080,126842,127000,1367
1783335490506362427,2026-07-06T17:58:10.506+07:00,540197067380789624,166998,126781,126986,1336
1783335490524544245,2026-07-06T17:58:10.524+07:00,540197067380789624,167060,126828,126918,1279
1783335490542726063,2026-07-06T17:58:10.542+07:00,540197067380789624,166990,126785,126872,1370
1783335490560907881,2026-07-06T17:58:10.560+07:00,540197067380789624,166973,126745,126914,1339
1783335490579089699,2026-07-06T17:58:10.579+07:00,540197067380789624,166931,126742,126888,1281
1783335490597271517,2026-07-06T17:58:10.597+07:00,540197067380789624,166984,126706,126871,1332
1783335490615453335,2026-07-06T17:58:10.615+07:00,540197067380789624,166987,126720,126876,1313
1783335490633635153,2026-07-06T17:58:10.633+07:00,540197067380789624,166998,126649,126847,1302
1783335490651816971,2026-07-06T17:58:10.651+07:00,540197067380789624,166962,126648,126880,1345
1783335490669998789,2026-07-06T17:58:10.669+07:00,540197067380789624,166960,126651,126885,1321
1783335490688180607,2026-07-06T17:58:10.688+07:00,540197067380789624,166980,126638,126903,1362
1783335490706362425,2026-07-06T17:58:10.706+07:00,540197067380789624,167041,126632,126907,1318
1783335490724544243,2026-07-06T17:58:10.724+07:00,540197067380789624,167041,126623,126864,1319
1783335490742726061,2026-07-06T17:58:10.742+07:00,540197067380789624,167008,126661,126869,1342
1783335490760907879,2026-07-06T17:58:10.760+07:00,540197067380789624,167014,126714,126899,1324
1783335490779089697,2026-07-06T17:58:10.779+07:00,540197067380789624,166999,126733,126917,1350
1783335490797271515,2026-07-06T17:58:10.797+07:00,540197067380789624,167014,126655,126848,1306
1783335490815453333,2026-07-06T17:58:10.815+07:00,540197067380789624,167044,126658,126905,1311
1783335490833635151,2026-07-06T17:58:10.833+07:00,540197067380789624,167127,126742,126921,1326
1783335490851816969,2026-07-06T17:58:10.851+07:00,540197067380789624,167107,126662,126916,1286
1783335490869998787,2026-07-06T17:58:10.869+07:00,540197067380789624,167145,126732,126957,1337
1783335490888180605,2026-07-06T17:58:10.888+07:00,540197067380789624,167183,126752,126999,1315
1783335490906362423,2026-07-06T17:58:10.906+07:00,540197067380789624,167180,126783,126985,1320
1783335490924544241,2026-07-06T17:58:10.924+07:00,540197067380789624,167184,126776,127058,1347
1783335490942726059,2026-07-06T17:58:10.942+07:00,540197067380789624,167232,126819,127051,1343
1783335490960907877,2026-07-06T17:58:10.960+07:00,540197067380789624,167266,126816,127034,1321
1783335490979089695,2026-07-06T17:58:10.979+07:00,540197067380789624,167290,126880,127071,1311
1783335490997271513,2026-07-06T17:58:10.997+07:00,540197067380789624,167299,126888,127106,1362
1783335491015453331,2026-07-06T17:58:11.015+07:00,540197067380789624,167314,126914,127123,1285
1783335491033635149,2026-07-06T17:58:11.033+07:00,540197067380789624,167377,126942,127140,1288
1783335491051816967,2026-07-06T17:58:11.051+07:00,540197068326951390,167446,126917,127200,1338
1783335491069998785,2026-07-06T17:58:11.069+07:00,540197068326951390,167458,126989,127225,1316
1783335491088180603,2026-07-06T17:58:11.088+07:00,540197068326951390,167451,126991,127218,1287
1783335491106362421,2026-07-06T17:58:11.106+07:00,540197068326951390,167458,127000,127221,1286
1783335491124544239,2026-07-06T17:58:11.124+07:00,540197068326951390,167487,126981,127263,1299
1783335491142726057,2026-07-06T17:58:11.142+07:00,540197068326951390,167469,127008,127236,1289
1783335491160907875,2026-07-06T17:58:11.160+07:00,540197068326951390,167482,127039,127267,1298
1783335491179089693,2026-07-06T17:58:11.179+07:00,540197068326951390,167566,127101,127304,1318
1783335491197271511,2026-07-06T17:58:11.197+07:00,540197068326951390,167640,127156,127312,1301
1783335491215453329,2026-07-06T17:58:11.215+07:00,540197068326951390,167747,127186,127397,1348
1783335491233635147,2026-07-06T17:58:11.233+07:00,540197068326951390,167726,127270,127398,1338
1783335491251816965,2026-07-06T17:58:11.251+07:00,540197068326951390,167787,127312,127418,1299
1783335491269998783,2026-07-06T17:58:11.269+07:00,540197068326951390,167869,127298,127486,1321
1783335491288180601,2026-07-06T17:58:11.288+07:00,540197068326951390,167860,127348,127467,1275
1783335491306362419,2026-07-06T17:58:11.306+07:00,540197068326951390,167941,127412,127523,1289
1783335491324544237,2026-07-06T17:58:11.324+07:00,540197068326951390,168025,127417,127605,1365
1783335491342726055,2026-07-06T17:58:11.342+07:00,540197068326951390,168002,127395,127593,1305
1783335491360907873,2026-07-06T17:58:11.360+07:00,540197068326951390,168076,127491,127640,1271
1783335491379089691,2026-07-06T17:58:11.379+07:00,540197068326951390,168088,127528,127662,1296
1783335491397271509,2026-07-06T17:58:11.397+07:00,540197068326951390,168142,127508,127662,1308
1783335491415453327,2026-07-06T17:58:11.415+07:00,540197068326951390,168158,127593,127729,1348
1783335491433635145,2026-07-06T17:58:11.433+07:00,540197068326951390,168120,127543,127648,1339
1783335491451816963,2026-07-06T17:58:11.451+07:00,540197068326951390,168103,127493,127641,1300
1783335491469998781,2026-07-06T17:58:11.469+07:00,540197068326951390,168072,127474,127625,1283
1783335491488180599,2026-07-06T17:58:11.488+07:00,540197068326951390,168069,127478,127588,1333
1783335491506362417,2026-07-06T17:58:11.506+07:00,540197068326951390,168026,127528,127587,1292
1783335491524544235,2026-07-06T17:58:11.524+07:00,540197068326951390,168015,127488,127565,1318
1783335491542726053,2026-07-06T17:58:11.542+07:00,540197068326951390,168015,127417,127563,1264
1783335491560907871,2026-07-06T17:58:11.560+07:00,540197068326951390,168077,127436,127565,1294
1783335491579089689,2026-07-06T17:58:11.579+07:00,540197068326951390,168074,127417,127518,1318
1783335491597271507,2026-07-06T17:58:11.597+07:00,540197068326951390,168014,127374,127447,1242
1783335491615453325,2026-07-06T17:58:11.615+07:00,540197068326951390,168088,127418,127517,1327
1783335491633635143,2026-07-06T17:58:11.633+07:00,540197068326951390,168093,127394,127540,1335
1783335491651816961,2026-07-06T17:58:11.651+07:00,540197068326951390,168090,127381,127564,1360
1783335491669998779,2026-07-06T17:58:11.669+07:00,540197068326951390,168135,127391,127540,1333
1783335491688180597,2026-07-06T17:58:11.688+07:00,540197068326951390,168143,127402,127576,1377
1783335491706362415,2026-07-06T17:58:11.706+07:00,540197068326951390,168119,127401,127521,1274
1783335491724544233,2026-07-06T17:58:11.724+07:00,540197068326951390,168063,127337,127517,1276
1783335491742726051,2026-07-06T17:58:11.742+07:00,540197068326951390,168168,127334,127560,1296
1783335491760907869,2026-07-06T17:58:11.760+07:00,540197068326951390,168143,127358,127546,1332
1783335491779089687,2026-07-06T17:58:11.779+07:00,540197068326951390,168169,127355,127555,1307
1783335491797271505,2026-07-06T17:58:11.797+07:00,540197068326951390,168117,127378,127534,1257
1783335491815453323,2026-07-06T17:58:11.815+07:00,540197068326951390,168176,127335,127494,1243
1783335491833635141,2026-07-06T17:58:11.833+07:00,540197068326951390,168171,127425,127574,1314
1783335491851816959,2026-07-06T17:58:11.851+07:00,540197068326951390,168135,127476,127571,1287
1783335491869998777,2026-07-06T17:58:11.869+07:00,540197068326951390,168232,127494,127612,1328
1783335491888180595,2026-07-06T17:58:11.888+07:00,540197068326951390,168243,127491,127601,1262
1783335491906362413,2026-07-06T17:58:11.906+07:00,540197068326951390,168306,127487,127655,1289
1783335491924544231,2026-07-06T17:58:11.924+07:00,540197068326951390,168340,127485,127695,1288
1783335491942726049,2026-07-06T17:58:11.942+07:00,540197068326951390,168319,127532,127699,1256
1783335491960907867,2026-07-06T17:58:11.960+07:00,540197068326951390,168379,127559,127721,1323
1783335491979089685,2026-07-06T17:58:11.979+07:00,540197068326951390,168369,127588,127715,1292
1783335491997271503,2026-07-06T17:58:11.997+07:00,540197069182180189,168413,127585,127708,1272
1783335492015453321,2026-07-06T17:58:12.015+07:00,540197069182180189,168434,127601,127800,1276
1783335492033635139,2026-07-06T17:58:12.033+07:00,540197069182180189,168537,127658,127832,1316
1783335492051816957,2026-07-06T17:58:12.051+07:00,540197069182180189,168584,127682,127862,1330
1783335492069998775,2026-07-06T17:58:12.069+07:00,540197069182180189,168540,127717,127818,1327
1783335492088180593,2026-07-06T17:58:12.088+07:00,540197069182180189,168540,127670,127842,1306
1783335492106362411,2026-07-06T17:58:12.106+07:00,540197069182180189,168577,127807,127931,1327
1783335492124544229,2026-07-06T17:58:12.124+07:00,540197069182180189,168632,127757,127891,1327
1783335492142726047,2026-07-06T17:58:12.142+07:00,540197069182180189,168672,127750,127914,1279
1783335492160907865,2026-07-06T17:58:12.160+07:00,540197069182180189,168674,127802,127918,1284
1783335492179089683,2026-07-06T17:58:12.179+07:00,540197069182180189,168751,127872,127987,1286
1783335492197271501,2026-07-06T17:58:12.197+07:00,540197069182180189,168750,127889,127995,1318
1783335492215453319,2026-07-06T17:58:12.215+07:00,540197069182180189,168807,127895,128050,1332
1783335492233635137,2026-07-06T17:58:12.233+07:00,540197069182180189,168868,127886,128061,1320
1783335492251816955,2026-07-06T17:58:12.251+07:00,540197069182180189,168868,127913,128028,1272
1783335492269998773,2026-07-06T17:58:12.269+07:00,540197069182180189,168898,127971,128061,1317
1783335492288180591,2026-07-06T17:58:12.288+07:00,540197069182180189,169007,127944,128113,1361
1783335492306362409,2026-07-06T17:58:12.306+07:00,540197069182180189,168995,127944,128112,1316
1783335492324544227,2026-07-06T17:58:12.324+07:00,540197069182180189,169030,127997,128171,1304
1783335492342726045,2026-07-06T17:58:12.342+07:00,540197069182180189,168990,128004,128158,1320
1783335492360907863,2026-07-06T17:58:12.360+07:00,540197069182180189,169019,128006,128159,1319
1783335492379089681,2026-07-06T17:58:12.379+07:00,540197069182180189,169034,128040,128190,1285
1783335492397271499,2026-07-06T17:58:12.397+07:00,540197069182180189,169092,128089,128185,1318
1783335492415453317,2026-07-06T17:58:12.415+07:00,540197069182180189,169116,128100,128248,1290
1783335492433635135,2026-07-06T17:58:12.433+07:00,540197069182180189,169179,128146,128260,1354
1783335492451816953,2026-07-06T17:58:12.451+07:00,540197069182180189,169124,128067,128216,1296
1783335492469998771,2026-07-06T17:58:12.469+07:00,540197069182180189,169095,128041,128169,1282
1783335492488180589,2026-07-06T17:58:12.488+07:00,540197069182180189,169023,127997,128117,1275
1783335492506362407,2026-07-06T17:58:12.506+07:00,540197069182180189,169096,128030,128192,1379
1783335492524544225,2026-07-06T17:58:12.524+07:00,540197069182180189,169041,127960,128093,1283
1783335492542726043,2026-07-06T17:58:12.542+07:00,540197069182180189,168970,127959,128131,1222
1783335492560907861,2026-07-06T17:58:12.560+07:00,540197069182180189,168970,127920,128107,1294
1783335492579089679,2026-07-06T17:58:12.579+07:00,540197069182180189,168979,127894,128045,1330
1783335492597271497,2026-07-06T17:58:12.597+07:00,540197069182180189,168982,127954,128043,1317
1783335492615453315,2026-07-06T17:58:12.615+07:00,540197069182180189,168963,127958,128022,1289
1783335492633635133,2026-07-06T17:58:12.633+07:00,540197069182180189,168949,127871,128067,1301
1783335492651816951,2026-07-06T17:58:12.651+07:00,540197069182180189,168977,127888,128080,1347
1783335492669998769,2026-07-06T17:58:12.669+07:00,540197069182180189,168919,127829,128042,1331
1783335492688180587,2026-07-06T17:58:12.688+07:00,540197069182180189,168904,127913,128052,1353
1783335492706362405,2026-07-06T17:58:12.706+07:00,540197069182180189,168904,127838,128003,1284
1783335492724544223,2026-07-06T17:58:12.724+07:00,540197069182180189,168958,127851,128095,1331
1783335492742726041,2026-07-06T17:58:12.742+07:00,540197069182180189,168981,127826,128066,1310
1783335492760907859,2026-07-06T17:58:12.760+07:00,540197069182180189,168992,127877,128063,1322
1783335492779089677,2026-07-06T17:58:12.779+07:00,540197069182180189,169011,127841,128005,1296
1783335492797271495,2026-07-06T17:58:12.797+07:00,540197069182180189,168936,127799,127981,1281
1783335492815453313,2026-07-06T17:58:12.815+07:00,540197069182180189,168913,127739,128029,1283
1783335492833635131,2026-07-06T17:58:12.833+07:00,540197069182180189,168992,127805,128039,1327
1783335492851816949,2026-07-06T17:58:12.851+07:00,540197069964608300,168954,127785,128038,1260
1783335492869998767,2026-07-06T17:58:12.869+07:00,540197069964608300,168948,127779,128073,1305
1783335492888180585,2026-07-06T17:58:12.888+07:00,540197069964608300,168961,127796,128058,1288
1783335492906362403,2026-07-06T17:58:12.906+07:00,540197069964608300,168918,127809,128058,1320
1783335492924544221,2026-07-06T17:58:12.924+07:00,540197069964608300,168945,127751,128074,1285
1783335492942726039,2026-07-06T17:58:12.942+07:00,540197069964608300,168942,127784,128065,1306
1783335492960907857,2026-07-06T17:58:12.960+07:00,540197069964608300,169016,127838,128050,1258
1783335492979089675,2026-07-06T17:58:12.979+07:00,540197069964608300,168987,127781,128108,1335
1783335492997271493,2026-07-06T17:58:12.997+07:00,540197069964608300,168980,127736,128076,1323
1783335493015453311,2026-07-06T17:58:13.015+07:00,540197069964608300,169022,127828,128075,1284
1783335493033635129,2026-07-06T17:58:13.033+07:00,540197069964608300,169061,127887,128160,1317
1783335493051816947,2026-07-06T17:58:13.051+07:00,540197069964608300,169045,127794,128092,1283
1783335493069998765,2026-07-06T17:58:13.069+07:00,540197069964608300,169080,127889,128142,1289
1783335493088180583,2026-07-06T17:58:13.088+07:00,540197069964608300,169125,127883,128208,1325
1783335493106362401,2026-07-06T17:58:13.106+07:00,540197069964608300,169125,127929,128197,1281
1783335493124544219,2026-07-06T17:58:13.124+07:00,540197069964608300,169111,127921,128196,1316
1783335493142726037,2026-07-06T17:58:13.142+07:00,540197069964608300,169098,127954,128220,1299
1783335493160907855,2026-07-06T17:58:13.160+07:00,540197069964608300,169107,127969,128229,1304
1783335493179089673,2026-07-06T17:58:13.179+07:00,540197069964608300,169244,127989,128305,1331
1783335493197271491,2026-07-06T17:58:13.197+07:00,540197069964608300,169176,128056,128268,1299
1783335493215453309,2026-07-06T17:58:13.215+07:00,540197069964608300,169219,127969,128242,1277
1783335493233635127,2026-07-06T17:58:13.233+07:00,540197069964608300,169256,128034,128306,1321
1783335493251816945,2026-07-06T17:58:13.251+07:00,540197069964608300,169302,128112,128333,1378
1783335493269998763,2026-07-06T17:58:13.269+07:00,540197069964608300,169297,128097,128318,1289
1783335493288180581,2026-07-06T17:58:13.288+07:00,540197069964608300,169335,128202,128396,1331
1783335493306362399,2026-07-06T17:58:13.306+07:00,540197069964608300,169458,128227,128469,1318
1783335493324544217,2026-07-06T17:58:13.324+07:00,540197069964608300,169417,128168,128413,1267
1783335493342726035,2026-07-06T17:58:13.342+07:00,540197069964608300,169457,128192,128449,1281
1783335493360907853,2026-07-06T17:58:13.360+07:00,540197069964608300,169486,128243,128471,1271
1783335493379089671,2026-07-06T17:58:13.379+07:00,540197069964608300,169472,128244,128471,1257
1783335493397271489,2026-07-06T17:58:13.397+07:00,540197069964608300,169513,128227,128510,1281
1783335493415453307,2026-07-06T17:58:13.415+07:00,540197069964608300,169512,128252,128444,1274
1783335493433635125,2026-07-06T17:58:13.433+07:00,540197069964608300,169524,128191,128402,1299
1783335493451816943,2026-07-06T17:58:13.451+07:00,540197069964608300,169500,128162,128422,1390
1783335493469998761,2026-07-06T17:58:13.469+07:00,540197069964608300,169418,128207,128386,1331
1783335493488180579,2026-07-06T17:58:13.488+07:00,540197069964608300,169389,128152,128383,1352
1783335493506362397,2026-07-06T17:58:13.506+07:00,540197069964608300,169302,128118,128275,1257
1783335493524544215,2026-07-06T17:58:13.524+07:00,540197069964608300,169331,128135,128299,1291
1783335493542726033,2026-07-06T17:58:13.542+07:00,540197069964608300,169369,128139,128297,1276
1783335493560907851,2026-07-06T17:58:13.560+07:00,540197069964608300,169320,128037,128262,1235
1783335493579089669,2026-07-06T17:58:13.579+07:00,540197069964608300,169298,128051,128298,1319
1783335493597271487,2026-07-06T17:58:13.597+07:00,540197069964608300,169243,128066,128208,1308
1783335493615453305,2026-07-06T17:58:13.615+07:00,540197069964608300,169221,128033,128211,1354
1783335493633635123,2026-07-06T17:58:13.633+07:00,540197070819873725,169218,127987,128178,1351
1783335493651816941,2026-07-06T17:58:13.651+07:00,540197070819873725,169145,128023,128197,1340
1783335493669998759,2026-07-06T17:58:13.669+07:00,540197070819873725,169152,127941,128215,1300
1783335493688180577,2026-07-06T17:58:13.688+07:00,540197070819873725,169108,127891,128146,1334
1783335493706362395,2026-07-06T17:58:13.706+07:00,540197070819873725,169142,127912,128143,1310
1783335493724544213,2026-07-06T17:58:13.724+07:00,540197070819873725,169155,127902,128176,1340
1783335493742726031,2026-07-06T17:58:13.742+07:00,540197070819873725,169123,127861,128029,1291
1783335493760907849,2026-07-06T17:58:13.760+07:00,540197070819873725,169079,127867,128102,1320
1783335493779089667,2026-07-06T17:58:13.779+07:00,540197070819873725,169076,127910,128084,1373
1783335493797271485,2026-07-06T17:58:13.797+07:00,540197070819873725,169025,127834,128100,1317
1783335493815453303,2026-07-06T17:58:13.815+07:00,540197070819873725,168999,127786,128041,1302
1783335493833635121,2026-07-06T17:58:13.833+07:00,540197070819873725,169031,127837,128067,1319
1783335493851816939,2026-07-06T17:58:13.851+07:00,540197070819873725,169005,127805,128049,1308
1783335493869998757,2026-07-06T17:58:13.869+07:00,540197070819873725,168993,127798,128097,1337
1783335493888180575,2026-07-06T17:58:13.888+07:00,540197070819873725,169017,127834,128093,1337
1783335493906362393,2026-07-06T17:58:13.906+07:00,540197070819873725,169002,127856,128030,1311
1783335493924544211,2026-07-06T17:58:13.924+07:00,540197070819873725,169035,127836,128042,1349
1783335493942726029,2026-07-06T17:58:13.942+07:00,540197070819873725,169045,127866,128029,1383
1783335493960907847,2026-07-06T17:58:13.960+07:00,540197070819873725,169018,127850,128059,1274
1783335493979089665,2026-07-06T17:58:13.979+07:00,540197070819873725,169040,127828,128027,1292
1783335493997271483,2026-07-06T17:58:13.997+07:00,540197070819873725,168995,127822,127975,1296
1783335494015453301,2026-07-06T17:58:14.015+07:00,540197070819873725,169015,127808,128011,1280
1783335494033635119,2026-07-06T17:58:14.033+07:00,540197070819873725,169058,127829,128067,1368
1783335494051816937,2026-07-06T17:58:14.051+07:00,540197070819873725,169024,127821,128081,1297
1783335494069998755,2026-07-06T17:58:14.069+07:00,540197070819873725,169045,127810,128072,1276
1783335494088180573,2026-07-06T17:58:14.088+07:00,540197070819873725,169009,127774,128112,1283
1783335494106362391,2026-07-06T17:58:14.106+07:00,540197070819873725,169001,127775,128105,1280
1783335494124544209,2026-07-06T17:58:14.124+07:00,540197070819873725,168989,127837,128088,1260
1783335494142726027,2026-07-06T17:58:14.142+07:00,540197070819873725,169011,127838,128088,1279
1783335494160907845,2026-07-06T17:58:14.160+07:00,540197070819873725,169005,127822,128048,1317
1783335494179089663,2026-07-06T17:58:14.179+07:00,540197070819873725,168958,127809,128045,1298
1783335494197271481,2026-07-06T17:58:14.197+07:00,540197070819873725,168998,127791,128042,1251
1783335494215453299,2026-07-06T17:58:14.215+07:00,540197070819873725,169092,127862,128105,1317
1783335494233635117,2026-07-06T17:58:14.233+07:00,540197070819873725,169052,127900,128169,1314
1783335494251816935,2026-07-06T17:58:14.251+07:00,540197070819873725,169036,127912,128094,1235
1783335494269998753,2026-07-06T17:58:14.269+07:00,540197070819873725,169073,127944,128190,1277
1783335494288180571,2026-07-06T17:58:14.288+07:00,540197070819873725,169049,127948,128162,1288
1783335494306362389,2026-07-06T17:58:14.306+07:00,540197070819873725,169072,127881,128128,1262
1783335494324544207,2026-07-06T17:58:14.324+07:00,540197070819873725,169125,127905,128176,1297
1783335494342726025,2026-07-06T17:58:14.342+07:00,540197070819873725,169026,127884,128148,1301
1783335494360907843,2026-07-06T17:58:14.360+07:00,540197070819873725,169064,127875,128139,1307
1783335494379089661,2026-07-06T17:58:14.379+07:00,540197070819873725,168977,127864,127981,1317
1783335494397271479,2026-07-06T17:58:14.397+07:00,540197070819873725,168884,127761,127958,1282
1783335494415453297,2026-07-06T17:58:14.415+07:00,540197070819873725,168851,127772,127936,1328
1783335494433635115,2026-07-06T17:58:14.433+07:00,540197070819873725,168757,127644,127850,1288
1783335494451816933,2026-07-06T17:58:14.451+07:00,540197070819873725,168679,127581,127824,1282
1783335494469998751,2026-07-06T17:58:14.469+07:00,540197070819873725,168683,127598,127836,1316
1783335494488180569,2026-07-06T17:58:14.488+07:00,540197071693361449,168653,127578,127824,1287
1783335494506362387,2026-07-06T17:58:14.506+07:00,540197071693361449,168539,127500,127715,1342
1783335494524544205,2026-07-06T17:58:14.524+07:00,540197071693361449,168476,127470,127681,1344
1783335494542726023,2026-07-06T17:58:14.542+07:00,540197071693361449,168411,127384,127583,1290
1783335494560907841,2026-07-06T17:58:14.560+07:00,540197071693361449,168363,127362,127630,1292
1783335494579089659,2026-07-06T17:58:14.579+07:00,540197071693361449,168366,127326,127537,1286
1783335494597271477,2026-07-06T17:58:14.597+07:00,540197071693361449,168373,127275,127593,1316
1783335494615453295,2026-07-06T17:58:14.615+07:00,540197071693361449,168317,127243,127548,1299
1783335494633635113,2026-07-06T17:58:14.633+07:00,540197071693361449,168290,127240,127481,1317
1783335494651816931,2026-07-06T17:58:14.651+07:00,540197071693361449,168238,127195,127442,1311
1783335494669998749,2026-07-06T17:58:14.669+07:00,540197071693361449,168209,127205,127396,1318
1783335494688180567,2026-07-06T17:58:14.688+07:00,540197071693361449,168162,127163,127383,1270
1783335494706362385,2026-07-06T17:58:14.706+07:00,540197071693361449,168159,127115,127399,1362
1783335494724544203,2026-07-06T17:58:14.724+07:00,540197071693361449,168072,127061,127359,1268
1783335494742726021,2026-07-06T17:58:14.742+07:00,540197071693361449,168136,127116,127389,1304
1783335494760907839,2026-07-06T17:58:14.760+07:00,540197071693361449,168052,127045,127335,1294
1783335494779089657,2026-07-06T17:58:14.779+07:00,540197071693361449,168055,127070,127342,1314
1783335494797271475,2026-07-06T17:58:14.797+07:00,540197071693361449,167990,127028,127290,1257
1783335494815453293,2026-07-06T17:58:14.815+07:00,540197071693361449,167988,127037,127277,1291
1783335494833635111,2026-07-06T17:58:14.833+07:00,540197071693361449,167992,127028,127346,1282
1783335494851816929,2026-07-06T17:58:14.851+07:00,540197071693361449,168011,127027,127367,1281
1783335494869998747,2026-07-06T17:58:14.869+07:00,540197071693361449,167940,126941,127317,1316
1783335494888180565,2026-07-06T17:58:14.888+07:00,540197071693361449,167959,126951,127267,1303
1783335494906362383,2026-07-06T17:58:14.906+07:00,540197071693361449,167984,126913,127298,1307
1783335494924544201,2026-07-06T17:58:14.924+07:00,540197071693361449,167968,127008,127257,1294
1783335494942726019,2026-07-06T17:58:14.942+07:00,540197071693361449,167929,126952,127255,1279
1783335494960907837,2026-07-06T17:58:14.960+07:00,540197071693361449,167915,126936,127238,1320
1783335494979089655,2026-07-06T17:58:14.979+07:00,540197071693361449,167934,126939,127242,1310
1783335494997271473,2026-07-06T17:58:14.997+07:00,540197071693361449,167937,126937,127250,1266
1783335495015453291,2026-07-06T17:58:15.015+07:00,540197071693361449,167978,126981,127274,1352
1783335495033635109,2026-07-06T17:58:15.033+07:00,540197071693361449,167938,127024,127290,1383
1783335495051816927,2026-07-06T17:58:15.051+07:00,540197071693361449,167900,126966,127276,1324
1783335495069998745,2026-07-06T17:58:15.069+07:00,540197071693361449,167955,127048,127328,1311
1783335495088180563,2026-07-06T17:58:15.088+07:00,540197071693361449,167959,127034,127301,1289
1783335495106362381,2026-07-06T17:58:15.106+07:00,540197071693361449,167961,126972,127292,1316
1783335495124544199,2026-07-06T17:58:15.124+07:00,540197071693361449,167905,126949,127306,1306
1783335495142726017,2026-07-06T17:58:15.142+07:00,540197071693361449,167933,126899,127297,1325
1783335495160907835,2026-07-06T17:58:15.160+07:00,540197071693361449,167929,126930,127289,1283
1783335495179089653,2026-07-06T17:58:15.179+07:00,540197071693361449,168002,126990,127367,1339
1783335495197271471,2026-07-06T17:58:15.197+07:00,540197071693361449,167909,127031,127312,1296
1783335495215453289,2026-07-06T17:58:15.215+07:00,540197071693361449,167960,126988,127332,1263
1783335495233635107,2026-07-06T17:58:15.233+07:00,540197071693361449,168049,127052,127465,1377
1783335495251816925,2026-07-06T17:58:15.251+07:00,540197071693361449,168036,127024,127414,1386
1783335495269998743,2026-07-06T17:58:15.269+07:00,540197071693361449,168034,127036,127386,1297
1783335495288180561,2026-07-06T17:58:15.288+07:00,540197071693361449,168023,127053,127395,1301
1783335495306362379,2026-07-06T17:58:15.306+07:00,540197071693361449,168053,127082,127394,1330
1783335495324544197,2026-07-06T17:58:15.324+07:00,540197071693361449,167959,127024,127346,1294
1783335495342726015,2026-07-06T17:58:15.342+07:00,540197071693361449,167965,127035,127342,1401
1783335495360907833,2026-07-06T17:58:15.360+07:00,540197072457635929,167870,126955,127266,1340
1783335495379089651,2026-07-06T17:58:15.379+07:00,540197072457635929,167830,126877,127169,1376
1783335495397271469,2026-07-06T17:58:15.397+07:00,540197072457635929,167752,126811,127120,1376
1783335495415453287,2026-07-06T17:58:15.415+07:00,540197072457635929,167669,126727,127049,1336
1783335495433635105,2026-07-06T17:58:15.433+07:00,540197072457635929,167601,126733,127043,1318
1783335495451816923,2026-07-06T17:58:15.451+07:00,540197072457635929,167550,126668,126975,1270
1783335495469998741,2026-07-06T17:58:15.469+07:00,540197072457635929,167437,126616,126885,1272
1783335495488180559,2026-07-06T17:58:15.488+07:00,540197072457635929,167372,126570,126860,1281
1783335495506362377,2026-07-06T17:58:15.506+07:00,540197072457635929,167305,126457,126801,1303
1783335495524544195,2026-07-06T17:58:15.524+07:00,540197072457635929,167270,126425,126748,1334
1783335495542726013,2026-07-06T17:58:15.542+07:00,540197072457635929,167153,126330,126599,1326
1783335495560907831,2026-07-06T17:58:15.560+07:00,540197072457635929,167140,126317,126634,1327
1783335495579089649,2026-07-06T17:58:15.579+07:00,540197072457635929,167078,126219,126567,1282
1783335495597271467,2026-07-06T17:58:15.597+07:00,540197072457635929,167050,126203,126540,1294
1783335495615453285,2026-07-06T17:58:15.615+07:00,540197072457635929,167027,126213,126554,1315
1783335495633635103,2026-07-06T17:58:15.633+07:00,540197072457635929,167012,126155,126497,1322
1783335495651816921,2026-07-06T17:58:15.651+07:00,540197072457635929,166881,126110,126407,1299
1783335495669998739,2026-07-06T17:58:15.669+07:00,540197072457635929,166845,126045,126440,1314
1783335495688180557,2026-07-06T17:58:15.688+07:00,540197072457635929,166822,126076,126412,1350
1783335495706362375,2026-07-06T17:58:15.706+07:00,540197072457635929,166766,125991,126354,1317
1783335495724544193,2026-07-06T17:58:15.724+07:00,540197072457635929,166739,125934,126359,1265
1783335495742726011,2026-07-06T17:58:15.742+07:00,540197072457635929,166692,125888,126258,1285
1783335495760907829,2026-07-06T17:58:15.760+07:00,540197072457635929,166653,125915,126260,1274
1783335495779089647,2026-07-06T17:58:15.779+07:00,540197072457635929,166660,125849,126276,1272
1783335495797271465,2026-07-06T17:58:15.797+07:00,540197072457635929,166659,125868,126324,1315
1783335495815453283,2026-07-06T17:58:15.815+07:00,540197072457635929,166619,125797,126228,1282
1783335495833635101,2026-07-06T17:58:15.833+07:00,540197072457635929,166601,125837,126304,1342
1783335495851816919,2026-07-06T17:58:15.851+07:00,540197072457635929,166570,125816,126271,1345
1783335495869998737,2026-07-06T17:58:15.869+07:00,540197072457635929,166579,125779,126298,1376
1783335495888180555,2026-07-06T17:58:15.888+07:00,540197072457635929,166601,125802,126248,1304
1783335495906362373,2026-07-06T17:58:15.906+07:00,540197072457635929,166556,125792,126243,1319
1783335495924544191,2026-07-06T17:58:15.924+07:00,540197072457635929,166599,125802,126293,1347
1783335495942726009,2026-07-06T17:58:15.942+07:00,540197072457635929,166486,125771,126258,1294
1783335495960907827,2026-07-06T17:58:15.960+07:00,540197072457635929,166539,125776,126242,1350
1783335495979089645,2026-07-06T17:58:15.979+07:00,540197072457635929,166499,125793,126303,1332
1783335495997271463,2026-07-06T17:58:15.997+07:00,540197072457635929,166504,125720,126250,1331
1783335496015453281,2026-07-06T17:58:16.015+07:00,540197072457635929,166487,125781,126225,1342
1783335496033635099,2026-07-06T17:58:16.033+07:00,540197072457635929,166414,125776,126171,1318
1783335496051816917,2026-07-06T17:58:16.051+07:00,540197072457635929,166403,125753,126163,1293
1783335496069998735,2026-07-06T17:58:16.069+07:00,540197072457635929,166534,125790,126196,1344
1783335496088180553,2026-07-06T17:58:16.088+07:00,540197072457635929,166487,125741,126223,1337
1783335496106362371,2026-07-06T17:58:16.106+07:00,540197072457635929,166484,125768,126208,1316
1783335496124544189,2026-07-06T17:58:16.124+07:00,540197073294567661,166532,125814,126229,1319
1783335496142726007,2026-07-06T17:58:16.142+07:00,540197073294567661,166536,125837,126241,1331
1783335496160907825,2026-07-06T17:58:16.160+07:00,540197073294567661,166606,125899,126281,1372
1783335496179089643,2026-07-06T17:58:16.179+07:00,540197073294567661,166584,125889,126290,1327
1783335496197271461,2026-07-06T17:58:16.197+07:00,540197073294567661,166679,125830,126306,1302
1783335496215453279,2026-07-06T17:58:16.215+07:00,540197073294567661,166647,125855,126337,1358
1783335496233635097,2026-07-06T17:58:16.233+07:00,540197073294567661,166717,125896,126321,1361
1783335496251816915,2026-07-06T17:58:16.251+07:00,540197073294567661,166656,125828,126297,1347
1783335496269998733,2026-07-06T17:58:16.269+07:00,540197073294567661,166603,125884,126310,1368
1783335496288180551,2026-07-06T17:58:16.288+07:00,540197073294567661,166536,125826,126265,1350
1783335496306362369,2026-07-06T17:58:16.306+07:00,540197073294567661,166487,125849,126202,1377
1783335496324544187,2026-07-06T17:58:16.324+07:00,540197073294567661,166428,125753,126161,1291
1783335496342726005,2026-07-06T17:58:16.342+07:00,540197073294567661,166302,125733,126061,1324
1783335496360907823,2026-07-06T17:58:16.360+07:00,540197073294567661,166239,125595,126010,1315
1783335496379089641,2026-07-06T17:58:16.379+07:00,540197073294567661,166142,125502,125973,1368
1783335496397271459,2026-07-06T17:58:16.397+07:00,540197073294567661,166031,125427,125882,1292
1783335496415453277,2026-07-06T17:58:16.415+07:00,540197073294567661,165989,125362,125785,1314
1783335496433635095,2026-07-06T17:58:16.433+07:00,540197073294567661,165957,125310,125802,1347
1783335496451816913,2026-07-06T17:58:16.451+07:00,540197073294567661,165847,125257,125745,1350
1783335496469998731,2026-07-06T17:58:16.469+07:00,540197073294567661,165788,125217,125690,1320
1783335496488180549,2026-07-06T17:58:16.488+07:00,540197073294567661,165721,125149,125635,1298
1783335496506362367,2026-07-06T17:58:16.506+07:00,540197073294567661,165691,125086,125586,1310
1783335496524544185,2026-07-06T17:58:16.524+07:00,540197073294567661,165570,125044,125478,1296
1783335496542726003,2026-07-06T17:58:16.542+07:00,540197073294567661,165459,125030,125466,1293
1783335496560907821,2026-07-06T17:58:16.560+07:00,540197073294567661,165415,124975,125475,1326
1783335496579089639,2026-07-06T17:58:16.579+07:00,540197073294567661,165442,125001,125514,1330
1783335496597271457,2026-07-06T17:58:16.597+07:00,540197073294567661,165458,124970,125394,1292
1783335496615453275,2026-07-06T17:58:16.615+07:00,540197073294567661,165432,124939,125412,1365
1783335496633635093,2026-07-06T17:58:16.633+07:00,540197073294567661,165358,124848,125399,1276
1783335496651816911,2026-07-06T17:58:16.651+07:00,540197073294567661,165311,124855,125322,1305
1783335496669998729,2026-07-06T17:58:16.669+07:00,540197073294567661,165297,124792,125291,1383
1783335496688180547,2026-07-06T17:58:16.688+07:00,540197073294567661,165278,124826,125360,1340
1783335496706362365,2026-07-06T17:58:16.706+07:00,540197073294567661,165263,124784,125278,1336
1783335496724544183,2026-07-06T17:58:16.724+07:00,540197073294567661,165226,124734,125250,1332
1783335496742726001,2026-07-06T17:58:16.742+07:00,540197073294567661,165237,124728,125257,1368
1783335496760907819,2026-07-06T17:58:16.760+07:00,540197073294567661,165180,124739,125252,1283
1783335496779089637,2026-07-06T17:58:16.779+07:00,540197073294567661,165183,124774,125232,1268
1783335496797271455,2026-07-06T17:58:16.797+07:00,540197073294567661,165188,124722,125280,1365
1783335496815453273,2026-07-06T17:58:16.815+07:00,540197073294567661,165134,124717,125229,1334
1783335496833635091,2026-07-06T17:58:16.833+07:00,540197073294567661,165141,124716,125232,1358
1783335496851816909,2026-07-06T17:58:16.851+07:00,540197073294567661,165132,124717,125240,1315
1783335496869998727,2026-07-06T17:58:16.869+07:00,540197073294567661,165153,124734,125262,1334
1783335496888180545,2026-07-06T17:58:16.888+07:00,540197073294567661,165071,124632,125232,1300
1783335496906362363,2026-07-06T17:58:16.906+07:00,540197073294567661,165071,124685,125269,1304
1783335496924544181,2026-07-06T17:58:16.924+07:00,540197073294567661,165123,124710,125297,1318
1783335496942725999,2026-07-06T17:58:16.942+07:00,540197073294567661,165180,124704,125312,1314
1783335496960907817,2026-07-06T17:58:16.960+07:00,540197074131531435,165137,124627,125261,1349
1783335496979089635,2026-07-06T17:58:16.979+07:00,540197074131531435,165168,124711,125349,1343
1783335496997271453,2026-07-06T17:58:16.997+07:00,540197074131531435,165097,124668,125268,1274
1783335497015453271,2026-07-06T17:58:17.015+07:00,540197074131531435,165175,124745,125335,1292
1783335497033635089,2026-07-06T17:58:17.033+07:00,540197074131531435,165161,124731,125365,1308
1783335497051816907,2026-07-06T17:58:17.051+07:00,540197074131531435,165184,124804,125314,1301
1783335497069998725,2026-07-06T17:58:17.069+07:00,540197074131531435,165189,124747,125345,1327
1783335497088180543,2026-07-06T17:58:17.088+07:00,540197074131531435,165165,124735,125272,1330
1783335497106362361,2026-07-06T17:58:17.106+07:00,540197074131531435,165195,124726,125368,1280
1783335497124544179,2026-07-06T17:58:17.124+07:00,540197074131531435,165248,124802,125365,1303
1783335497142725997,2026-07-06T17:58:17.142+07:00,540197074131531435,165171,124795,125369,1330
1783335497160907815,2026-07-06T17:58:17.160+07:00,540197074131531435,165265,124839,125449,1319
1783335497179089633,2026-07-06T17:58:17.179+07:00,540197074131531435,165210,124799,125379,1314
1783335497197271451,2026-07-06T17:58:17.197+07:00,540197074131531435,165196,124795,125379,1375
1783335497215453269,2026-07-06T17:58:17.215+07:00,540197074131531435,165059,124697,125259,1302
1783335497233635087,2026-07-06T17:58:17.233+07:00,540197074131531435,165019,124687,125217,1342
1783335497251816905,2026-07-06T17:58:17.251+07:00,540197074131531435,164870,124617,125121,1286
1783335497269998723,2026-07-06T17:58:17.269+07:00,540197074131531435,164801,124507,124979,1254
1783335497288180541,2026-07-06T17:58:17.288+07:00,540197074131531435,164706,124483,124928,1231
1783335497306362359,2026-07-06T17:58:17.306+07:00,540197074131531435,164665,124442,124922,1248
1783335497324544177,2026-07-06T17:58:17.324+07:00,540197074131531435,164662,124398,124916,1316
1783335497342725995,2026-07-06T17:58:17.342+07:00,540197074131531435,164540,124281,124772,1317
1783335497360907813,2026-07-06T17:58:17.360+07:00,540197074131531435,164462,124225,124721,1338
1783335497379089631,2026-07-06T17:58:17.379+07:00,540197074131531435,164389,124165,124746,1321
1783335497397271449,2026-07-06T17:58:17.397+07:00,540197074131531435,164340,124150,124670,1360
1783335497415453267,2026-07-06T17:58:17.415+07:00,540197074131531435,164292,124097,124658,1356
1783335497433635085,2026-07-06T17:58:17.433+07:00,540197074131531435,164224,124042,124600,1253
1783335497451816903,2026-07-06T17:58:17.451+07:00,540197074131531435,164236,124056,124582,1285
1783335497469998721,2026-07-06T17:58:17.469+07:00,540197074131531435,164137,123986,124553,1297
1783335497488180539,2026-07-06T17:58:17.488+07:00,540197074131531435,164159,123989,124569,1286
1783335497506362357,2026-07-06T17:58:17.506+07:00,540197074131531435,164138,123978,124573,1296
1783335497524544175,2026-07-06T17:58:17.524+07:00,540197074131531435,164118,123929,124513,1272
1783335497542725993,2026-07-06T17:58:17.542+07:00,540197074131531435,164093,123924,124558,1289
1783335497560907811,2026-07-06T17:58:17.560+07:00,540197074131531435,163998,123882,124484,1279
1783335497579089629,2026-07-06T17:58:17.579+07:00,540197074131531435,164004,123882,124472,1315
1783335497597271447,2026-07-06T17:58:17.597+07:00,540197074131531435,163949,123893,124460,1293
1783335497615453265,2026-07-06T17:58:17.615+07:00,540197074131531435,164012,123883,124464,1296
1783335497633635083,2026-07-06T17:58:17.633+07:00,540197074131531435,163970,123884,124472,1303
1783335497651816901,2026-07-06T17:58:17.651+07:00,540197074131531435,164014,123930,124449,1262
1783335497669998719,2026-07-06T17:58:17.669+07:00,540197074131531435,163927,123925,124451,1319
1783335497688180537,2026-07-06T17:58:17.688+07:00,540197074131531435,163943,123879,124484,1331
1783335497706362355,2026-07-06T17:58:17.706+07:00,540197074131531435,163961,123873,124494,1297
1783335497724544173,2026-07-06T17:58:17.724+07:00,540197074131531435,163922,123843,124450,1263
1783335497742725991,2026-07-06T17:58:17.742+07:00,540197074131531435,163942,123830,124472,1296
1783335497760907809,2026-07-06T17:58:17.760+07:00,540197074131531435,164001,123877,124511,1327
1783335497779089627,2026-07-06T17:58:17.779+07:00,540197074131531435,164006,123796,124508,1311
1783335497797271445,2026-07-06T17:58:17.797+07:00,540197074913971768,163998,123851,124567,1327
1783335497815453263,2026-07-06T17:58:17.815+07:00,540197074913971768,164032,123880,124573,1356
1783335497833635081,2026-07-06T17:58:17.833+07:00,540197074913971768,164006,123856,124490,1357
1783335497851816899,2026-07-06T17:58:17.851+07:00,540197074913971768,163951,123866,124541,1344
1783335497869998717,2026-07-06T17:58:17.869+07:00,540197074913971768,163970,123931,124552,1323
1783335497888180535,2026-07-06T17:58:17.888+07:00,540197074913971768,163998,123905,124613,1347
1783335497906362353,2026-07-06T17:58:17.906+07:00,540197074913971768,164011,123933,124615,1342
1783335497924544171,2026-07-06T17:58:17.924+07:00,540197074913971768,164079,123933,124594,1359
1783335497942725989,2026-07-06T17:58:17.942+07:00,540197074913971768,164080,123985,124624,1356
1783335497960907807,2026-07-06T17:58:17.960+07:00,540197074913971768,164078,123973,124649,1306
1783335497979089625,2026-07-06T17:58:17.979+07:00,540197074913971768,164117,123945,124633,1343
1783335497997271443,2026-07-06T17:58:17.997+07:00,540197074913971768,164165,124020,124634,1318
1783335498015453261,2026-07-06T17:58:18.015+07:00,540197074913971768,164136,124004,124641,1289
1783335498033635079,2026-07-06T17:58:18.033+07:00,540197074913971768,164204,124063,124710,1294
1783335498051816897,2026-07-06T17:58:18.051+07:00,540197074913971768,164251,124074,124713,1314
1783335498069998715,2026-07-06T17:58:18.069+07:00,540197074913971768,164221,124062,124705,1307
1783335498088180533,2026-07-06T17:58:18.088+07:00,540197074913971768,164195,124099,124719,1266
1783335498106362351,2026-07-06T17:58:18.106+07:00,540197074913971768,164209,124070,124762,1308
1783335498124544169,2026-07-06T17:58:18.124+07:00,540197074913971768,164141,124012,124664,1287
1783335498142725987,2026-07-06T17:58:18.142+07:00,540197074913971768,164068,123989,124703,1320
1783335498160907805,2026-07-06T17:58:18.160+07:00,540197074913971768,163974,123875,124560,1254
1783335498179089623,2026-07-06T17:58:18.179+07:00,540197074913971768,163909,123851,124535,1301
1783335498197271441,2026-07-06T17:58:18.197+07:00,540197074913971768,163936,123929,124568,1350
1783335498215453259,2026-07-06T17:58:18.215+07:00,540197074913971768,163916,123891,124507,1316
1783335498233635077,2026-07-06T17:58:18.233+07:00,540197074913971768,164010,123961,124533,1311
1783335498251816895,2026-07-06T17:58:18.251+07:00,540197074913971768,164011,124119,124550,1338
1783335498269998713,2026-07-06T17:58:18.269+07:00,540197074913971768,164101,124190,124624,1352
1783335498288180531,2026-07-06T17:58:18.288+07:00,540197074913971768,164098,124207,124636,1300
1783335498306362349,2026-07-06T17:58:18.306+07:00,540197074913971768,164156,124326,124654,1273
1783335498324544167,2026-07-06T17:58:18.324+07:00,540197074913971768,164146,124322,124715,1262
1783335498342725985,2026-07-06T17:58:18.342+07:00,540197074913971768,164204,124374,124763,1307
1783335498360907803,2026-07-06T17:58:18.360+07:00,540197074913971768,164175,124325,124838,1262
1783335498379089621,2026-07-06T17:58:18.379+07:00,540197074913971768,164213,124379,124951,1307
1783335498397271439,2026-07-06T17:58:18.397+07:00,540197074913971768,164184,124369,124960,1298
1783335498415453257,2026-07-06T17:58:18.415+07:00,540197074913971768,164179,124382,124966,1277
1783335498433635075,2026-07-06T17:58:18.433+07:00,540197074913971768,164235,124428,124995,1269
1783335498451816893,2026-07-06T17:58:18.451+07:00,540197074913971768,164188,124432,125001,1331
1783335498469998711,2026-07-06T17:58:18.469+07:00,540197074913971768,164147,124423,125023,1321
1783335498488180529,2026-07-06T17:58:18.488+07:00,540197074913971768,164118,124348,124908,1296
1783335498506362347,2026-07-06T17:58:18.506+07:00,540197074913971768,164009,124292,124874,1293
1783335498524544165,2026-07-06T17:58:18.524+07:00,540197074913971768,163954,124318,124908,1288
1783335498542725983,2026-07-06T17:58:18.542+07:00,540197074913971768,163907,124257,124905,1315
1783335498560907801,2026-07-06T17:58:18.560+07:00,540197074913971768,163853,124147,124822,1343
1783335498579089619,2026-07-06T17:58:18.579+07:00,540197075678188264,163736,124049,124792,1348
1783335498597271437,2026-07-06T17:58:18.597+07:00,540197075678188264,163606,123868,124665,1356
1783335498615453255,2026-07-06T17:58:18.615+07:00,540197075678188264,163568,123796,124649,1342
1783335498633635073,2026-07-06T17:58:18.633+07:00,540197075678188264,163505,123724,124596,1386
1783335498651816891,2026-07-06T17:58:18.651+07:00,540197075678188264,163442,123590,124451,1333
1783335498669998709,2026-07-06T17:58:18.669+07:00,540197075678188264,163380,123469,124394,1343
1783335498688180527,2026-07-06T17:58:18.688+07:00,540197075678188264,163319,123467,124311,1343
1783335498706362345,2026-07-06T17:58:18.706+07:00,540197075678188264,163343,123386,124335,1348
1783335498724544163,2026-07-06T17:58:18.724+07:00,540197075678188264,163327,123390,124329,1344
1783335498742725981,2026-07-06T17:58:18.742+07:00,540197075678188264,163228,123303,124310,1292
1783335498760907799,2026-07-06T17:58:18.760+07:00,540197075678188264,163263,123191,124195,1271
1783335498779089617,2026-07-06T17:58:18.779+07:00,540197075678188264,163297,123138,124236,1254
1783335498797271435,2026-07-06T17:58:18.797+07:00,540197075678188264,163365,123221,124272,1327
1783335498815453253,2026-07-06T17:58:18.815+07:00,540197075678188264,163370,123193,124295,1313
1783335498833635071,2026-07-06T17:58:18.833+07:00,540197075678188264,163532,123210,124331,1293
1783335498851816889,2026-07-06T17:58:18.851+07:00,540197075678188264,163627,123271,124426,1306
1783335498869998707,2026-07-06T17:58:18.869+07:00,540197075678188264,163743,123431,124465,1340
1783335498888180525,2026-07-06T17:58:18.888+07:00,540197075678188264,163891,123592,124534,1293
1783335498906362343,2026-07-06T17:58:18.906+07:00,540197075678188264,164030,123806,124655,1325
1783335498924544161,2026-07-06T17:58:18.924+07:00,540197075678188264,164204,124036,124898,1285
1783335498942725979,2026-07-06T17:58:18.942+07:00,540197075678188264,164422,124359,125086,1353
1783335498960907797,2026-07-06T17:58:18.960+07:00,540197075678188264,164555,124489,125177,1348
1783335498979089615,2026-07-06T17:58:18.979+07:00,540197075678188264,164769,124749,125353,1297
1783335498997271433,2026-07-06T17:58:18.997+07:00,540197075678188264,164918,124989,125487,1272
1783335499015453251,2026-07-06T17:58:19.015+07:00,540197075678188264,165090,125219,125585,1275
1783335499033635069,2026-07-06T17:58:19.033+07:00,540197075678188264,165273,125448,125591,1286
1783335499051816887,2026-07-06T17:58:19.051+07:00,540197075678188264,165307,125642,125562,1254
1783335499069998705,2026-07-06T17:58:19.069+07:00,540197075678188264,165413,125823,125565,1324
1783335499088180523,2026-07-06T17:58:19.088+07:00,540197075678188264,165477,126007,125479,1331
1783335499106362341,2026-07-06T17:58:19.106+07:00,540197075678188264,165703,126279,125473,1345
1783335499124544159,2026-07-06T17:58:19.124+07:00,540197075678188264,165730,126393,125422,1276
1783335499142725977,2026-07-06T17:58:19.142+07:00,540197075678188264,165820,126620,125432,1322
1783335499160907795,2026-07-06T17:58:19.160+07:00,540197075678188264,165970,126827,125478,1308
1783335499179089613,2026-07-06T17:58:19.179+07:00,540197075678188264,165938,126897,125366,1294
1783335499197271431,2026-07-06T17:58:19.197+07:00,540197075678188264,166012,126974,125296,1298
1783335499215453249,2026-07-06T17:58:19.215+07:00,540197075678188264,165953,126928,125268,1360
1783335499233635067,2026-07-06T17:58:19.233+07:00,540197075678188264,165773,126732,125165,1308
1783335499251816885,2026-07-06T17:58:19.251+07:00,540197075678188264,165555,126468,125039,1336
1783335499269998703,2026-07-06T17:58:19.269+07:00,540197075678188264,165318,126298,124921,1325
1783335499288180521,2026-07-06T17:58:19.288+07:00,540197075678188264,165021,125932,124771,1283
1783335499306362339,2026-07-06T17:58:19.306+07:00,540197075678188264,164662,125714,124669,1319
1783335499324544157,2026-07-06T17:58:19.324+07:00,540197075678188264,164369,125466,124576,1318
1783335499342725975,2026-07-06T17:58:19.342+07:00,540197076460620953,164168,125178,124432,1327
1783335499360907793,2026-07-06T17:58:19.360+07:00,540197076460620953,163955,124888,124281,1327
1783335499379089611,2026-07-06T17:58:19.379+07:00,540197076460620953,163716,124713,124148,1321
1783335499397271429,2026-07-06T17:58:19.397+07:00,540197076460620953,163511,124498,124058,1318
1783335499415453247,2026-07-06T17:58:19.415+07:00,540197076460620953,163346,124360,124038,1323
1783335499433635065,2026-07-06T17:58:19.433+07:00,540197076460620953,163335,124290,124016,1305
1783335499451816883,2026-07-06T17:58:19.451+07:00,540197076460620953,163200,124131,123926,1354
1783335499469998701,2026-07-06T17:58:19.469+07:00,540197076460620953,163063,123944,123877,1303
1783335499488180519,2026-07-06T17:58:19.488+07:00,540197076460620953,163019,123939,123842,1320
1783335499506362337,2026-07-06T17:58:19.506+07:00,540197076460620953,162976,123791,123847,1379
1783335499524544155,2026-07-06T17:58:19.524+07:00,540197076460620953,162866,123722,123760,1306
1783335499542725973,2026-07-06T17:58:19.542+07:00,540197076460620953,162797,123674,123740,1262
1783335499560907791,2026-07-06T17:58:19.560+07:00,540197076460620953,162781,123570,123698,1342
1783335499579089609,2026-07-06T17:58:19.579+07:00,540197076460620953,162736,123494,123662,1313
1783335499597271427,2026-07-06T17:58:19.597+07:00,540197076460620953,162661,123440,123666,1300
1783335499615453245,2026-07-06T17:58:19.615+07:00,540197076460620953,162653,123442,123740,1307
1783335499633635063,2026-07-06T17:58:19.633+07:00,540197076460620953,162563,123289,123623,1265
1783335499651816881,2026-07-06T17:58:19.651+07:00,540197076460620953,162547,123287,123686,1386
1783335499669998699,2026-07-06T17:58:19.669+07:00,540197076460620953,162517,123204,123608,1360
1783335499688180517,2026-07-06T17:58:19.688+07:00,540197076460620953,162458,123077,123623,1260
1783335499706362335,2026-07-06T17:58:19.706+07:00,540197076460620953,162425,123092,123620,1296
1783335499724544153,2026-07-06T17:58:19.724+07:00,540197076460620953,162442,123092,123660,1321
1783335499742725971,2026-07-06T17:58:19.742+07:00,540197076460620953,162415,123089,123651,1313
1783335499760907789,2026-07-06T17:58:19.760+07:00,540197076460620953,162375,123009,123610,1328
1783335499779089607,2026-07-06T17:58:19.779+07:00,540197076460620953,162388,123006,123595,1323
1783335499797271425,2026-07-06T17:58:19.797+07:00,540197076460620953,162391,123025,123626,1350
1783335499815453243,2026-07-06T17:58:19.815+07:00,540197076460620953,162327,122897,123638,1255
1783335499833635061,2026-07-06T17:58:19.833+07:00,540197076460620953,162327,122868,123645,1265
1783335499851816879,2026-07-06T17:58:19.851+07:00,540197076460620953,162320,122813,123610,1296
1783335499869998697,2026-07-06T17:58:19.869+07:00,540197076460620953,162353,122840,123697,1354
1783335499888180515,2026-07-06T17:58:19.888+07:00,540197076460620953,162256,122769,123631,1308
1783335499906362333,2026-07-06T17:58:19.906+07:00,540197076460620953,162232,122683,123601,1311
1783335499924544151,2026-07-06T17:58:19.924+07:00,540197076460620953,162153,122654,123620,1314
1783335499942725969,2026-07-06T17:58:19.942+07:00,540197076460620953,162073,122567,123561,1305
1783335499960907787,2026-07-06T17:58:19.960+07:00,540197076460620953,162046,122491,123553,1315
1783335499979089605,2026-07-06T17:58:19.979+07:00,540197076460620953,162010,122458,123507,1335
1783335499997271423,2026-07-06T17:58:19.997+07:00,540197076460620953,162035,122370,123467,1358
1783335500015453241,2026-07-06T17:58:20.015+07:00,540197076460620953,162022,122385,123493,1319
1783335500033635059,2026-07-06T17:58:20.033+07:00,540197076460620953,161985,122360,123499,1306
1783335500051816877,2026-07-06T17:58:20.051+07:00,540197076460620953,161910,122293,123472,1302
1783335500069998695,2026-07-06T17:58:20.069+07:00,540197076460620953,161892,122226,123454,1294
1783335500088180513,2026-07-06T17:58:20.088+07:00,540197076460620953,161900,122173,123456,1264
1783335500106362331,2026-07-06T17:58:20.106+07:00,540197076460620953,161927,122202,123467,1272
1783335500124544149,2026-07-06T17:58:20.124+07:00,540197077206609048,161997,122206,123549,1340
1783335500142725967,2026-07-06T17:58:20.142+07:00,540197077206609048,161966,122191,123552,1298
1783335500160907785,2026-07-06T17:58:20.160+07:00,540197077206609048,161927,122204,123590,1247
1783335500179089603,2026-07-06T17:58:20.179+07:00,540197077206609048,162018,122194,123604,1319
1783335500197271421,2026-07-06T17:58:20.197+07:00,540197077206609048,161987,122121,123574,1322
1783335500215453239,2026-07-06T17:58:20.215+07:00,540197077206609048,161999,122186,123598,1302
1783335500233635057,2026-07-06T17:58:20.233+07:00,540197077206609048,161942,122144,123523,1289
1783335500251816875,2026-07-06T17:58:20.251+07:00,540197077206609048,162044,122178,123559,1315
1783335500269998693,2026-07-06T17:58:20.269+07:00,540197077206609048,162043,122142,123620,1260
1783335500288180511,2026-07-06T17:58:20.288+07:00,540197077206609048,162066,122182,123603,1339
1783335500306362329,2026-07-06T17:58:20.306+07:00,540197077206609048,162131,122161,123635,1289
1783335500324544147,2026-07-06T17:58:20.324+07:00,540197077206609048,162196,122172,123690,1282
1783335500342725965,2026-07-06T17:58:20.342+07:00,540197077206609048,162252,122206,123751,1315
1783335500360907783,2026-07-06T17:58:20.360+07:00,540197077206609048,162226,122185,123721,1330
1783335500379089601,2026-07-06T17:58:20.379+07:00,540197077206609048,162288,122190,123764,1314
1783335500397271419,2026-07-06T17:58:20.397+07:00,540197077206609048,162364,122327,123851,1371
1783335500415453237,2026-07-06T17:58:20.415+07:00,540197077206609048,162443,122309,123865,1355
1783335500433635055,2026-07-06T17:58:20.433+07:00,540197077206609048,162514,122351,123950,1366
1783335500451816873,2026-07-06T17:58:20.451+07:00,540197077206609048,162598,122501,123942,1340
1783335500469998691,2026-07-06T17:58:20.469+07:00,540197077206609048,162699,122536,124030,1382
1783335500488180509,2026-07-06T17:58:20.488+07:00,540197077206609048,162761,122670,124121,1358
1783335500506362327,2026-07-06T17:58:20.506+07:00,540197077206609048,162922,122787,124178,1322
1783335500524544145,2026-07-06T17:58:20.524+07:00,540197077206609048,162934,122899,124160,1267
1783335500542725963,2026-07-06T17:58:20.542+07:00,540197077206609048,163148,123065,124327,1267
1783335500560907781,2026-07-06T17:58:20.560+07:00,540197077206609048,163334,123278,124365,1311
1783335500579089599,2026-07-06T17:58:20.579+07:00,540197077206609048,163531,123437,124482,1280
1783335500597271417,2026-07-06T17:58:20.597+07:00,540197077206609048,163729,123577,124699,1353
1783335500615453235,2026-07-06T17:58:20.615+07:00,540197077206609048,163873,123700,124823,1296
1783335500633635053,2026-07-06T17:58:20.633+07:00,540197077206609048,164042,123748,124890,1358
1783335500651816871,2026-07-06T17:58:20.651+07:00,540197077206609048,164141,123785,124976,1245
1783335500669998689,2026-07-06T17:58:20.669+07:00,540197077206609048,164273,123910,125076,1299
1783335500688180507,2026-07-06T17:58:20.688+07:00,540197077206609048,164383,123938,125185,1286
1783335500706362325,2026-07-06T17:58:20.706+07:00,540197077206609048,164675,124067,125383,1285
1783335500724544143,2026-07-06T17:58:20.724+07:00,540197077206609048,164962,124244,125566,1319
1783335500742725961,2026-07-06T17:58:20.742+07:00,540197077206609048,165328,124573,125838,1365
1783335500760907779,2026-07-06T17:58:20.760+07:00,540197077206609048,165823,125035,126255,1362
1783335500779089597,2026-07-06T17:58:20.779+07:00,540197077206609048,166363,125512,126743,1293
1783335500797271415,2026-07-06T17:58:20.797+07:00,540197077206609048,167159,126109,127417,1298
1783335500815453233,2026-07-06T17:58:20.815+07:00,540197077206609048,167961,126798,128181,1289
1783335500833635051,2026-07-06T17:58:20.833+07:00,540197077206609048,168837,127517,128998,1256
1783335500851816869,2026-07-06T17:58:20.851+07:00,540197077206609048,169783,128298,129717,1265
1783335500869998687,2026-07-06T17:58:20.869+07:00,540197077916248681,170662,129032,130411,1269
1783335500888180505,2026-07-06T17:58:20.888+07:00,540197077916248681,171450,129577,131034,1260
1783335500906362323,2026-07-06T17:58:20.906+07:00,540197077916248681,172116,130110,131537,1336
1783335500924544141,2026-07-06T17:58:20.924+07:00,540197077916248681,172568,130514,131970,1294
1783335500942725959,2026-07-06T17:58:20.942+07:00,540197077916248681,172929,130915,132332,1265
1783335500960907777,2026-07-06T17:58:20.960+07:00,540197077916248681,173276,131211,132595,1306
1783335500979089595,2026-07-06T17:58:20.979+07:00,540197077916248681,173500,131547,132923,1266
1783335500997271413,2026-07-06T17:58:20.997+07:00,540197077916248681,173785,131793,133155,1310
1783335501015453231,2026-07-06T17:58:21.015+07:00,540197077916248681,174063,132046,133405,1308
1783335501033635049,2026-07-06T17:58:21.033+07:00,540197077916248681,174357,132207,133663,1307
1783335501051816867,2026-07-06T17:58:21.051+07:00,540197077916248681,174562,132434,133876,1286
1783335501069998685,2026-07-06T17:58:21.069+07:00,540197077916248681,174800,132577,134134,1292
1783335501088180503,2026-07-06T17:58:21.088+07:00,540197077916248681,175011,132734,134354,1259
1783335501106362321,2026-07-06T17:58:21.106+07:00,540197077916248681,175184,132888,134507,1315
1783335501124544139,2026-07-06T17:58:21.124+07:00,540197077916248681,175426,133047,134693,1293
1783335501142725957,2026-07-06T17:58:21.142+07:00,540197077916248681,175596,133107,134862,1272
1783335501160907775,2026-07-06T17:58:21.160+07:00,540197077916248681,175813,133261,135058,1251
1783335501179089593,2026-07-06T17:58:21.179+07:00,540197077916248681,175968,133425,135161,1264
1783335501197271411,2026-07-06T17:58:21.197+07:00,540197077916248681,176109,133591,135353,1285
1783335501215453229,2026-07-06T17:58:21.215+07:00,540197077916248681,176279,133677,135437,1297
1783335501233635047,2026-07-06T17:58:21.233+07:00,540197077916248681,176373,133766,135589,1289
1783335501251816865,2026-07-06T17:58:21.251+07:00,540197077916248681,176601,133927,135801,1297
1783335501269998683,2026-07-06T17:58:21.269+07:00,540197077916248681,176759,134057,135922,1298
1783335501288180501,2026-07-06T17:58:21.288+07:00,540197077916248681,176915,134201,136095,1276
1783335501306362319,2026-07-06T17:58:21.306+07:00,540197077916248681,177025,134328,136190,1277
1783335501324544137,2026-07-06T17:58:21.324+07:00,540197077916248681,177145,134392,136334,1294
1783335501342725955,2026-07-06T17:58:21.342+07:00,540197077916248681,177298,134500,136486,1266
1783335501360907773,2026-07-06T17:58:21.360+07:00,540197077916248681,177504,134676,136699,1315
1783335501379089591,2026-07-06T17:58:21.379+07:00,540197077916248681,177570,134734,136779,1263
1783335501397271409,2026-07-06T17:58:21.397+07:00,540197077916248681,177692,134918,137014,1385
1783335501415453227,2026-07-06T17:58:21.415+07:00,540197077916248681,177755,135070,137114,1302
1783335501433635045,2026-07-06T17:58:21.433+07:00,540197077916248681,177834,135288,137279,1321
1783335501451816863,2026-07-06T17:58:21.451+07:00,540197077916248681,177883,135512,137459,1344
1783335501469998681,2026-07-06T17:58:21.469+07:00,540197077916248681,177656,135763,137544,1309
1783335501488180499,2026-07-06T17:58:21.488+07:00,540197077916248681,177290,135856,137694,1401
1783335501506362317,2026-07-06T17:58:21.506+07:00,540197077916248681,176923,135972,137737,1407
1783335501524544135,2026-07-06T17:58:21.524+07:00,540197077916248681,176667,135948,137789,1343
1783335501542725953,2026-07-06T17:58:21.542+07:00,540197077916248681,176601,136029,137787,1384
1783335501560907771,2026-07-06T17:58:21.560+07:00,540197077916248681,176546,136139,137858,1366
1783335501579089589,2026-07-06T17:58:21.579+07:00,540197078680509429,176650,136259,137945,1345
1783335501597271407,2026-07-06T17:58:21.597+07:00,540197078680509429,176666,136351,138030,1269
1783335501615453225,2026-07-06T17:58:21.615+07:00,540197078680509429,176768,136497,138152,1348
1783335501633635043,2026-07-06T17:58:21.633+07:00,540197078680509429,176939,136559,138193,1291
1783335501651816861,2026-07-06T17:58:21.651+07:00,540197078680509429,177060,136758,138326,1352
1783335501669998679,2026-07-06T17:58:21.669+07:00,540197078680509429,177257,136996,138453,1350
1783335501688180497,2026-07-06T17:58:21.688+07:00,540197078680509429,177391,137055,138534,1332
1783335501706362315,2026-07-06T17:58:21.706+07:00,540197078680509429,177508,137196,138645,1338
1783335501724544133,2026-07-06T17:58:21.724+07:00,540197078680509429,177495,137299,138737,1313
1783335501742725951,2026-07-06T17:58:21.742+07:00,540197078680509429,177595,137391,138822,1359
1783335501760907769,2026-07-06T17:58:21.760+07:00,540197078680509429,177603,137415,138878,1336
1783335501779089587,2026-07-06T17:58:21.779+07:00,540197078680509429,177686,137443,138909,1355
1783335501797271405,2026-07-06T17:58:21.797+07:00,540197078680509429,177758,137578,139033,1406
1783335501815453223,2026-07-06T17:58:21.815+07:00,540197078680509429,177821,137560,139054,1362
1783335501833635041,2026-07-06T17:58:21.833+07:00,540197078680509429,177863,137624,139086,1308
1783335501851816859,2026-07-06T17:58:21.851+07:00,540197078680509429,177826,137641,139151,1358
1783335501869998677,2026-07-06T17:58:21.869+07:00,540197078680509429,177664,137705,139163,1309
1783335501888180495,2026-07-06T17:58:21.888+07:00,540197078680509429,177504,137629,139199,1298
1783335501906362313,2026-07-06T17:58:21.906+07:00,540197078680509429,177250,137535,139207,1358
1783335501924544131,2026-07-06T17:58:21.924+07:00,540197078680509429,176895,137344,139180,1303
1783335501942725949,2026-07-06T17:58:21.942+07:00,540197078680509429,176523,137210,139216,1373
1783335501960907767,2026-07-06T17:58:21.960+07:00,540197078680509429,176155,136885,139125,1379
1783335501979089585,2026-07-06T17:58:21.979+07:00,540197078680509429,175788,136545,139047,1320
1783335501997271403,2026-07-06T17:58:21.997+07:00,540197078680509429,175627,136312,138930,1320
1783335502015453221,2026-07-06T17:58:22.015+07:00,540197078680509429,175514,136068,138777,1304
1783335502033635039,2026-07-06T17:58:22.033+07:00,540197078680509429,175383,135872,138650,1296
1783335502051816857,2026-07-06T17:58:22.051+07:00,540197078680509429,175309,135726,138567,1302
1783335502069998675,2026-07-06T17:58:22.069+07:00,540197078680509429,175258,135617,138426,1403
1783335502088180493,2026-07-06T17:58:22.088+07:00,540197078680509429,175166,135528,138276,1357
1783335502106362311,2026-07-06T17:58:22.106+07:00,540197078680509429,175127,135493,138170,1399
1783335502124544129,2026-07-06T17:58:22.124+07:00,540197078680509429,175090,135377,138007,1350
1783335502142725947,2026-07-06T17:58:22.142+07:00,540197078680509429,175065,135425,137940,1319
1783335502160907765,2026-07-06T17:58:22.160+07:00,540197078680509429,175048,135497,137965,1307
1783335502179089583,2026-07-06T17:58:22.179+07:00,540197078680509429,174984,135562,137878,1246
1783335502197271401,2026-07-06T17:58:22.197+07:00,540197078680509429,175059,135593,137907,1290
1783335502215453219,2026-07-06T17:58:22.215+07:00,540197078680509429,175091,135596,137883,1358
1783335502233635037,2026-07-06T17:58:22.233+07:00,540197078680509429,174996,135619,137779,1318
1783335502251816855,2026-07-06T17:58:22.251+07:00,540197078680509429,174989,135588,137801,1345
1783335502269998673,2026-07-06T17:58:22.269+07:00,540197078680509429,174952,135539,137742,1359
1783335502288180491,2026-07-06T17:58:22.288+07:00,540197078680509429,174814,135519,137692,1300
1783335502306362309,2026-07-06T17:58:22.306+07:00,540197078680509429,174810,135484,137645,1361
1783335502324544127,2026-07-06T17:58:22.324+07:00,540197078680509429,174679,135326,137503,1291
1783335502342725945,2026-07-06T17:58:22.342+07:00,540197079444790013,174663,135281,137414,1401
1783335502360907763,2026-07-06T17:58:22.360+07:00,540197079444790013,174549,135043,137192,1369
1783335502379089581,2026-07-06T17:58:22.379+07:00,540197079444790013,174461,134856,136950,1335
1783335502397271399,2026-07-06T17:58:22.397+07:00,540197079444790013,174444,134714,136710,1368
1783335502415453217,2026-07-06T17:58:22.415+07:00,540197079444790013,174456,134573,136468,1400
1783335502433635035,2026-07-06T17:58:22.433+07:00,540197079444790013,174409,134411,136063,1292
1783335502451816853,2026-07-06T17:58:22.451+07:00,540197079444790013,174410,134340,135785,1351
1783335502469998671,2026-07-06T17:58:22.469+07:00,540197079444790013,174382,134210,135437,1353
1783335502488180489,2026-07-06T17:58:22.488+07:00,540197079444790013,174408,134164,135223,1376
1783335502506362307,2026-07-06T17:58:22.506+07:00,540197079444790013,174311,134123,134973,1317
1783335502524544125,2026-07-06T17:58:22.524+07:00,540197079444790013,174369,134190,134872,1294
1783335502542725943,2026-07-06T17:58:22.542+07:00,540197079444790013,174431,134307,134827,1294
1783335502560907761,2026-07-06T17:58:22.560+07:00,540197079444790013,174530,134391,134803,1315
1783335502579089579,2026-07-06T17:58:22.579+07:00,540197079444790013,174522,134362,134760,1293
1783335502597271397,2026-07-06T17:58:22.597+07:00,540197079444790013,174536,134341,134627,1273
1783335502615453215,2026-07-06T17:58:22.615+07:00,540197079444790013,174544,134255,134406,1324
1783335502633635033,2026-07-06T17:58:22.633+07:00,540197079444790013,174572,134244,134175,1317
1783335502651816851,2026-07-06T17:58:22.651+07:00,540197079444790013,174420,134180,133960,1242
1783335502669998669,2026-07-06T17:58:22.669+07:00,540197079444790013,174490,134150,133787,1292
1783335502688180487,2026-07-06T17:58:22.688+07:00,540197079444790013,174430,134073,133627,1267
1783335502706362305,2026-07-06T17:58:22.706+07:00,540197079444790013,174420,133959,133460,1334
1783335502724544123,2026-07-06T17:58:22.724+07:00,540197079444790013,174348,133832,133235,1318
1783335502742725941,2026-07-06T17:58:22.742+07:00,540197079444790013,174373,133789,133081,1335
1783335502760907759,2026-07-06T17:58:22.760+07:00,540197079444790013,174391,133774,133032,1246
1783335502779089577,2026-07-06T17:58:22.779+07:00,540197079444790013,174502,133827,133011,1317
1783335502797271395,2026-07-06T17:58:22.797+07:00,540197079444790013,174537,133868,133125,1257
1783335502815453213,2026-07-06T17:58:22.815+07:00,540197079444790013,174687,134050,133200,1272
1783335502833635031,2026-07-06T17:58:22.833+07:00,540197079444790013,174811,134151,133312,1267
1783335502851816849,2026-07-06T17:58:22.851+07:00,540197079444790013,174968,134232,133504,1303
1783335502869998667,2026-07-06T17:58:22.869+07:00,540197079444790013,175039,134376,133659,1243
1783335502888180485,2026-07-06T17:58:22.888+07:00,540197079444790013,175184,134457,133868,1316
1783335502906362303,2026-07-06T17:58:22.906+07:00,540197079444790013,175269,134518,134074,1250
1783335502924544121,2026-07-06T17:58:22.924+07:00,540197079444790013,175389,134619,134298,1292
1783335502942725939,2026-07-06T17:58:22.942+07:00,540197079444790013,175507,134698,134534,1325
1783335502960907757,2026-07-06T17:58:22.960+07:00,540197079444790013,175688,134855,134771,1350
1783335502979089575,2026-07-06T17:58:22.979+07:00,540197079444790013,175840,134948,134986,1286
1783335502997271393,2026-07-06T17:58:22.997+07:00,540197079444790013,175910,135084,135243,1301
1783335503015453211,2026-07-06T17:58:23.015+07:00,540197079444790013,176131,135325,135545,1323
1783335503033635029,2026-07-06T17:58:23.033+07:00,540197079444790013,176287,135460,135806,1338
1783335503051816847,2026-07-06T17:58:23.051+07:00,540197079444790013,176380,135584,136028,1325
1783335503069998665,2026-07-06T17:58:23.069+07:00,540197079444790013,176469,135726,136282,1299
1783335503088180483,2026-07-06T17:58:23.088+07:00,540197079444790013,176667,135845,136600,1394
1783335503106362301,2026-07-06T17:58:23.106+07:00,540197080209030921,176745,135944,136822,1355
1783335503124544119,2026-07-06T17:58:23.124+07:00,540197080209030921,176852,136061,137039,1273
1783335503142725937,2026-07-06T17:58:23.142+07:00,540197080209030921,176916,136143,137234,1310
1783335503160907755,2026-07-06T17:58:23.160+07:00,540197080209030921,176985,136212,137298,1326
1783335503179089573,2026-07-06T17:58:23.179+07:00,540197080209030921,177000,136193,137411,1317
1783335503197271391,2026-07-06T17:58:23.197+07:00,540197080209030921,176994,136204,137423,1341
1783335503215453209,2026-07-06T17:58:23.215+07:00,540197080209030921,176916,136111,137372,1287
1783335503233635027,2026-07-06T17:58:23.233+07:00,540197080209030921,176827,135961,137193,1275
1783335503251816845,2026-07-06T17:58:23.251+07:00,540197080209030921,176739,135852,137071,1266
1783335503269998663,2026-07-06T17:58:23.269+07:00,540197080209030921,176678,135718,136856,1298
1783335503288180481,2026-07-06T17:58:23.288+07:00,540197080209030921,176553,135569,136699,1293
1783335503306362299,2026-07-06T17:58:23.306+07:00,540197080209030921,176540,135559,136561,1282
1783335503324544117,2026-07-06T17:58:23.324+07:00,540197080209030921,176411,135489,136370,1345
1783335503342725935,2026-07-06T17:58:23.342+07:00,540197080209030921,176358,135385,136213,1317
1783335503360907753,2026-07-06T17:58:23.360+07:00,540197080209030921,176301,135334,135985,1318
1783335503379089571,2026-07-06T17:58:23.379+07:00,540197080209030921,176194,135224,135783,1289
1783335503397271389,2026-07-06T17:58:23.397+07:00,540197080209030921,176089,135124,135483,1287
1783335503415453207,2026-07-06T17:58:23.415+07:00,540197080209030921,176018,135078,135396,1287
1783335503433635025,2026-07-06T17:58:23.433+07:00,540197080209030921,175949,135070,135295,1246
1783335503451816843,2026-07-06T17:58:23.451+07:00,540197080209030921,175895,135032,135205,1304
1783335503469998661,2026-07-06T17:58:23.469+07:00,540197080209030921,175858,134999,135157,1316
1783335503488180479,2026-07-06T17:58:23.488+07:00,540197080209030921,175851,135052,135121,1335
1783335503506362297,2026-07-06T17:58:23.506+07:00,540197080209030921,175838,135026,135097,1327
1783335503524544115,2026-07-06T17:58:23.524+07:00,540197080209030921,175839,135027,135104,1353
1783335503542725933,2026-07-06T17:58:23.542+07:00,540197080209030921,175821,135043,135193,1340
1783335503560907751,2026-07-06T17:58:23.560+07:00,540197080209030921,175899,135078,135144,1337
1783335503579089569,2026-07-06T17:58:23.579+07:00,540197080209030921,175847,135036,135212,1362
1783335503597271387,2026-07-06T17:58:23.597+07:00,540197080209030921,175852,134989,135241,1331
1783335503615453205,2026-07-06T17:58:23.615+07:00,540197080209030921,175783,135007,135302,1297
1783335503633635023,2026-07-06T17:58:23.633+07:00,540197080209030921,175756,134990,135263,1293
1783335503651816841,2026-07-06T17:58:23.651+07:00,540197080209030921,175644,134919,135178,1283
1783335503669998659,2026-07-06T17:58:23.669+07:00,540197080209030921,175608,134864,135228,1331
1783335503688180477,2026-07-06T17:58:23.688+07:00,540197080209030921,175475,134745,135081,1347
1783335503706362295,2026-07-06T17:58:23.706+07:00,540197080209030921,175329,134654,134985,1281
1783335503724544113,2026-07-06T17:58:23.724+07:00,540197080209030921,175361,134556,134859,1271
1783335503742725931,2026-07-06T17:58:23.742+07:00,540197080209030921,175289,134540,134829,1297
1783335503760907749,2026-07-06T17:58:23.760+07:00,540197080209030921,175289,134491,134777,1337
1783335503779089567,2026-07-06T17:58:23.779+07:00,540197080209030921,175292,134422,134705,1330
1783335503797271385,2026-07-06T17:58:23.797+07:00,540197080209030921,175302,134420,134578,1332
1783335503815453203,2026-07-06T17:58:23.815+07:00,540197080209030921,175219,134376,134547,1351
1783335503833635021,2026-07-06T17:58:23.833+07:00,540197080209030921,175187,134353,134534,1305
1783335503851816839,2026-07-06T17:58:23.851+07:00,540197080209030921,175171,134380,134492,1335
1783335503869998657,2026-07-06T17:58:23.869+07:00,540197081064249050,175154,134266,134431,1256
1783335503888180475,2026-07-06T17:58:23.888+07:00,540197081064249050,175088,134288,134431,1328
1783335503906362293,2026-07-06T17:58:23.906+07:00,540197081064249050,175210,134342,134478,1361
1783335503924544111,2026-07-06T17:58:23.924+07:00,540197081064249050,175126,134294,134404,1297
1783335503942725929,2026-07-06T17:58:23.942+07:00,540197081064249050,175080,134250,134384,1317
1783335503960907747,2026-07-06T17:58:23.960+07:00,540197081064249050,175142,134274,134428,1331
1783335503979089565,2026-07-06T17:58:23.979+07:00,540197081064249050,175083,134278,134406,1339
1783335503997271383,2026-07-06T17:58:23.997+07:00,540197081064249050,175095,134227,134304,1288
1783335504015453201,2026-07-06T17:58:24.015+07:00,540197081064249050,175084,134278,134379,1326
1783335504033635019,2026-07-06T17:58:24.033+07:00,540197081064249050,175063,134287,134361,1350
1783335504051816837,2026-07-06T17:58:24.051+07:00,540197081064249050,175109,134295,134354,1324
1783335504069998655,2026-07-06T17:58:24.069+07:00,540197081064249050,175005,134214,134272,1281
1783335504088180473,2026-07-06T17:58:24.088+07:00,540197081064249050,175025,134238,134279,1359
1783335504106362291,2026-07-06T17:58:24.106+07:00,540197081064249050,175001,134173,134266,1313
1783335504124544109,2026-07-06T17:58:24.124+07:00,540197081064249050,174987,134158,134283,1283
1783335504142725927,2026-07-06T17:58:24.142+07:00,540197081064249050,175000,134187,134282,1320
1783335504160907745,2026-07-06T17:58:24.160+07:00,540197081064249050,174947,134248,134252,1306
1783335504179089563,2026-07-06T17:58:24.179+07:00,540197081064249050,174958,134220,134256,1286
1783335504197271381,2026-07-06T17:58:24.197+07:00,540197081064249050,174883,134155,134238,1272
1783335504215453199,2026-07-06T17:58:24.215+07:00,540197081064249050,174931,134231,134283,1324
1783335504233635017,2026-07-06T17:58:24.233+07:00,540197081064249050,174903,134179,134240,1280
1783335504251816835,2026-07-06T17:58:24.251+07:00,540197081064249050,174898,134155,134266,1302
1783335504269998653,2026-07-06T17:58:24.269+07:00,540197081064249050,174810,134111,134126,1290
1783335504288180471,2026-07-06T17:58:24.288+07:00,540197081064249050,174908,134135,134241,1322
1783335504306362289,2026-07-06T17:58:24.306+07:00,540197081064249050,174880,134118,134162,1286
1783335504324544107,2026-07-06T17:58:24.324+07:00,540197081064249050,174919,134168,134254,1319
1783335504342725925,2026-07-06T17:58:24.342+07:00,540197081064249050,174913,134214,134248,1263
1783335504360907743,2026-07-06T17:58:24.360+07:00,540197081064249050,174871,134202,134187,1314
1783335504379089561,2026-07-06T17:58:24.379+07:00,540197081064249050,174900,134157,134157,1308
1783335504397271379,2026-07-06T17:58:24.397+07:00,540197081064249050,174833,134163,134162,1311
1783335504415453197,2026-07-06T17:58:24.415+07:00,540197081064249050,174919,134228,134203,1285
1783335504433635015,2026-07-06T17:58:24.433+07:00,540197081064249050,174933,134221,134207,1372
1783335504451816833,2026-07-06T17:58:24.451+07:00,540197081064249050,174909,134205,134150,1308
1783335504469998651,2026-07-06T17:58:24.469+07:00,540197081064249050,174912,134269,134208,1304
1783335504488180469,2026-07-06T17:58:24.488+07:00,540197081064249050,174970,134271,134269,1327
1783335504506362287,2026-07-06T17:58:24.506+07:00,540197081064249050,174917,134234,134243,1335
1783335504524544105,2026-07-06T17:58:24.524+07:00,540197081064249050,174833,134191,134172,1262
1783335504542725923,2026-07-06T17:58:24.542+07:00,540197081064249050,174746,134226,134103,1274
1783335504560907741,2026-07-06T17:58:24.560+07:00,540197081064249050,174690,134147,134026,1307
1783335504579089559,2026-07-06T17:58:24.579+07:00,540197081064249050,174637,134117,134047,1280
1783335504597271377,2026-07-06T17:58:24.597+07:00,540197081064249050,174602,134032,133966,1313
1783335504615453195,2026-07-06T17:58:24.615+07:00,540197081064249050,174512,133972,133866,1318
1783335504633635013,2026-07-06T17:58:24.633+07:00,540197081064249050,174508,133992,133909,1305
1783335504651816831,2026-07-06T17:58:24.651+07:00,540197081064249050,174530,133953,133875,1343
1783335504669998649,2026-07-06T17:58:24.669+07:00,540197081064249050,174459,133869,133802,1339
1783335504688180467,2026-07-06T17:58:24.688+07:00,540197081064249050,174384,133864,133799,1233
1783335504706362285,2026-07-06T17:58:24.706+07:00,540197081064249050,174400,133907,133758,1321
1783335504724544103,2026-07-06T17:58:24.724+07:00,540197081846692421,174398,133887,133767,1289
1783335504742725921,2026-07-06T17:58:24.742+07:00,540197081846692421,174352,133742,133729,1283
1783335504760907739,2026-07-06T17:58:24.760+07:00,540197081846692421,174303,133793,133743,1225
1783335504779089557,2026-07-06T17:58:24.779+07:00,540197081846692421,174325,133749,133720,1277
1783335504797271375,2026-07-06T17:58:24.797+07:00,540197081846692421,174318,133773,133726,1332
1783335504815453193,2026-07-06T17:58:24.815+07:00,540197081846692421,174261,133795,133733,1315
1783335504833635011,2026-07-06T17:58:24.833+07:00,540197081846692421,174168,133749,133695,1324
1783335504851816829,2026-07-06T17:58:24.851+07:00,540197081846692421,174152,133705,133728,1301
1783335504869998647,2026-07-06T17:58:24.869+07:00,540197081846692421,174101,133661,133713,1277
1783335504888180465,2026-07-06T17:58:24.888+07:00,540197081846692421,174161,133667,133778,1326
1783335504906362283,2026-07-06T17:58:24.906+07:00,540197081846692421,174161,133673,133745,1298
1783335504924544101,2026-07-06T17:58:24.924+07:00,540197081846692421,174133,133642,133702,1323
1783335504942725919,2026-07-06T17:58:24.942+07:00,540197081846692421,174127,133695,133686,1343
1783335504960907737,2026-07-06T17:58:24.960+07:00,540197081846692421,174185,133692,133746,1354
1783335504979089555,2026-07-06T17:58:24.979+07:00,540197081846692421,174120,133614,133693,1305
1783335504997271373,2026-07-06T17:58:24.997+07:00,540197081846692421,174107,133635,133773,1357
1783335505015453191,2026-07-06T17:58:25.015+07:00,540197081846692421,174099,133694,133667,1310
1783335505033635009,2026-07-06T17:58:25.033+07:00,540197081846692421,174088,133646,133672,1259
1783335505051816827,2026-07-06T17:58:25.051+07:00,540197081846692421,174108,133609,133662,1287
1783335505069998645,2026-07-06T17:58:25.069+07:00,540197081846692421,174033,133618,133631,1242
1783335505088180463,2026-07-06T17:58:25.088+07:00,540197081846692421,174031,133636,133698,1253
1783335505106362281,2026-07-06T17:58:25.106+07:00,540197081846692421,174094,133673,133719,1267
1783335505124544099,2026-07-06T17:58:25.124+07:00,540197081846692421,174050,133628,133644,1262
1783335505142725917,2026-07-06T17:58:25.142+07:00,540197081846692421,173977,133613,133612,1268
1783335505160907735,2026-07-06T17:58:25.160+07:00,540197081846692421,174033,133637,133702,1276
1783335505179089553,2026-07-06T17:58:25.179+07:00,540197081846692421,174039,133611,133704,1339
1783335505197271371,2026-07-06T17:58:25.197+07:00,540197081846692421,174001,133624,133698,1280
1783335505215453189,2026-07-06T17:58:25.215+07:00,540197081846692421,174064,133655,133697,1258
1783335505233635007,2026-07-06T17:58:25.233+07:00,540197081846692421,174067,133686,133719,1323
1783335505251816825,2026-07-06T17:58:25.251+07:00,540197081846692421,174069,133661,133737,1306
1783335505269998643,2026-07-06T17:58:25.269+07:00,540197081846692421,174127,133733,133762,1342
1783335505288180461,2026-07-06T17:58:25.288+07:00,540197081846692421,174060,133698,133704,1296
1783335505306362279,2026-07-06T17:58:25.306+07:00,540197081846692421,174020,133614,133746,1269
1783335505324544097,2026-07-06T17:58:25.324+07:00,540197081846692421,174049,133613,133771,1297
1783335505342725915,2026-07-06T17:58:25.342+07:00,540197081846692421,173943,133544,133650,1304
1783335505360907733,2026-07-06T17:58:25.360+07:00,540197081846692421,173906,133523,133646,1282
1783335505379089551,2026-07-06T17:58:25.379+07:00,540197081846692421,173776,133441,133594,1316
1783335505397271369,2026-07-06T17:58:25.397+07:00,540197081846692421,173713,133402,133580,1323
1783335505415453187,2026-07-06T17:58:25.415+07:00,540197081846692421,173613,133258,133385,1275
1783335505433635005,2026-07-06T17:58:25.433+07:00,540197081846692421,173597,133194,133341,1307
1783335505451816823,2026-07-06T17:58:25.451+07:00,540197081846692421,173536,133189,133370,1350
1783335505469998641,2026-07-06T17:58:25.469+07:00,540197081846692421,173457,133139,133252,1287
1783335505488180459,2026-07-06T17:58:25.488+07:00,540197081846692421,173389,133101,133247,1292
1783335505506362277,2026-07-06T17:58:25.506+07:00,540197082629105274,173309,133043,133246,1395
1783335505524544095,2026-07-06T17:58:25.524+07:00,540197082629105274,173282,132964,133178,1357
1783335505542725913,2026-07-06T17:58:25.542+07:00,540197082629105274,173169,132888,133144,1326
1783335505560907731,2026-07-06T17:58:25.560+07:00,540197082629105274,173154,132869,133115,1317
1783335505579089549,2026-07-06T17:58:25.579+07:00,540197082629105274,173142,132829,133140,1294
1783335505597271367,2026-07-06T17:58:25.597+07:00,540197082629105274,173114,132792,133074,1356
1783335505615453185,2026-07-06T17:58:25.615+07:00,540197082629105274,173066,132690,132993,1289
1783335505633635003,2026-07-06T17:58:25.633+07:00,540197082629105274,172990,132646,132994,1288
1783335505651816821,2026-07-06T17:58:25.651+07:00,540197082629105274,172963,132473,132962,1284
1783335505669998639,2026-07-06T17:58:25.669+07:00,540197082629105274,172932,132444,132866,1332
1783335505688180457,2026-07-06T17:58:25.688+07:00,540197082629105274,172750,132387,132827,1270
1783335505706362275,2026-07-06T17:58:25.706+07:00,540197082629105274,172746,132366,132833,1351
1783335505724544093,2026-07-06T17:58:25.724+07:00,540197082629105274,172673,132237,132693,1321
1783335505742725911,2026-07-06T17:58:25.742+07:00,540197082629105274,172581,132176,132663,1347
1783335505760907729,2026-07-06T17:58:25.760+07:00,540197082629105274,172476,132080,132622,1344
1783335505779089547,2026-07-06T17:58:25.779+07:00,540197082629105274,172420,131990,132582,1341
1783335505797271365,2026-07-06T17:58:25.797+07:00,540197082629105274,172305,131881,132545,1322
1783335505815453183,2026-07-06T17:58:25.815+07:00,540197082629105274,172249,131881,132518,1316
1783335505833635001,2026-07-06T17:58:25.833+07:00,540197082629105274,172171,131827,132505,1361
1783335505851816819,2026-07-06T17:58:25.851+07:00,540197082629105274,172116,131835,132522,1337
1783335505869998637,2026-07-06T17:58:25.869+07:00,540197082629105274,172107,131763,132513,1361
1783335505888180455,2026-07-06T17:58:25.888+07:00,540197082629105274,172049,131699,132478,1325
1783335505906362273,2026-07-06T17:58:25.906+07:00,540197082629105274,172067,131627,132459,1357
1783335505924544091,2026-07-06T17:58:25.924+07:00,540197082629105274,172046,131666,132495,1320
1783335505942725909,2026-07-06T17:58:25.942+07:00,540197082629105274,172044,131677,132497,1334
1783335505960907727,2026-07-06T17:58:25.960+07:00,540197082629105274,172099,131711,132541,1373
1783335505979089545,2026-07-06T17:58:25.979+07:00,540197082629105274,172096,131706,132512,1320
1783335505997271363,2026-07-06T17:58:25.997+07:00,540197082629105274,172104,131679,132554,1349
1783335506015453181,2026-07-06T17:58:26.015+07:00,540197082629105274,172056,131719,132582,1350
1783335506033634999,2026-07-06T17:58:26.033+07:00,540197082629105274,172047,131588,132576,1263
1783335506051816817,2026-07-06T17:58:26.051+07:00,540197082629105274,172018,131678,132622,1291
1783335506069998635,2026-07-06T17:58:26.069+07:00,540197082629105274,172112,131661,132657,1318
1783335506088180453,2026-07-06T17:58:26.088+07:00,540197082629105274,172118,131615,132640,1395
1783335506106362271,2026-07-06T17:58:26.106+07:00,540197082629105274,172161,131606,132685,1379
1783335506124544089,2026-07-06T17:58:26.124+07:00,540197082629105274,172149,131639,132673,1318
1783335506142725907,2026-07-06T17:58:26.142+07:00,540197082629105274,172149,131591,132662,1321
1783335506160907725,2026-07-06T17:58:26.160+07:00,540197082629105274,172229,131696,132689,1328
1783335506179089543,2026-07-06T17:58:26.179+07:00,540197082629105274,172238,131622,132662,1345
1783335506197271361,2026-07-06T17:58:26.197+07:00,540197082629105274,172201,131652,132687,1353
1783335506215453179,2026-07-06T17:58:26.215+07:00,540197082629105274,172194,131668,132705,1306
1783335506233634997,2026-07-06T17:58:26.233+07:00,540197082629105274,172137,131652,132690,1299
1783335506251816815,2026-07-06T17:58:26.251+07:00,540197082629105274,172106,131610,132640,1303
1783335506269998633,2026-07-06T17:58:26.269+07:00,540197082629105274,172097,131494,132568,1360
1783335506288180451,2026-07-06T17:58:26.288+07:00,540197083502551794,171964,131436,132525,1351
1783335506306362269,2026-07-06T17:58:26.306+07:00,540197083502551794,171949,131384,132507,1320
1783335506324544087,2026-07-06T17:58:26.324+07:00,540197083502551794,171868,131324,132461,1330
1783335506342725905,2026-07-06T17:58:26.342+07:00,540197083502551794,171848,131268,132418,1296
1783335506360907723,2026-07-06T17:58:26.360+07:00,540197083502551794,171806,131322,132349,1365
1783335506379089541,2026-07-06T17:58:26.379+07:00,540197083502551794,171796,131198,132329,1369
1783335506397271359,2026-07-06T17:58:26.397+07:00,540197083502551794,171670,131147,132270,1314
1783335506415453177,2026-07-06T17:58:26.415+07:00,540197083502551794,171725,131208,132327,1328
1783335506433634995,2026-07-06T17:58:26.433+07:00,540197083502551794,171642,131088,132193,1359
1783335506451816813,2026-07-06T17:58:26.451+07:00,540197083502551794,171660,131088,132210,1371
1783335506469998631,2026-07-06T17:58:26.469+07:00,540197083502551794,171621,130994,132161,1365
1783335506488180449,2026-07-06T17:58:26.488+07:00,540197083502551794,171563,130976,132175,1294
1783335506506362267,2026-07-06T17:58:26.506+07:00,540197083502551794,171500,130972,132181,1314
1783335506524544085,2026-07-06T17:58:26.524+07:00,540197083502551794,171481,130954,132095,1365
1783335506542725903,2026-07-06T17:58:26.542+07:00,540197083502551794,171469,130939,131997,1336
1783335506560907721,2026-07-06T17:58:26.560+07:00,540197083502551794,171461,130922,132056,1320
1783335506579089539,2026-07-06T17:58:26.579+07:00,540197083502551794,171378,130908,131985,1308
1783335506597271357,2026-07-06T17:58:26.597+07:00,540197083502551794,171448,130889,132034,1341
1783335506615453175,2026-07-06T17:58:26.615+07:00,540197083502551794,171337,130832,131990,1264
1783335506633634993,2026-07-06T17:58:26.633+07:00,540197083502551794,171411,130869,132020,1323
1783335506651816811,2026-07-06T17:58:26.651+07:00,540197083502551794,171358,130861,132020,1276
1783335506669998629,2026-07-06T17:58:26.669+07:00,540197083502551794,171320,130810,132071,1314
1783335506688180447,2026-07-06T17:58:26.688+07:00,540197083502551794,171366,130854,132083,1344
1783335506706362265,2026-07-06T17:58:26.706+07:00,540197083502551794,171431,130855,132106,1326
1783335506724544083,2026-07-06T17:58:26.724+07:00,540197083502551794,171382,130849,132118,1342
1783335506742725901,2026-07-06T17:58:26.742+07:00,540197083502551794,171338,130849,132137,1313
1783335506760907719,2026-07-06T17:58:26.760+07:00,540197083502551794,171377,130829,132129,1318
1783335506779089537,2026-07-06T17:58:26.779+07:00,540197083502551794,171423,130795,132114,1370
1783335506797271355,2026-07-06T17:58:26.797+07:00,540197083502551794,171469,130806,132108,1306
1783335506815453173,2026-07-06T17:58:26.815+07:00,540197083502551794,171370,130814,132163,1333
1783335506833634991,2026-07-06T17:58:26.833+07:00,540197083502551794,171447,130866,132191,1294
1783335506851816809,2026-07-06T17:58:26.851+07:00,540197083502551794,171415,130808,132112,1308
1783335506869998627,2026-07-06T17:58:26.869+07:00,540197083502551794,171413,130815,132175,1311
1783335506888180445,2026-07-06T17:58:26.888+07:00,540197083502551794,171463,130824,132174,1293
1783335506906362263,2026-07-06T17:58:26.906+07:00,540197083502551794,171533,130775,132242,1319
1783335506924544081,2026-07-06T17:58:26.924+07:00,540197083502551794,171531,130844,132264,1376
1783335506942725899,2026-07-06T17:58:26.942+07:00,540197083502551794,171454,130797,132221,1301
1783335506960907717,2026-07-06T17:58:26.960+07:00,540197083502551794,171495,130781,132283,1305
1783335506979089535,2026-07-06T17:58:26.979+07:00,540197083502551794,171463,130813,132254,1270
1783335506997271353,2026-07-06T17:58:26.997+07:00,540197083502551794,171520,130796,132275,1257
1783335507015453171,2026-07-06T17:58:27.015+07:00,540197083502551794,171567,130826,132292,1368
1783335507033634989,2026-07-06T17:58:27.033+07:00,540197083502551794,171555,130856,132294,1303
1783335507051816807,2026-07-06T17:58:27.051+07:00,540197083502551794,171599,130907,132385,1351
1783335507069998625,2026-07-06T17:58:27.069+07:00,540197083502551794,171566,130818,132355,1276
1783335507088180443,2026-07-06T17:58:27.088+07:00,540197083502551794,171575,130853,132333,1308
1783335507106362261,2026-07-06T17:58:27.106+07:00,540197083502551794,171631,130839,132387,1308
1783335507124544079,2026-07-06T17:58:27.124+07:00,540197083502551794,171649,130869,132332,1260
1783335507142725897,2026-07-06T17:58:27.142+07:00,540197083502551794,171605,130880,132331,1291
1783335507160907715,2026-07-06T17:58:27.160+07:00,540197084448771542,171548,130793,132278,1272
1783335507179089533,2026-07-06T17:58:27.179+07:00,540197084448771542,171539,130793,132243,1294
1783335507197271351,2026-07-06T17:58:27.197+07:00,540197084448771542,171519,130744,132259,1304
1783335507215453169,2026-07-06T17:58:27.215+07:00,540197084448771542,171463,130717,132236,1335
1783335507233634987,2026-07-06T17:58:27.233+07:00,540197084448771542,171421,130659,132178,1299
1783335507251816805,2026-07-06T17:58:27.251+07:00,540197084448771542,171366,130645,132139,1255
1783335507269998623,2026-07-06T17:58:27.269+07:00,540197084448771542,171342,130643,132140,1307
1783335507288180441,2026-07-06T17:58:27.288+07:00,540197084448771542,171319,130619,132108,1311
1783335507306362259,2026-07-06T17:58:27.306+07:00,540197084448771542,171348,130607,132104,1310
1783335507324544077,2026-07-06T17:58:27.324+07:00,540197084448771542,171286,130584,132075,1333
1783335507342725895,2026-07-06T17:58:27.342+07:00,540197084448771542,171226,130542,132037,1350
1783335507360907713,2026-07-06T17:58:27.360+07:00,540197084448771542,171236,130490,131999,1294
1783335507379089531,2026-07-06T17:58:27.379+07:00,540197084448771542,171240,130467,132016,1256
1783335507397271349,2026-07-06T17:58:27.397+07:00,540197084448771542,171239,130474,132040,1336
1783335507415453167,2026-07-06T17:58:27.415+07:00,540197084448771542,171247,130433,132007,1289
1783335507433634985,2026-07-06T17:58:27.433+07:00,540197084448771542,171280,130439,132046,1264
1783335507451816803,2026-07-06T17:58:27.451+07:00,540197084448771542,171207,130461,132007,1313
1783335507469998621,2026-07-06T17:58:27.469+07:00,540197084448771542,171207,130442,132030,1342
1783335507488180439,2026-07-06T17:58:27.488+07:00,540197084448771542,171214,130435,131971,1336
1783335507506362257,2026-07-06T17:58:27.506+07:00,540197084448771542,171231,130379,131944,1349
1783335507524544075,2026-07-06T17:58:27.524+07:00,540197084448771542,171212,130341,131949,1288
1783335507542725893,2026-07-06T17:58:27.542+07:00,540197084448771542,171201,130404,131956,1296
1783335507560907711,2026-07-06T17:58:27.560+07:00,540197084448771542,171100,130376,131968,1250
1783335507579089529,2026-07-06T17:58:27.579+07:00,540197084448771542,171184,130344,131987,1258
1783335507597271347,2026-07-06T17:58:27.597+07:00,540197084448771542,171245,130376,132036,1290
1783335507615453165,2026-07-06T17:58:27.615+07:00,540197084448771542,171233,130377,132017,1236
1783335507633634983,2026-07-06T17:58:27.633+07:00,540197084448771542,171260,130449,132076,1325
1783335507651816801,2026-07-06T17:58:27.651+07:00,540197084448771542,171224,130403,132090,1299
1783335507669998619,2026-07-06T17:58:27.669+07:00,540197084448771542,171250,130389,132127,1317
1783335507688180437,2026-07-06T17:58:27.688+07:00,540197084448771542,171287,130331,132046,1336
1783335507706362255,2026-07-06T17:58:27.706+07:00,540197084448771542,171317,130413,132073,1347
1783335507724544073,2026-07-06T17:58:27.724+07:00,540197084448771542,171285,130375,132070,1293
1783335507742725891,2026-07-06T17:58:27.742+07:00,540197084448771542,171303,130405,132110,1272
1783335507760907709,2026-07-06T17:58:27.760+07:00,540197084448771542,171371,130359,132185,1352
1783335507779089527,2026-07-06T17:58:27.779+07:00,540197084448771542,171311,130344,132114,1296
1783335507797271345,2026-07-06T17:58:27.797+07:00,540197084448771542,171383,130372,132161,1339
1783335507815453163,2026-07-06T17:58:27.815+07:00,540197084448771542,171293,130359,132135,1321
1783335507833634981,2026-07-06T17:58:27.833+07:00,540197084448771542,171388,130372,132170,1330
1783335507851816799,2026-07-06T17:58:27.851+07:00,540197084448771542,171412,130374,132208,1359
1783335507869998617,2026-07-06T17:58:27.869+07:00,540197084448771542,171337,130468,132183,1316
1783335507888180435,2026-07-06T17:58:27.888+07:00,540197084448771542,171396,130419,132244,1322
1783335507906362253,2026-07-06T17:58:27.906+07:00,540197084448771542,171368,130393,132246,1275
1783335507924544071,2026-07-06T17:58:27.924+07:00,540197084448771542,171459,130368,132212,1311
1783335507942725889,2026-07-06T17:58:27.942+07:00,540197084448771542,171492,130380,132244,1297
1783335507960907707,2026-07-06T17:58:27.960+07:00,540197084448771542,171459,130372,132271,1283
1783335507979089525,2026-07-06T17:58:27.979+07:00,540197084448771542,171483,130405,132311,1304
1783335507997271343,2026-07-06T17:58:27.997+07:00,540197084448771542,171519,130409,132310,1335
1783335508015453161,2026-07-06T17:58:28.015+07:00,540197084448771542,171561,130477,132391,1340
1783335508033634979,2026-07-06T17:58:28.033+07:00,540197084448771542,171549,130435,132303,1335
1783335508051816797,2026-07-06T17:58:28.051+07:00,540197084448771542,171554,130428,132266,1391
1783335508069998615,2026-07-06T17:58:28.069+07:00,540197084448771542,171504,130402,132273,1343
1783335508088180433,2026-07-06T17:58:28.088+07:00,540197084448771542,171420,130347,132211,1313
1783335508106362251,2026-07-06T17:58:28.106+07:00,540197085322227216,171478,130350,132218,1336
1783335508124544069,2026-07-06T17:58:28.124+07:00,540197085322227216,171363,130245,132127,1322
1783335508142725887,2026-07-06T17:58:28.142+07:00,540197085322227216,171332,130214,132082,1311
1783335508160907705,2026-07-06T17:58:28.160+07:00,540197085322227216,171335,130205,132114,1324
1783335508179089523,2026-07-06T17:58:28.179+07:00,540197085322227216,171335,130201,132094,1330
1783335508197271341,2026-07-06T17:58:28.197+07:00,540197085322227216,171298,130176,132068,1335
1783335508215453159,2026-07-06T17:58:28.215+07:00,540197085322227216,171268,130157,132015,1318
1783335508233634977,2026-07-06T17:58:28.233+07:00,540197085322227216,171259,130210,132048,1358
1783335508251816795,2026-07-06T17:58:28.251+07:00,540197085322227216,171265,130123,132042,1321
1783335508269998613,2026-07-06T17:58:28.269+07:00,540197085322227216,171206,130044,131956,1268
1783335508288180431,2026-07-06T17:58:28.288+07:00,540197085322227216,171233,130091,132013,1325
1783335508306362249,2026-07-06T17:58:28.306+07:00,540197085322227216,171236,130035,132021,1341
1783335508324544067,2026-07-06T17:58:28.324+07:00,540197085322227216,171252,130077,131999,1252
1783335508342725885,2026-07-06T17:58:28.342+07:00,540197085322227216,171274,130112,131990,1305
1783335508360907703,2026-07-06T17:58:28.360+07:00,540197085322227216,171282,130065,131978,1297
1783335508379089521,2026-07-06T17:58:28.379+07:00,540197085322227216,171273,130073,132002,1345
1783335508397271339,2026-07-06T17:58:28.397+07:00,540197085322227216,171213,130021,131974,1287
1783335508415453157,2026-07-06T17:58:28.415+07:00,540197085322227216,171318,130031,132032,1377
1783335508433634975,2026-07-06T17:58:28.433+07:00,540197085322227216,171225,129987,131961,1282
1783335508451816793,2026-07-06T17:58:28.451+07:00,540197085322227216,171234,130010,131979,1300
1783335508469998611,2026-07-06T17:58:28.469+07:00,540197085322227216,171287,130017,131997,1291
1783335508488180429,2026-07-06T17:58:28.488+07:00,540197085322227216,171269,130005,131984,1355
1783335508506362247,2026-07-06T17:58:28.506+07:00,540197085322227216,171245,130022,131969,1351
1783335508524544065,2026-07-06T17:58:28.524+07:00,540197085322227216,171304,130005,131995,1361
1783335508542725883,2026-07-06T17:58:28.542+07:00,540197085322227216,171341,130002,132042,1375
1783335508560907701,2026-07-06T17:58:28.560+07:00,540197085322227216,171256,129994,131949,1325
1783335508579089519,2026-07-06T17:58:28.579+07:00,540197085322227216,171326,130026,132078,1374
1783335508597271337,2026-07-06T17:58:28.597+07:00,540197085322227216,171267,129982,132056,1317
1783335508615453155,2026-07-06T17:58:28.615+07:00,540197085322227216,171336,129997,132027,1268
1783335508633634973,2026-07-06T17:58:28.633+07:00,540197085322227216,171346,129992,132010,1307
1783335508651816791,2026-07-06T17:58:28.651+07:00,540197085322227216,171322,130054,132083,1273
1783335508669998609,2026-07-06T17:58:28.669+07:00,540197085322227216,171356,130025,132115,1343
1783335508688180427,2026-07-06T17:58:28.688+07:00,540197085322227216,171364,129961,132076,1294
1783335508706362245,2026-07-06T17:58:28.706+07:00,540197085322227216,171396,129958,132118,1305
1783335508724544063,2026-07-06T17:58:28.724+07:00,540197085322227216,171388,129996,132100,1306
1783335508742725881,2026-07-06T17:58:28.742+07:00,540197085322227216,171390,129944,132068,1260
1783335508760907699,2026-07-06T17:58:28.760+07:00,540197085322227216,171466,130027,132145,1298
1783335508779089517,2026-07-06T17:58:28.779+07:00,540197085322227216,171451,130020,132109,1274
1783335508797271335,2026-07-06T17:58:28.797+07:00,540197085322227216,171472,130048,132196,1270
1783335508815453153,2026-07-06T17:58:28.815+07:00,540197085322227216,171488,130027,132168,1265
1783335508833634971,2026-07-06T17:58:28.833+07:00,540197085322227216,171499,129992,132117,1267
1783335508851816789,2026-07-06T17:58:28.851+07:00,540197085322227216,171504,130011,132186,1242
1783335508869998607,2026-07-06T17:58:28.869+07:00,540197085322227216,171584,130085,132274,1320
1783335508888180425,2026-07-06T17:58:28.888+07:00,540197085322227216,171544,130081,132222,1284
1783335508906362243,2026-07-06T17:58:28.906+07:00,540197085322227216,171639,130039,132248,1304
1783335508924544061,2026-07-06T17:58:28.924+07:00,540197085322227216,171593,130038,132223,1318
1783335508942725879,2026-07-06T17:58:28.942+07:00,540197085322227216,171701,130073,132329,1375
1783335508960907697,2026-07-06T17:58:28.960+07:00,540197085322227216,171581,130113,132283,1316
1783335508979089515,2026-07-06T17:58:28.979+07:00,540197086268437810,171651,130095,132279,1315
1783335508997271333,2026-07-06T17:58:28.997+07:00,540197086268437810,171693,130108,132293,1318
1783335509015453151,2026-07-06T17:58:29.015+07:00,540197086268437810,171582,130102,132324,1300
1783335509033634969,2026-07-06T17:58:29.033+07:00,540197086268437810,171687,130147,132383,1365
1783335509051816787,2026-07-06T17:58:29.051+07:00,540197086268437810,171638,130101,132278,1304
1783335509069998605,2026-07-06T17:58:29.069+07:00,540197086268437810,171692,130101,132290,1328
1783335509088180423,2026-07-06T17:58:29.088+07:00,540197086268437810,171643,130026,132243,1367
1783335509106362241,2026-07-06T17:58:29.106+07:00,540197086268437810,171556,129973,132194,1335
1783335509124544059,2026-07-06T17:58:29.124+07:00,540197086268437810,171532,129961,132164,1332
1783335509142725877,2026-07-06T17:58:29.142+07:00,540197086268437810,171517,129909,132122,1303
1783335509160907695,2026-07-06T17:58:29.160+07:00,540197086268437810,171480,129836,132101,1288
1783335509179089513,2026-07-06T17:58:29.179+07:00,540197086268437810,171455,129906,132035,1297
1783335509197271331,2026-07-06T17:58:29.197+07:00,540197086268437810,171416,129812,132001,1337
1783335509215453149,2026-07-06T17:58:29.215+07:00,540197086268437810,171380,129782,132006,1296
1783335509233634967,2026-07-06T17:58:29.233+07:00,540197086268437810,171329,129699,131952,1299
1783335509251816785,2026-07-06T17:58:29.251+07:00,540197086268437810,171341,129730,131934,1311
1783335509269998603,2026-07-06T17:58:29.269+07:00,540197086268437810,171297,129702,131923,1327
1783335509288180421,2026-07-06T17:58:29.288+07:00,540197086268437810,171280,129646,131925,1320
1783335509306362239,2026-07-06T17:58:29.306+07:00,540197086268437810,171189,129560,131913,1251
1783335509324544057,2026-07-06T17:58:29.324+07:00,540197086268437810,171233,129600,131919,1314
1783335509342725875,2026-07-06T17:58:29.342+07:00,540197086268437810,171227,129598,131836,1304
1783335509360907693,2026-07-06T17:58:29.360+07:00,540197086268437810,171213,129676,131905,1350
1783335509379089511,2026-07-06T17:58:29.379+07:00,540197086268437810,171182,129558,131811,1298
1783335509397271329,2026-07-06T17:58:29.397+07:00,540197086268437810,171180,129530,131791,1246
1783335509415453147,2026-07-06T17:58:29.415+07:00,540197086268437810,171159,129510,131827,1253
1783335509433634965,2026-07-06T17:58:29.433+07:00,540197086268437810,171143,129479,131769,1272
1783335509451816783,2026-07-06T17:58:29.451+07:00,540197086268437810,171131,129468,131760,1268
1783335509469998601,2026-07-06T17:58:29.469+07:00,540197086268437810,171108,129504,131796,1303
1783335509488180419,2026-07-06T17:58:29.488+07:00,540197086268437810,171087,129516,131798,1290
1783335509506362237,2026-07-06T17:58:29.506+07:00,540197086268437810,171068,129502,131814,1256
1783335509524544055,2026-07-06T17:58:29.524+07:00,540197086268437810,171044,129434,131856,1248
1783335509542725873,2026-07-06T17:58:29.542+07:00,540197086268437810,171123,129442,131814,1268
1783335509560907691,2026-07-06T17:58:29.560+07:00,540197086268437810,171108,129461,131829,1284
1783335509579089509,2026-07-06T17:58:29.579+07:00,540197086268437810,171159,129505,131831,1319
1783335509597271327,2026-07-06T17:58:29.597+07:00,540197086268437810,171074,129467,131769,1296
1783335509615453145,2026-07-06T17:58:29.615+07:00,540197086268437810,171052,129424,131811,1274
1783335509633634963,2026-07-06T17:58:29.633+07:00,540197086268437810,171081,129476,131824,1360
1783335509651816781,2026-07-06T17:58:29.651+07:00,540197086268437810,171129,129427,131724,1260
1783335509669998599,2026-07-06T17:58:29.669+07:00,540197086268437810,171100,129350,131769,1228
1783335509688180417,2026-07-06T17:58:29.688+07:00,540197086268437810,171121,129390,131792,1246
1783335509706362235,2026-07-06T17:58:29.706+07:00,540197086268437810,171128,129442,131822,1291
1783335509724544053,2026-07-06T17:58:29.724+07:00,540197086268437810,171142,129494,131797,1320
1783335509742725871,2026-07-06T17:58:29.742+07:00,540197086268437810,171080,129439,131822,1294
1783335509760907689,2026-07-06T17:58:29.760+07:00,540197086268437810,171149,129427,131834,1283
1783335509779089507,2026-07-06T17:58:29.779+07:00,540197086268437810,171181,129496,131914,1340
1783335509797271325,2026-07-06T17:58:29.797+07:00,540197086268437810,171128,129531,131864,1332
1783335509815453143,2026-07-06T17:58:29.815+07:00,540197086268437810,171212,129551,131890,1315
1783335509833634961,2026-07-06T17:58:29.833+07:00,540197086268437810,171173,129540,131910,1257
1783335509851816779,2026-07-06T17:58:29.851+07:00,540197086268437810,171179,129510,131923,1265
1783335509869998597,2026-07-06T17:58:29.869+07:00,540197086268437810,171237,129580,131917,1302
1783335509888180415,2026-07-06T17:58:29.888+07:00,540197086268437810,171230,129523,131896,1318
1783335509906362233,2026-07-06T17:58:29.906+07:00,540197086268437810,171247,129458,131924,1310
1783335509924544051,2026-07-06T17:58:29.924+07:00,540197087069123316,171265,129509,131957,1337
1783335509942725869,2026-07-06T17:58:29.942+07:00,540197087069123316,171271,129491,132006,1309
1783335509960907687,2026-07-06T17:58:29.960+07:00,540197087069123316,171300,129546,131981,1318
