host_timestamp_ns,host_timestamp_iso,pmd_timestamp,ppg0,ppg1,ppg2,ambient
1783334979139079569,2026-07-06T17:49:39.139+07:00,540196558577991872,190316,139328,176694,1301
1783334979157261387,2026-07-06T17:49:39.157+07:00,540196558577991872,190319,139296,176673,1326
1783334979175443205,2026-07-06T17:49:39.175+07:00,540196558577991872,190304,139272,176598,1377
1783334979193625023,2026-07-06T17:49:39.193+07:00,540196558577991872,190213,139198,176509,1331
1783334979211806841,2026-07-06T17:49:39.211+07:00,540196558577991872,190112,139156,176439,1293
1783334979229988659,2026-07-06T17:49:39.229+07:00,540196558577991872,190043,139157,176409,1338
1783334979248170477,2026-07-06T17:49:39.248+07:00,540196558577991872,189985,139088,176303,1369
1783334979266352295,2026-07-06T17:49:39.266+07:00,540196558577991872,189960,139021,176260,1362
1783334979284534113,2026-07-06T17:49:39.284+07:00,540196558577991872,189914,139046,176146,1343
1783334979302715931,2026-07-06T17:49:39.302+07:00,540196558577991872,189905,139010,176088,1339
1783334979320897749,2026-07-06T17:49:39.320+07:00,540196558577991872,189878,138925,176039,1313
1783334979339079567,2026-07-06T17:49:39.339+07:00,540196558577991872,189761,138880,175965,1337
1783334979357261385,2026-07-06T17:49:39.357+07:00,540196558577991872,189778,138852,175929,1351
1783334979375443203,2026-07-06T17:49:39.375+07:00,540196558577991872,189731,138782,175814,1297
1783334979393625021,2026-07-06T17:49:39.393+07:00,540196558577991872,189670,138838,175868,1360
1783334979411806839,2026-07-06T17:49:39.411+07:00,540196558577991872,189678,138856,175848,1315
1783334979429988657,2026-07-06T17:49:39.429+07:00,540196558577991872,189717,138852,175867,1340
1783334979448170475,2026-07-06T17:49:39.448+07:00,540196558577991872,189693,138814,175876,1320
1783334979466352293,2026-07-06T17:49:39.466+07:00,540196558577991872,189683,138791,175920,1385
1783334979484534111,2026-07-06T17:49:39.484+07:00,540196558577991872,189604,138740,175818,1332
1783334979502715929,2026-07-06T17:49:39.502+07:00,540196558577991872,189605,138800,175834,1305
1783334979520897747,2026-07-06T17:49:39.520+07:00,540196558577991872,189659,138804,175875,1326
1783334979539079565,2026-07-06T17:49:39.539+07:00,540196558577991872,189691,138830,175894,1359
1783334979557261383,2026-07-06T17:49:39.557+07:00,540196558577991872,189664,138806,175830,1315
1783334979575443201,2026-07-06T17:49:39.575+07:00,540196558577991872,189675,138818,175898,1337
1783334979593625019,2026-07-06T17:49:39.593+07:00,540196558577991872,189653,138810,175921,1357
1783334979611806837,2026-07-06T17:49:39.611+07:00,540196558577991872,189642,138850,175906,1367
1783334979629988655,2026-07-06T17:49:39.629+07:00,540196558577991872,189645,138823,175914,1338
1783334979648170473,2026-07-06T17:49:39.648+07:00,540196558577991872,189725,138828,175935,1334
1783334979666352291,2026-07-06T17:49:39.666+07:00,540196558577991872,189748,138866,175918,1307
1783334979684534109,2026-07-06T17:49:39.684+07:00,540196558577991872,189700,138888,175978,1327
1783334979702715927,2026-07-06T17:49:39.702+07:00,540196558577991872,189773,138820,176048,1298
1783334979720897745,2026-07-06T17:49:39.720+07:00,540196558577991872,189749,138888,176036,1313
1783334979739079563,2026-07-06T17:49:39.739+07:00,540196558577991872,189762,138933,176013,1281
1783334979757261381,2026-07-06T17:49:39.757+07:00,540196558577991872,189827,138958,176075,1301
1783334979775443199,2026-07-06T17:49:39.775+07:00,540196558577991872,189780,139004,176114,1274
1783334979793625017,2026-07-06T17:49:39.793+07:00,540196558577991872,189857,139036,176124,1294
1783334979811806835,2026-07-06T17:49:39.811+07:00,540196558577991872,189907,139011,176180,1331
1783334979829988653,2026-07-06T17:49:39.829+07:00,540196558577991872,189939,139038,176196,1335
1783334979848170471,2026-07-06T17:49:39.848+07:00,540196558577991872,189905,139068,176229,1348
1783334979866352289,2026-07-06T17:49:39.866+07:00,540196558577991872,189945,139069,176265,1355
1783334979884534107,2026-07-06T17:49:39.884+07:00,540196558577991872,189986,139169,176315,1372
1783334979902715925,2026-07-06T17:49:39.902+07:00,540196558577991872,190004,139081,176320,1307
1783334979920897743,2026-07-06T17:49:39.920+07:00,540196558577991872,190011,139133,176337,1354
1783334979939079561,2026-07-06T17:49:39.939+07:00,540196558577991872,190034,139196,176456,1343
1783334979957261379,2026-07-06T17:49:39.957+07:00,540196558577991872,190118,139234,176519,1334
1783334979975443197,2026-07-06T17:49:39.975+07:00,540196558577991872,190175,139232,176576,1420
1783334979993625015,2026-07-06T17:49:39.993+07:00,540196558577991872,190161,139316,176535,1375
1783334980011806833,2026-07-06T17:49:40.011+07:00,540196558577991872,190164,139277,176530,1367
1783334980029988651,2026-07-06T17:49:40.029+07:00,540196558577991872,190097,139248,176489,1351
1783334980048170469,2026-07-06T17:49:40.048+07:00,540196559433261871,189996,139167,176381,1310
1783334980066352287,2026-07-06T17:49:40.066+07:00,540196559433261871,189879,139110,176225,1319
1783334980084534105,2026-07-06T17:49:40.084+07:00,540196559433261871,189786,139060,176099,1336
1783334980102715923,2026-07-06T17:49:40.102+07:00,540196559433261871,189723,138940,176006,1328
1783334980120897741,2026-07-06T17:49:40.120+07:00,540196559433261871,189624,138966,175979,1354
1783334980139079559,2026-07-06T17:49:40.139+07:00,540196559433261871,189591,138927,175868,1280
1783334980157261377,2026-07-06T17:49:40.157+07:00,540196559433261871,189541,138843,175799,1333
1783334980175443195,2026-07-06T17:49:40.175+07:00,540196559433261871,189466,138782,175728,1291
1783334980193625013,2026-07-06T17:49:40.193+07:00,540196559433261871,189417,138745,175718,1315
1783334980211806831,2026-07-06T17:49:40.211+07:00,540196559433261871,189331,138721,175565,1386
1783334980229988649,2026-07-06T17:49:40.229+07:00,540196559433261871,189287,138679,175499,1318
1783334980248170467,2026-07-06T17:49:40.248+07:00,540196559433261871,189182,138651,175436,1310
1783334980266352285,2026-07-06T17:49:40.266+07:00,540196559433261871,189240,138623,175465,1348
1783334980284534103,2026-07-06T17:49:40.284+07:00,540196559433261871,189209,138657,175472,1299
1783334980302715921,2026-07-06T17:49:40.302+07:00,540196559433261871,189225,138609,175438,1299
1783334980320897739,2026-07-06T17:49:40.320+07:00,540196559433261871,189227,138661,175476,1343
1783334980339079557,2026-07-06T17:49:40.339+07:00,540196559433261871,189190,138617,175431,1273
1783334980357261375,2026-07-06T17:49:40.357+07:00,540196559433261871,189160,138583,175389,1247
1783334980375443193,2026-07-06T17:49:40.375+07:00,540196559433261871,189134,138598,175387,1284
1783334980393625011,2026-07-06T17:49:40.393+07:00,540196559433261871,189104,138588,175444,1323
1783334980411806829,2026-07-06T17:49:40.411+07:00,540196559433261871,189075,138572,175424,1249
1783334980429988647,2026-07-06T17:49:40.429+07:00,540196559433261871,189088,138555,175427,1279
1783334980448170465,2026-07-06T17:49:40.448+07:00,540196559433261871,189106,138562,175459,1347
1783334980466352283,2026-07-06T17:49:40.466+07:00,540196559433261871,188995,138522,175459,1287
1783334980484534101,2026-07-06T17:49:40.484+07:00,540196559433261871,189095,138560,175475,1300
1783334980502715919,2026-07-06T17:49:40.502+07:00,540196559433261871,189142,138587,175511,1276
1783334980520897737,2026-07-06T17:49:40.520+07:00,540196559433261871,189167,138677,175521,1293
1783334980539079555,2026-07-06T17:49:40.539+07:00,540196559433261871,189124,138634,175578,1225
1783334980557261373,2026-07-06T17:49:40.557+07:00,540196559433261871,189129,138647,175580,1288
1783334980575443191,2026-07-06T17:49:40.575+07:00,540196559433261871,189151,138684,175605,1266
1783334980593625009,2026-07-06T17:49:40.593+07:00,540196559433261871,189196,138638,175652,1286
1783334980611806827,2026-07-06T17:49:40.611+07:00,540196559433261871,189166,138647,175672,1271
1783334980629988645,2026-07-06T17:49:40.629+07:00,540196559433261871,189226,138689,175654,1301
1783334980648170463,2026-07-06T17:49:40.648+07:00,540196559433261871,189251,138712,175709,1340
1783334980666352281,2026-07-06T17:49:40.666+07:00,540196559433261871,189253,138731,175730,1319
1783334980684534099,2026-07-06T17:49:40.684+07:00,540196559433261871,189277,138738,175782,1318
1783334980702715917,2026-07-06T17:49:40.702+07:00,540196559433261871,189274,138818,175782,1302
1783334980720897735,2026-07-06T17:49:40.720+07:00,540196559433261871,189340,138851,175867,1301
1783334980739079553,2026-07-06T17:49:40.739+07:00,540196559433261871,189346,138821,175857,1264
1783334980757261371,2026-07-06T17:49:40.757+07:00,540196559433261871,189452,138930,175966,1332
1783334980775443189,2026-07-06T17:49:40.775+07:00,540196559433261871,189423,138918,176052,1333
1783334980793625007,2026-07-06T17:49:40.793+07:00,540196559433261871,189502,138930,176155,1310
1783334980811806825,2026-07-06T17:49:40.811+07:00,540196559433261871,189550,138952,176159,1328
1783334980829988643,2026-07-06T17:49:40.829+07:00,540196559433261871,189533,138988,176261,1296
1783334980848170461,2026-07-06T17:49:40.848+07:00,540196559433261871,189582,139053,176262,1291
1783334980866352279,2026-07-06T17:49:40.866+07:00,540196559433261871,189591,139100,176328,1268
1783334980884534097,2026-07-06T17:49:40.884+07:00,540196559433261871,189677,139087,176312,1239
1783334980902715915,2026-07-06T17:49:40.902+07:00,540196560197543979,189559,139080,176334,1305
1783334980920897733,2026-07-06T17:49:40.920+07:00,540196560197543979,189538,139029,176232,1356
1783334980939079551,2026-07-06T17:49:40.939+07:00,540196560197543979,189391,138944,176096,1323
1783334980957261369,2026-07-06T17:49:40.957+07:00,540196560197543979,189431,138985,176054,1342
1783334980975443187,2026-07-06T17:49:40.975+07:00,540196560197543979,189282,138895,175908,1262
1783334980993625005,2026-07-06T17:49:40.993+07:00,540196560197543979,189216,138852,175843,1316
1783334981011806823,2026-07-06T17:49:41.011+07:00,540196560197543979,189168,138838,175769,1300
1783334981029988641,2026-07-06T17:49:41.029+07:00,540196560197543979,189139,138779,175705,1327
1783334981048170459,2026-07-06T17:49:41.048+07:00,540196560197543979,189054,138767,175651,1317
1783334981066352277,2026-07-06T17:49:41.066+07:00,540196560197543979,188986,138710,175642,1321
1783334981084534095,2026-07-06T17:49:41.084+07:00,540196560197543979,188988,138701,175570,1324
1783334981102715913,2026-07-06T17:49:41.102+07:00,540196560197543979,188901,138557,175519,1317
1783334981120897731,2026-07-06T17:49:41.120+07:00,540196560197543979,188848,138633,175478,1368
1783334981139079549,2026-07-06T17:49:41.139+07:00,540196560197543979,188874,138570,175462,1331
1783334981157261367,2026-07-06T17:49:41.157+07:00,540196560197543979,188879,138635,175512,1361
1783334981175443185,2026-07-06T17:49:41.175+07:00,540196560197543979,188828,138585,175482,1306
1783334981193625003,2026-07-06T17:49:41.193+07:00,540196560197543979,188792,138612,175471,1287
1783334981211806821,2026-07-06T17:49:41.211+07:00,540196560197543979,188771,138568,175510,1285
1783334981229988639,2026-07-06T17:49:41.229+07:00,540196560197543979,188789,138547,175521,1320
1783334981248170457,2026-07-06T17:49:41.248+07:00,540196560197543979,188780,138657,175535,1375
1783334981266352275,2026-07-06T17:49:41.266+07:00,540196560197543979,188783,138575,175447,1288
1783334981284534093,2026-07-06T17:49:41.284+07:00,540196560197543979,188737,138607,175475,1290
1783334981302715911,2026-07-06T17:49:41.302+07:00,540196560197543979,188719,138627,175554,1291
1783334981320897729,2026-07-06T17:49:41.320+07:00,540196560197543979,188814,138617,175541,1344
1783334981339079547,2026-07-06T17:49:41.339+07:00,540196560197543979,188781,138616,175534,1306
1783334981357261365,2026-07-06T17:49:41.357+07:00,540196560197543979,188844,138669,175580,1331
1783334981375443183,2026-07-06T17:49:41.375+07:00,540196560197543979,188792,138570,175604,1276
1783334981393625001,2026-07-06T17:49:41.393+07:00,540196560197543979,188790,138664,175627,1297
1783334981411806819,2026-07-06T17:49:41.411+07:00,540196560197543979,188841,138721,175684,1297
1783334981429988637,2026-07-06T17:49:41.429+07:00,540196560197543979,188970,138766,175703,1340
1783334981448170455,2026-07-06T17:49:41.448+07:00,540196560197543979,188919,138723,175717,1326
1783334981466352273,2026-07-06T17:49:41.466+07:00,540196560197543979,188927,138743,175710,1308
1783334981484534091,2026-07-06T17:49:41.484+07:00,540196560197543979,188995,138756,175780,1372
1783334981502715909,2026-07-06T17:49:41.502+07:00,540196560197543979,188954,138789,175773,1314
1783334981520897727,2026-07-06T17:49:41.520+07:00,540196560197543979,188953,138801,175757,1305
1783334981539079545,2026-07-06T17:49:41.539+07:00,540196560197543979,188993,138807,175787,1342
1783334981557261363,2026-07-06T17:49:41.557+07:00,540196560197543979,189064,138826,175910,1289
1783334981575443181,2026-07-06T17:49:41.575+07:00,540196560197543979,189080,138835,175895,1305
1783334981593624999,2026-07-06T17:49:41.593+07:00,540196560197543979,189100,138898,175939,1303
1783334981611806817,2026-07-06T17:49:41.611+07:00,540196560197543979,189145,138930,175969,1298
1783334981629988635,2026-07-06T17:49:41.629+07:00,540196560197543979,189138,139011,176039,1304
1783334981648170453,2026-07-06T17:49:41.648+07:00,540196560197543979,189172,138978,176014,1323
1783334981666352271,2026-07-06T17:49:41.666+07:00,540196561016477732,189220,138998,176133,1309
1783334981684534089,2026-07-06T17:49:41.684+07:00,540196561016477732,189236,138994,176104,1320
1783334981702715907,2026-07-06T17:49:41.702+07:00,540196561016477732,189258,139001,176183,1359
1783334981720897725,2026-07-06T17:49:41.720+07:00,540196561016477732,189343,139105,176292,1367
1783334981739079543,2026-07-06T17:49:41.739+07:00,540196561016477732,189322,139040,176250,1313
1783334981757261361,2026-07-06T17:49:41.757+07:00,540196561016477732,189343,139161,176371,1359
1783334981775443179,2026-07-06T17:49:41.775+07:00,540196561016477732,189288,139077,176310,1277
1783334981793624997,2026-07-06T17:49:41.793+07:00,540196561016477732,189149,139072,176214,1283
1783334981811806815,2026-07-06T17:49:41.811+07:00,540196561016477732,189118,138975,176111,1331
1783334981829988633,2026-07-06T17:49:41.829+07:00,540196561016477732,189069,138976,176072,1354
1783334981848170451,2026-07-06T17:49:41.848+07:00,540196561016477732,189071,138974,176043,1388
1783334981866352269,2026-07-06T17:49:41.866+07:00,540196561016477732,189021,138866,176016,1305
1783334981884534087,2026-07-06T17:49:41.884+07:00,540196561016477732,188920,138814,175941,1290
1783334981902715905,2026-07-06T17:49:41.902+07:00,540196561016477732,188905,138777,175937,1277
1783334981920897723,2026-07-06T17:49:41.920+07:00,540196561016477732,188841,138750,175846,1243
1783334981939079541,2026-07-06T17:49:41.939+07:00,540196561016477732,188821,138744,175837,1275
1783334981957261359,2026-07-06T17:49:41.957+07:00,540196561016477732,188811,138718,175856,1319
1783334981975443177,2026-07-06T17:49:41.975+07:00,540196561016477732,188849,138765,175856,1270
1783334981993624995,2026-07-06T17:49:41.993+07:00,540196561016477732,188856,138773,175916,1305
1783334982011806813,2026-07-06T17:49:42.011+07:00,540196561016477732,188822,138838,175976,1319
1783334982029988631,2026-07-06T17:49:42.029+07:00,540196561016477732,188828,138786,175934,1288
1783334982048170449,2026-07-06T17:49:42.048+07:00,540196561016477732,188833,138791,176000,1286
1783334982066352267,2026-07-06T17:49:42.066+07:00,540196561016477732,188874,138807,176090,1352
1783334982084534085,2026-07-06T17:49:42.084+07:00,540196561016477732,188891,138803,176148,1356
1783334982102715903,2026-07-06T17:49:42.102+07:00,540196561016477732,188970,138803,176208,1342
1783334982120897721,2026-07-06T17:49:42.120+07:00,540196561016477732,188874,138816,176199,1290
1783334982139079539,2026-07-06T17:49:42.139+07:00,540196561016477732,188961,138866,176320,1322
1783334982157261357,2026-07-06T17:49:42.157+07:00,540196561016477732,189007,138858,176375,1315
1783334982175443175,2026-07-06T17:49:42.175+07:00,540196561016477732,189024,138892,176435,1306
1783334982193624993,2026-07-06T17:49:42.193+07:00,540196561016477732,189014,138865,176463,1274
1783334982211806811,2026-07-06T17:49:42.211+07:00,540196561016477732,189055,138941,176526,1325
1783334982229988629,2026-07-06T17:49:42.229+07:00,540196561016477732,189157,139009,176633,1331
1783334982248170447,2026-07-06T17:49:42.248+07:00,540196561016477732,189156,138981,176641,1358
1783334982266352265,2026-07-06T17:49:42.266+07:00,540196561016477732,189212,138991,176677,1362
1783334982284534083,2026-07-06T17:49:42.284+07:00,540196561016477732,189228,139032,176734,1348
1783334982302715901,2026-07-06T17:49:42.302+07:00,540196561016477732,189251,139140,176805,1258
1783334982320897719,2026-07-06T17:49:42.320+07:00,540196561016477732,189347,139127,176840,1300
1783334982339079537,2026-07-06T17:49:42.339+07:00,540196561016477732,189311,139188,176856,1323
1783334982357261355,2026-07-06T17:49:42.357+07:00,540196561016477732,189360,139114,176896,1360
1783334982375443173,2026-07-06T17:49:42.375+07:00,540196561016477732,189423,139236,176956,1354
1783334982393624991,2026-07-06T17:49:42.393+07:00,540196561016477732,189414,139265,177009,1367
1783334982411806809,2026-07-06T17:49:42.411+07:00,540196561016477732,189398,139304,177020,1283
1783334982429988627,2026-07-06T17:49:42.429+07:00,540196561016477732,189532,139381,177130,1367
1783334982448170445,2026-07-06T17:49:42.448+07:00,540196561016477732,189553,139336,177131,1314
1783334982466352263,2026-07-06T17:49:42.466+07:00,540196561016477732,189534,139371,177208,1282
1783334982484534081,2026-07-06T17:49:42.484+07:00,540196561853580364,189647,139464,177269,1375
1783334982502715899,2026-07-06T17:49:42.502+07:00,540196561853580364,189678,139488,177271,1290
1783334982520897717,2026-07-06T17:49:42.520+07:00,540196561853580364,189729,139508,177303,1320
1783334982539079535,2026-07-06T17:49:42.539+07:00,540196561853580364,189794,139545,177438,1378
1783334982557261353,2026-07-06T17:49:42.557+07:00,540196561853580364,189809,139640,177516,1325
1783334982575443171,2026-07-06T17:49:42.575+07:00,540196561853580364,189926,139717,177589,1344
1783334982593624989,2026-07-06T17:49:42.593+07:00,540196561853580364,189902,139703,177650,1289
1783334982611806807,2026-07-06T17:49:42.611+07:00,540196561853580364,189928,139695,177642,1251
1783334982629988625,2026-07-06T17:49:42.629+07:00,540196561853580364,189936,139688,177616,1318
1783334982648170443,2026-07-06T17:49:42.648+07:00,540196561853580364,189848,139618,177575,1273
1783334982666352261,2026-07-06T17:49:42.666+07:00,540196561853580364,189745,139615,177520,1292
1783334982684534079,2026-07-06T17:49:42.684+07:00,540196561853580364,189746,139583,177469,1360
1783334982702715897,2026-07-06T17:49:42.702+07:00,540196561853580364,189712,139574,177446,1348
1783334982720897715,2026-07-06T17:49:42.720+07:00,540196561853580364,189708,139528,177366,1318
1783334982739079533,2026-07-06T17:49:42.739+07:00,540196561853580364,189646,139577,177394,1373
1783334982757261351,2026-07-06T17:49:42.757+07:00,540196561853580364,189609,139471,177316,1341
1783334982775443169,2026-07-06T17:49:42.775+07:00,540196561853580364,189571,139446,177296,1338
1783334982793624987,2026-07-06T17:49:42.793+07:00,540196561853580364,189562,139486,177300,1299
1783334982811806805,2026-07-06T17:49:42.811+07:00,540196561853580364,189547,139470,177284,1350
1783334982829988623,2026-07-06T17:49:42.829+07:00,540196561853580364,189501,139415,177219,1321
1783334982848170441,2026-07-06T17:49:42.848+07:00,540196561853580364,189520,139468,177304,1324
1783334982866352259,2026-07-06T17:49:42.866+07:00,540196561853580364,189533,139448,177299,1322
1783334982884534077,2026-07-06T17:49:42.884+07:00,540196561853580364,189534,139510,177382,1352
1783334982902715895,2026-07-06T17:49:42.902+07:00,540196561853580364,189615,139511,177349,1318
1783334982920897713,2026-07-06T17:49:42.920+07:00,540196561853580364,189621,139511,177421,1330
1783334982939079531,2026-07-06T17:49:42.939+07:00,540196561853580364,189602,139533,177386,1342
1783334982957261349,2026-07-06T17:49:42.957+07:00,540196561853580364,189675,139559,177470,1383
1783334982975443167,2026-07-06T17:49:42.975+07:00,540196561853580364,189628,139548,177456,1356
1783334982993624985,2026-07-06T17:49:42.993+07:00,540196561853580364,189634,139543,177457,1305
1783334983011806803,2026-07-06T17:49:43.011+07:00,540196561853580364,189645,139612,177445,1298
1783334983029988621,2026-07-06T17:49:43.029+07:00,540196561853580364,189715,139580,177539,1334
1783334983048170439,2026-07-06T17:49:43.048+07:00,540196561853580364,189718,139592,177524,1348
1783334983066352257,2026-07-06T17:49:43.066+07:00,540196561853580364,189705,139578,177514,1322
1783334983084534075,2026-07-06T17:49:43.084+07:00,540196561853580364,189763,139594,177615,1358
1783334983102715893,2026-07-06T17:49:43.102+07:00,540196561853580364,189762,139554,177633,1292
1783334983120897711,2026-07-06T17:49:43.120+07:00,540196561853580364,189790,139630,177661,1286
1783334983139079529,2026-07-06T17:49:43.139+07:00,540196561853580364,189856,139718,177716,1316
1783334983157261347,2026-07-06T17:49:43.157+07:00,540196561853580364,189902,139777,177800,1324
1783334983175443165,2026-07-06T17:49:43.175+07:00,540196561853580364,189903,139790,177845,1320
1783334983193624983,2026-07-06T17:49:43.193+07:00,540196561853580364,189929,139764,177860,1321
1783334983211806801,2026-07-06T17:49:43.211+07:00,540196561853580364,189992,139830,177933,1311
1783334983229988619,2026-07-06T17:49:43.229+07:00,540196561853580364,190042,139812,177989,1318
1783334983248170437,2026-07-06T17:49:43.248+07:00,540196561853580364,190086,139872,178086,1297
1783334983266352255,2026-07-06T17:49:43.266+07:00,540196561853580364,190161,139933,178098,1296
1783334983284534073,2026-07-06T17:49:43.284+07:00,540196561853580364,190196,139971,178155,1319
1783334983302715891,2026-07-06T17:49:43.302+07:00,540196561853580364,190178,139941,178155,1253
1783334983320897709,2026-07-06T17:49:43.320+07:00,540196562654369634,190261,139987,178261,1297
1783334983339079527,2026-07-06T17:49:43.339+07:00,540196562654369634,190355,140080,178366,1321
1783334983357261345,2026-07-06T17:49:43.357+07:00,540196562654369634,190421,140059,178381,1320
1783334983375443163,2026-07-06T17:49:43.375+07:00,540196562654369634,190420,140134,178454,1296
1783334983393624981,2026-07-06T17:49:43.393+07:00,540196562654369634,190555,140186,178516,1334
1783334983411806799,2026-07-06T17:49:43.411+07:00,540196562654369634,190532,140175,178524,1316
1783334983429988617,2026-07-06T17:49:43.429+07:00,540196562654369634,190540,140164,178651,1291
1783334983448170435,2026-07-06T17:49:43.448+07:00,540196562654369634,190617,140291,178714,1286
1783334983466352253,2026-07-06T17:49:43.466+07:00,540196562654369634,190640,140336,178761,1291
1783334983484534071,2026-07-06T17:49:43.484+07:00,540196562654369634,190721,140377,178826,1296
1783334983502715889,2026-07-06T17:49:43.502+07:00,540196562654369634,190773,140380,178827,1290
1783334983520897707,2026-07-06T17:49:43.520+07:00,540196562654369634,190858,140449,178956,1299
1783334983539079525,2026-07-06T17:49:43.539+07:00,540196562654369634,190891,140450,178965,1287
1783334983557261343,2026-07-06T17:49:43.557+07:00,540196562654369634,190862,140472,178940,1336
1783334983575443161,2026-07-06T17:49:43.575+07:00,540196562654369634,190798,140420,178871,1280
1783334983593624979,2026-07-06T17:49:43.593+07:00,540196562654369634,190756,140317,178805,1308
1783334983611806797,2026-07-06T17:49:43.611+07:00,540196562654369634,190678,140334,178764,1354
1783334983629988615,2026-07-06T17:49:43.629+07:00,540196562654369634,190608,140302,178640,1309
1783334983648170433,2026-07-06T17:49:43.648+07:00,540196562654369634,190555,140257,178599,1316
1783334983666352251,2026-07-06T17:49:43.666+07:00,540196562654369634,190600,140239,178547,1319
1783334983684534069,2026-07-06T17:49:43.684+07:00,540196562654369634,190531,140278,178567,1336
1783334983702715887,2026-07-06T17:49:43.702+07:00,540196562654369634,190466,140182,178484,1327
1783334983720897705,2026-07-06T17:49:43.720+07:00,540196562654369634,190465,140219,178529,1356
1783334983739079523,2026-07-06T17:49:43.739+07:00,540196562654369634,190398,140186,178447,1316
1783334983757261341,2026-07-06T17:49:43.757+07:00,540196562654369634,190374,140165,178384,1309
1783334983775443159,2026-07-06T17:49:43.775+07:00,540196562654369634,190378,140209,178443,1319
1783334983793624977,2026-07-06T17:49:43.793+07:00,540196562654369634,190411,140205,178459,1285
1783334983811806795,2026-07-06T17:49:43.811+07:00,540196562654369634,190376,140203,178424,1317
1783334983829988613,2026-07-06T17:49:43.829+07:00,540196562654369634,190392,140181,178467,1316
1783334983848170431,2026-07-06T17:49:43.848+07:00,540196562654369634,190441,140214,178497,1324
1783334983866352249,2026-07-06T17:49:43.866+07:00,540196562654369634,190409,140152,178483,1315
1783334983884534067,2026-07-06T17:49:43.884+07:00,540196562654369634,190422,140182,178543,1299
1783334983902715885,2026-07-06T17:49:43.902+07:00,540196562654369634,190510,140247,178596,1283
1783334983920897703,2026-07-06T17:49:43.920+07:00,540196562654369634,190567,140234,178566,1337
1783334983939079521,2026-07-06T17:49:43.939+07:00,540196562654369634,190521,140219,178567,1268
1783334983957261339,2026-07-06T17:49:43.957+07:00,540196562654369634,190609,140322,178630,1373
1783334983975443157,2026-07-06T17:49:43.975+07:00,540196562654369634,190574,140255,178629,1338
1783334983993624975,2026-07-06T17:49:43.993+07:00,540196562654369634,190574,140315,178678,1337
1783334984011806793,2026-07-06T17:49:44.011+07:00,540196562654369634,190576,140358,178673,1326
1783334984029988611,2026-07-06T17:49:44.029+07:00,540196562654369634,190641,140356,178699,1282
1783334984048170429,2026-07-06T17:49:44.048+07:00,540196562654369634,190681,140407,178799,1362
1783334984066352247,2026-07-06T17:49:44.066+07:00,540196562654369634,190717,140388,178761,1336
1783334984084534065,2026-07-06T17:49:44.084+07:00,540196562654369634,190699,140413,178729,1300
1783334984102715883,2026-07-06T17:49:44.102+07:00,540196562654369634,190775,140501,178804,1339
1783334984120897701,2026-07-06T17:49:44.120+07:00,540196563527910766,190829,140571,178921,1328
1783334984139079519,2026-07-06T17:49:44.139+07:00,540196563527910766,190799,140500,178907,1306
1783334984157261337,2026-07-06T17:49:44.157+07:00,540196563527910766,190849,140532,178948,1319
1783334984175443155,2026-07-06T17:49:44.175+07:00,540196563527910766,190834,140511,178959,1301
1783334984193624973,2026-07-06T17:49:44.193+07:00,540196563527910766,190915,140557,179030,1296
1783334984211806791,2026-07-06T17:49:44.211+07:00,540196563527910766,190992,140582,179043,1304
1783334984229988609,2026-07-06T17:49:44.229+07:00,540196563527910766,190999,140641,179103,1305
1783334984248170427,2026-07-06T17:49:44.248+07:00,540196563527910766,191048,140675,179140,1313
1783334984266352245,2026-07-06T17:49:44.266+07:00,540196563527910766,191060,140658,179143,1322
1783334984284534063,2026-07-06T17:49:44.284+07:00,540196563527910766,191117,140699,179214,1330
1783334984302715881,2026-07-06T17:49:44.302+07:00,540196563527910766,191169,140812,179280,1328
1783334984320897699,2026-07-06T17:49:44.320+07:00,540196563527910766,191232,140873,179329,1380
1783334984339079517,2026-07-06T17:49:44.339+07:00,540196563527910766,191255,140880,179383,1337
1783334984357261335,2026-07-06T17:49:44.357+07:00,540196563527910766,191264,140894,179374,1299
1783334984375443153,2026-07-06T17:49:44.375+07:00,540196563527910766,191282,140931,179487,1328
1783334984393624971,2026-07-06T17:49:44.393+07:00,540196563527910766,191378,140951,179535,1319
1783334984411806789,2026-07-06T17:49:44.411+07:00,540196563527910766,191480,140984,179543,1324
1783334984429988607,2026-07-06T17:49:44.429+07:00,540196563527910766,191537,141070,179631,1382
1783334984448170425,2026-07-06T17:49:44.448+07:00,540196563527910766,191488,141169,179671,1306
1783334984466352243,2026-07-06T17:49:44.466+07:00,540196563527910766,191519,141148,179715,1332
1783334984484534061,2026-07-06T17:49:44.484+07:00,540196563527910766,191506,141096,179681,1366
1783334984502715879,2026-07-06T17:49:44.502+07:00,540196563527910766,191408,141058,179516,1321
1783334984520897697,2026-07-06T17:49:44.520+07:00,540196563527910766,191325,141062,179387,1343
1783334984539079515,2026-07-06T17:49:44.539+07:00,540196563527910766,191263,140933,179277,1368
1783334984557261333,2026-07-06T17:49:44.557+07:00,540196563527910766,191256,140964,179216,1389
1783334984575443151,2026-07-06T17:49:44.575+07:00,540196563527910766,191170,140926,179160,1344
1783334984593624969,2026-07-06T17:49:44.593+07:00,540196563527910766,191117,140945,179143,1389
1783334984611806787,2026-07-06T17:49:44.611+07:00,540196563527910766,191138,140874,179061,1362
1783334984629988605,2026-07-06T17:49:44.629+07:00,540196563527910766,191060,140825,179023,1324
1783334984648170423,2026-07-06T17:49:44.648+07:00,540196563527910766,191036,140878,179026,1326
1783334984666352241,2026-07-06T17:49:44.666+07:00,540196563527910766,191046,140791,178964,1385
1783334984684534059,2026-07-06T17:49:44.684+07:00,540196563527910766,191039,140788,178952,1368
1783334984702715877,2026-07-06T17:49:44.702+07:00,540196563527910766,190954,140772,178952,1357
1783334984720897695,2026-07-06T17:49:44.720+07:00,540196563527910766,190934,140795,178935,1322
1783334984739079513,2026-07-06T17:49:44.739+07:00,540196563527910766,190984,140838,178924,1380
1783334984757261331,2026-07-06T17:49:44.757+07:00,540196563527910766,191001,140728,178892,1406
1783334984775443149,2026-07-06T17:49:44.775+07:00,540196563527910766,191043,140755,178894,1338
1783334984793624967,2026-07-06T17:49:44.793+07:00,540196563527910766,190989,140847,178930,1357
1783334984811806785,2026-07-06T17:49:44.811+07:00,540196563527910766,190982,140812,178897,1315
1783334984829988603,2026-07-06T17:49:44.829+07:00,540196563527910766,190963,140792,178862,1311
1783334984848170421,2026-07-06T17:49:44.848+07:00,540196563527910766,191039,140833,178845,1349
1783334984866352239,2026-07-06T17:49:44.866+07:00,540196563527910766,190952,140773,178837,1343
1783334984884534057,2026-07-06T17:49:44.884+07:00,540196563527910766,190993,140843,178846,1356
1783334984902715875,2026-07-06T17:49:44.902+07:00,540196563527910766,191029,140881,178841,1423
1783334984920897693,2026-07-06T17:49:44.920+07:00,540196563527910766,191014,140855,178861,1399
1783334984939079511,2026-07-06T17:49:44.939+07:00,540196563527910766,191027,140887,178860,1422
1783334984957261329,2026-07-06T17:49:44.957+07:00,540196563527910766,191035,140917,178881,1351
1783334984975443147,2026-07-06T17:49:44.975+07:00,540196563527910766,191054,140915,178877,1336
1783334984993624965,2026-07-06T17:49:44.993+07:00,540196564365004246,191127,140936,178906,1340
1783334985011806783,2026-07-06T17:49:45.011+07:00,540196564365004246,191195,140932,178951,1389
1783334985029988601,2026-07-06T17:49:45.029+07:00,540196564365004246,191202,140957,178944,1324
1783334985048170419,2026-07-06T17:49:45.048+07:00,540196564365004246,191237,140967,179004,1327
1783334985066352237,2026-07-06T17:49:45.066+07:00,540196564365004246,191182,140955,178978,1344
1783334985084534055,2026-07-06T17:49:45.084+07:00,540196564365004246,191230,141010,178949,1315
1783334985102715873,2026-07-06T17:49:45.102+07:00,540196564365004246,191230,141058,179008,1290
1783334985120897691,2026-07-06T17:49:45.120+07:00,540196564365004246,191272,141056,179002,1331
1783334985139079509,2026-07-06T17:49:45.139+07:00,540196564365004246,191319,141107,179091,1349
1783334985157261327,2026-07-06T17:49:45.157+07:00,540196564365004246,191334,141176,179150,1300
1783334985175443145,2026-07-06T17:49:45.175+07:00,540196564365004246,191380,141202,179213,1304
1783334985193624963,2026-07-06T17:49:45.193+07:00,540196564365004246,191393,141202,179207,1313
1783334985211806781,2026-07-06T17:49:45.211+07:00,540196564365004246,191435,141257,179236,1351
1783334985229988599,2026-07-06T17:49:45.229+07:00,540196564365004246,191472,141228,179269,1338
1783334985248170417,2026-07-06T17:49:45.248+07:00,540196564365004246,191511,141305,179395,1367
1783334985266352235,2026-07-06T17:49:45.266+07:00,540196564365004246,191520,141287,179441,1315
1783334985284534053,2026-07-06T17:49:45.284+07:00,540196564365004246,191622,141409,179439,1335
1783334985302715871,2026-07-06T17:49:45.302+07:00,540196564365004246,191626,141354,179472,1304
1783334985320897689,2026-07-06T17:49:45.320+07:00,540196564365004246,191602,141446,179469,1393
1783334985339079507,2026-07-06T17:49:45.339+07:00,540196564365004246,191647,141476,179520,1305
1783334985357261325,2026-07-06T17:49:45.357+07:00,540196564365004246,191767,141474,179505,1368
1783334985375443143,2026-07-06T17:49:45.375+07:00,540196564365004246,191710,141486,179531,1362
1783334985393624961,2026-07-06T17:49:45.393+07:00,540196564365004246,191595,141410,179372,1284
1783334985411806779,2026-07-06T17:49:45.411+07:00,540196564365004246,191482,141408,179231,1307
1783334985429988597,2026-07-06T17:49:45.429+07:00,540196564365004246,191366,141348,179162,1331
1783334985448170415,2026-07-06T17:49:45.448+07:00,540196564365004246,191304,141313,179032,1357
1783334985466352233,2026-07-06T17:49:45.466+07:00,540196564365004246,191294,141312,178903,1357
1783334985484534051,2026-07-06T17:49:45.484+07:00,540196564365004246,191178,141248,178776,1341
1783334985502715869,2026-07-06T17:49:45.502+07:00,540196564365004246,191119,141251,178807,1380
1783334985520897687,2026-07-06T17:49:45.520+07:00,540196564365004246,191132,141216,178800,1414
1783334985539079505,2026-07-06T17:49:45.539+07:00,540196564365004246,191105,141194,178709,1365
1783334985557261323,2026-07-06T17:49:45.557+07:00,540196564365004246,191093,141110,178634,1337
1783334985575443141,2026-07-06T17:49:45.575+07:00,540196564365004246,191084,141163,178600,1339
1783334985593624959,2026-07-06T17:49:45.593+07:00,540196564365004246,191120,141145,178513,1291
1783334985611806777,2026-07-06T17:49:45.611+07:00,540196564365004246,191075,141134,178525,1256
1783334985629988595,2026-07-06T17:49:45.629+07:00,540196564365004246,191061,141165,178542,1259
1783334985648170413,2026-07-06T17:49:45.648+07:00,540196564365004246,191032,141206,178595,1351
1783334985666352231,2026-07-06T17:49:45.666+07:00,540196564365004246,190975,141111,178563,1288
1783334985684534049,2026-07-06T17:49:45.684+07:00,540196564365004246,191063,141121,178524,1330
1783334985702715867,2026-07-06T17:49:45.702+07:00,540196564365004246,190968,141101,178467,1270
1783334985720897685,2026-07-06T17:49:45.720+07:00,540196564365004246,191038,141113,178465,1321
1783334985739079503,2026-07-06T17:49:45.739+07:00,540196564365004246,191029,141151,178495,1316
1783334985757261321,2026-07-06T17:49:45.757+07:00,540196564365004246,190981,141170,178522,1356
1783334985775443139,2026-07-06T17:49:45.775+07:00,540196564365004246,190994,141156,178471,1380
1783334985793624957,2026-07-06T17:49:45.793+07:00,540196564365004246,191005,141219,178501,1352
1783334985811806775,2026-07-06T17:49:45.811+07:00,540196564365004246,191040,141181,178466,1276
1783334985829988593,2026-07-06T17:49:45.829+07:00,540196565202174018,191041,141255,178525,1270
1783334985848170411,2026-07-06T17:49:45.848+07:00,540196565202174018,191014,141260,178493,1275
1783334985866352229,2026-07-06T17:49:45.866+07:00,540196565202174018,191058,141285,178518,1362
1783334985884534047,2026-07-06T17:49:45.884+07:00,540196565202174018,191141,141298,178589,1394
1783334985902715865,2026-07-06T17:49:45.902+07:00,540196565202174018,191129,141308,178587,1349
1783334985920897683,2026-07-06T17:49:45.920+07:00,540196565202174018,191183,141262,178594,1333
1783334985939079501,2026-07-06T17:49:45.939+07:00,540196565202174018,191195,141321,178651,1360
1783334985957261319,2026-07-06T17:49:45.957+07:00,540196565202174018,191181,141299,178678,1380
1783334985975443137,2026-07-06T17:49:45.975+07:00,540196565202174018,191222,141331,178692,1317
1783334985993624955,2026-07-06T17:49:45.993+07:00,540196565202174018,191265,141438,178738,1355
1783334986011806773,2026-07-06T17:49:46.011+07:00,540196565202174018,191275,141486,178803,1341
1783334986029988591,2026-07-06T17:49:46.029+07:00,540196565202174018,191343,141502,178793,1332
1783334986048170409,2026-07-06T17:49:46.048+07:00,540196565202174018,191323,141536,178836,1342
1783334986066352227,2026-07-06T17:49:46.066+07:00,540196565202174018,191297,141491,178770,1266
1783334986084534045,2026-07-06T17:49:46.084+07:00,540196565202174018,191376,141536,178885,1321
1783334986102715863,2026-07-06T17:49:46.102+07:00,540196565202174018,191388,141602,178915,1306
1783334986120897681,2026-07-06T17:49:46.120+07:00,540196565202174018,191430,141649,178928,1357
1783334986139079499,2026-07-06T17:49:46.139+07:00,540196565202174018,191510,141680,178929,1332
1783334986157261317,2026-07-06T17:49:46.157+07:00,540196565202174018,191539,141707,178919,1319
1783334986175443135,2026-07-06T17:49:46.175+07:00,540196565202174018,191550,141750,178956,1326
1783334986193624953,2026-07-06T17:49:46.193+07:00,540196565202174018,191533,141741,178894,1315
1783334986211806771,2026-07-06T17:49:46.211+07:00,540196565202174018,191433,141758,178704,1297
1783334986229988589,2026-07-06T17:49:46.229+07:00,540196565202174018,191427,141750,178563,1318
1783334986248170407,2026-07-06T17:49:46.248+07:00,540196565202174018,191300,141697,178348,1277
1783334986266352225,2026-07-06T17:49:46.266+07:00,540196565202174018,191193,141683,178217,1303
1783334986284534043,2026-07-06T17:49:46.284+07:00,540196565202174018,191033,141665,178095,1252
1783334986302715861,2026-07-06T17:49:46.302+07:00,540196565202174018,190972,141699,177902,1318
1783334986320897679,2026-07-06T17:49:46.320+07:00,540196565202174018,190912,141636,177733,1277
1783334986339079497,2026-07-06T17:49:46.339+07:00,540196565202174018,190957,141647,177741,1322
1783334986357261315,2026-07-06T17:49:46.357+07:00,540196565202174018,190862,141593,177617,1302
1783334986375443133,2026-07-06T17:49:46.375+07:00,540196565202174018,190787,141571,177504,1342
1783334986393624951,2026-07-06T17:49:46.393+07:00,540196565202174018,190709,141536,177316,1277
1783334986411806769,2026-07-06T17:49:46.411+07:00,540196565202174018,190721,141544,177309,1358
1783334986429988587,2026-07-06T17:49:46.429+07:00,540196565202174018,190730,141578,177247,1344
1783334986448170405,2026-07-06T17:49:46.448+07:00,540196565202174018,190668,141476,177170,1274
1783334986466352223,2026-07-06T17:49:46.466+07:00,540196565202174018,190641,141472,177089,1270
1783334986484534041,2026-07-06T17:49:46.484+07:00,540196565202174018,190650,141504,177032,1328
1783334986502715859,2026-07-06T17:49:46.502+07:00,540196565202174018,190573,141551,177021,1339
1783334986520897677,2026-07-06T17:49:46.520+07:00,540196565202174018,190511,141606,176916,1297
1783334986539079495,2026-07-06T17:49:46.539+07:00,540196565202174018,190554,141641,176878,1331
1783334986557261313,2026-07-06T17:49:46.557+07:00,540196565202174018,190540,141586,176863,1318
1783334986575443131,2026-07-06T17:49:46.575+07:00,540196565202174018,190516,141604,176796,1277
1783334986593624949,2026-07-06T17:49:46.593+07:00,540196565202174018,190496,141683,176779,1307
1783334986611806767,2026-07-06T17:49:46.611+07:00,540196565202174018,190558,141696,176776,1313
1783334986629988585,2026-07-06T17:49:46.629+07:00,540196565202174018,190568,141675,176838,1280
1783334986648170403,2026-07-06T17:49:46.648+07:00,540196565202174018,190562,141669,176852,1335
1783334986666352221,2026-07-06T17:49:46.666+07:00,540196566075705996,190555,141649,176861,1325
1783334986684534039,2026-07-06T17:49:46.684+07:00,540196566075705996,190620,141665,176877,1293
1783334986702715857,2026-07-06T17:49:46.702+07:00,540196566075705996,190551,141646,176893,1272
1783334986720897675,2026-07-06T17:49:46.720+07:00,540196566075705996,190627,141681,176953,1344
1783334986739079493,2026-07-06T17:49:46.739+07:00,540196566075705996,190648,141660,177058,1302
1783334986757261311,2026-07-06T17:49:46.757+07:00,540196566075705996,190663,141596,177092,1288
1783334986775443129,2026-07-06T17:49:46.775+07:00,540196566075705996,190710,141612,177180,1282
1783334986793624947,2026-07-06T17:49:46.793+07:00,540196566075705996,190702,141674,177205,1334
1783334986811806765,2026-07-06T17:49:46.811+07:00,540196566075705996,190691,141647,177265,1348
1783334986829988583,2026-07-06T17:49:46.829+07:00,540196566075705996,190701,141629,177366,1373
1783334986848170401,2026-07-06T17:49:46.848+07:00,540196566075705996,190752,141606,177385,1326
1783334986866352219,2026-07-06T17:49:46.866+07:00,540196566075705996,190736,141607,177389,1353
1783334986884534037,2026-07-06T17:49:46.884+07:00,540196566075705996,190764,141647,177499,1349
1783334986902715855,2026-07-06T17:49:46.902+07:00,540196566075705996,190777,141610,177506,1308
1783334986920897673,2026-07-06T17:49:46.920+07:00,540196566075705996,190780,141580,177547,1249
1783334986939079491,2026-07-06T17:49:46.939+07:00,540196566075705996,190782,141596,177638,1304
1783334986957261309,2026-07-06T17:49:46.957+07:00,540196566075705996,190779,141616,177633,1293
1783334986975443127,2026-07-06T17:49:46.975+07:00,540196566075705996,190823,141648,177702,1325
1783334986993624945,2026-07-06T17:49:46.993+07:00,540196566075705996,190884,141649,177781,1375
1783334987011806763,2026-07-06T17:49:47.011+07:00,540196566075705996,190913,141648,177834,1340
1783334987029988581,2026-07-06T17:49:47.029+07:00,540196566075705996,190823,141596,177750,1371
1783334987048170399,2026-07-06T17:49:47.048+07:00,540196566075705996,190657,141559,177618,1354
1783334987066352217,2026-07-06T17:49:47.066+07:00,540196566075705996,190592,141520,177482,1305
1783334987084534035,2026-07-06T17:49:47.084+07:00,540196566075705996,190385,141373,177274,1272
1783334987102715853,2026-07-06T17:49:47.102+07:00,540196566075705996,190361,141338,177216,1293
1783334987120897671,2026-07-06T17:49:47.120+07:00,540196566075705996,190241,141292,177086,1291
1783334987139079489,2026-07-06T17:49:47.139+07:00,540196566075705996,190234,141232,177060,1297
1783334987157261307,2026-07-06T17:49:47.157+07:00,540196566075705996,190152,141211,176986,1322
1783334987175443125,2026-07-06T17:49:47.175+07:00,540196566075705996,190127,141172,176986,1326
1783334987193624943,2026-07-06T17:49:47.193+07:00,540196566075705996,190081,141137,176919,1359
1783334987211806761,2026-07-06T17:49:47.211+07:00,540196566075705996,189970,141124,176802,1335
1783334987229988579,2026-07-06T17:49:47.229+07:00,540196566075705996,189927,141030,176745,1361
1783334987248170397,2026-07-06T17:49:47.248+07:00,540196566075705996,189843,140944,176707,1309
1783334987266352215,2026-07-06T17:49:47.266+07:00,540196566075705996,189824,140993,176670,1303
1783334987284534033,2026-07-06T17:49:47.284+07:00,540196566075705996,189766,140968,176631,1323
1783334987302715851,2026-07-06T17:49:47.302+07:00,540196566075705996,189730,140900,176566,1320
1783334987320897669,2026-07-06T17:49:47.320+07:00,540196566075705996,189752,140910,176517,1297
1783334987339079487,2026-07-06T17:49:47.339+07:00,540196566075705996,189790,140926,176521,1286
1783334987357261305,2026-07-06T17:49:47.357+07:00,540196566075705996,189704,140961,176525,1377
1783334987375443123,2026-07-06T17:49:47.375+07:00,540196566075705996,189664,140912,176478,1316
1783334987393624941,2026-07-06T17:49:47.393+07:00,540196566075705996,189705,140911,176455,1352
1783334987411806759,2026-07-06T17:49:47.411+07:00,540196566075705996,189660,140908,176415,1325
1783334987429988577,2026-07-06T17:49:47.429+07:00,540196566075705996,189672,140960,176431,1377
1783334987448170395,2026-07-06T17:49:47.448+07:00,540196566075705996,189653,140903,176387,1305
1783334987466352213,2026-07-06T17:49:47.466+07:00,540196566075705996,189671,140854,176344,1269
1783334987484534031,2026-07-06T17:49:47.484+07:00,540196566075705996,189688,140932,176452,1336
1783334987502715849,2026-07-06T17:49:47.502+07:00,540196566075705996,189650,140912,176384,1302
1783334987520897667,2026-07-06T17:49:47.520+07:00,540196566075705996,189677,140930,176466,1323
1783334987539079485,2026-07-06T17:49:47.539+07:00,540196566912848304,189722,140880,176479,1392
1783334987557261303,2026-07-06T17:49:47.557+07:00,540196566912848304,189727,140924,176443,1338
1783334987575443121,2026-07-06T17:49:47.575+07:00,540196566912848304,189681,140902,176471,1328
1783334987593624939,2026-07-06T17:49:47.593+07:00,540196566912848304,189724,140926,176491,1324
1783334987611806757,2026-07-06T17:49:47.611+07:00,540196566912848304,189707,140922,176523,1331
1783334987629988575,2026-07-06T17:49:47.629+07:00,540196566912848304,189762,141034,176546,1341
1783334987648170393,2026-07-06T17:49:47.648+07:00,540196566912848304,189705,140979,176513,1372
1783334987666352211,2026-07-06T17:49:47.666+07:00,540196566912848304,189744,141008,176518,1286
1783334987684534029,2026-07-06T17:49:47.684+07:00,540196566912848304,189817,141057,176546,1330
1783334987702715847,2026-07-06T17:49:47.702+07:00,540196566912848304,189812,140996,176584,1339
1783334987720897665,2026-07-06T17:49:47.720+07:00,540196566912848304,189793,141016,176639,1345
1783334987739079483,2026-07-06T17:49:47.739+07:00,540196566912848304,189774,141045,176668,1279
1783334987757261301,2026-07-06T17:49:47.757+07:00,540196566912848304,189839,141027,176638,1333
1783334987775443119,2026-07-06T17:49:47.775+07:00,540196566912848304,189827,141080,176649,1268
1783334987793624937,2026-07-06T17:49:47.793+07:00,540196566912848304,189923,141134,176714,1281
1783334987811806755,2026-07-06T17:49:47.811+07:00,540196566912848304,189930,141146,176755,1320
1783334987829988573,2026-07-06T17:49:47.829+07:00,540196566912848304,189911,141134,176776,1314
1783334987848170391,2026-07-06T17:49:47.848+07:00,540196566912848304,189958,141144,176822,1379
1783334987866352209,2026-07-06T17:49:47.866+07:00,540196566912848304,189984,141207,176759,1384
1783334987884534027,2026-07-06T17:49:47.884+07:00,540196566912848304,189958,141177,176725,1352
1783334987902715845,2026-07-06T17:49:47.902+07:00,540196566912848304,189761,141094,176577,1340
1783334987920897663,2026-07-06T17:49:47.920+07:00,540196566912848304,189605,141067,176453,1328
1783334987939079481,2026-07-06T17:49:47.939+07:00,540196566912848304,189474,140947,176268,1319
1783334987957261299,2026-07-06T17:49:47.957+07:00,540196566912848304,189380,140848,176114,1328
1783334987975443117,2026-07-06T17:49:47.975+07:00,540196566912848304,189287,140812,176026,1358
1783334987993624935,2026-07-06T17:49:47.993+07:00,540196566912848304,189269,140784,175907,1320
1783334988011806753,2026-07-06T17:49:48.011+07:00,540196566912848304,189257,140715,175864,1358
1783334988029988571,2026-07-06T17:49:48.029+07:00,540196566912848304,189112,140669,175777,1339
1783334988048170389,2026-07-06T17:49:48.048+07:00,540196566912848304,189022,140636,175630,1299
1783334988066352207,2026-07-06T17:49:48.066+07:00,540196566912848304,188918,140609,175558,1389
1783334988084534025,2026-07-06T17:49:48.084+07:00,540196566912848304,188853,140560,175460,1339
1783334988102715843,2026-07-06T17:49:48.102+07:00,540196566912848304,188830,140603,175416,1383
1783334988120897661,2026-07-06T17:49:48.120+07:00,540196566912848304,188766,140507,175373,1355
1783334988139079479,2026-07-06T17:49:48.139+07:00,540196566912848304,188800,140518,175386,1362
1783334988157261297,2026-07-06T17:49:48.157+07:00,540196566912848304,188756,140484,175327,1324
1783334988175443115,2026-07-06T17:49:48.175+07:00,540196566912848304,188696,140448,175328,1338
1783334988193624933,2026-07-06T17:49:48.193+07:00,540196566912848304,188664,140439,175234,1231
1783334988211806751,2026-07-06T17:49:48.211+07:00,540196566912848304,188680,140461,175274,1332
1783334988229988569,2026-07-06T17:49:48.229+07:00,540196566912848304,188646,140433,175214,1347
1783334988248170387,2026-07-06T17:49:48.248+07:00,540196566912848304,188628,140447,175190,1306
1783334988266352205,2026-07-06T17:49:48.266+07:00,540196566912848304,188585,140455,175140,1322
1783334988284534023,2026-07-06T17:49:48.284+07:00,540196566912848304,188612,140447,175148,1383
1783334988302715841,2026-07-06T17:49:48.302+07:00,540196566912848304,188551,140415,175081,1313
1783334988320897659,2026-07-06T17:49:48.320+07:00,540196566912848304,188596,140420,175153,1352
1783334988339079477,2026-07-06T17:49:48.339+07:00,540196566912848304,188560,140393,175122,1367
1783334988357261295,2026-07-06T17:49:48.357+07:00,540196566912848304,188600,140382,175054,1316
1783334988375443113,2026-07-06T17:49:48.375+07:00,540196567677223494,188619,140419,175142,1340
1783334988393624931,2026-07-06T17:49:48.393+07:00,540196567677223494,188599,140479,175132,1300
1783334988411806749,2026-07-06T17:49:48.411+07:00,540196567677223494,188537,140375,175098,1298
1783334988429988567,2026-07-06T17:49:48.429+07:00,540196567677223494,188611,140506,175185,1370
1783334988448170385,2026-07-06T17:49:48.448+07:00,540196567677223494,188634,140527,175169,1389
1783334988466352203,2026-07-06T17:49:48.466+07:00,540196567677223494,188618,140531,175199,1327
1783334988484534021,2026-07-06T17:49:48.484+07:00,540196567677223494,188698,140531,175234,1323
1783334988502715839,2026-07-06T17:49:48.502+07:00,540196567677223494,188705,140563,175241,1310
1783334988520897657,2026-07-06T17:49:48.520+07:00,540196567677223494,188700,140606,175291,1367
1783334988539079475,2026-07-06T17:49:48.539+07:00,540196567677223494,188699,140529,175325,1311
1783334988557261293,2026-07-06T17:49:48.557+07:00,540196567677223494,188678,140528,175345,1408
1783334988575443111,2026-07-06T17:49:48.575+07:00,540196567677223494,188762,140596,175397,1348
1783334988593624929,2026-07-06T17:49:48.593+07:00,540196567677223494,188843,140584,175407,1327
1783334988611806747,2026-07-06T17:49:48.611+07:00,540196567677223494,188877,140614,175510,1300
1783334988629988565,2026-07-06T17:49:48.629+07:00,540196567677223494,188889,140661,175561,1340
1783334988648170383,2026-07-06T17:49:48.648+07:00,540196567677223494,188811,140630,175554,1308
1783334988666352201,2026-07-06T17:49:48.666+07:00,540196567677223494,188912,140664,175569,1344
1783334988684534019,2026-07-06T17:49:48.684+07:00,540196567677223494,188793,140626,175495,1291
1783334988702715837,2026-07-06T17:49:48.702+07:00,540196567677223494,188707,140553,175421,1289
1783334988720897655,2026-07-06T17:49:48.720+07:00,540196567677223494,188588,140552,175246,1347
1783334988739079473,2026-07-06T17:49:48.739+07:00,540196567677223494,188526,140432,175104,1326
1783334988757261291,2026-07-06T17:49:48.757+07:00,540196567677223494,188393,140387,174971,1322
1783334988775443109,2026-07-06T17:49:48.775+07:00,540196567677223494,188293,140306,174861,1365
1783334988793624927,2026-07-06T17:49:48.793+07:00,540196567677223494,188238,140293,174780,1356
1783334988811806745,2026-07-06T17:49:48.811+07:00,540196567677223494,188157,140265,174690,1327
1783334988829988563,2026-07-06T17:49:48.829+07:00,540196567677223494,188086,140232,174655,1377
1783334988848170381,2026-07-06T17:49:48.848+07:00,540196567677223494,187929,140104,174476,1306
1783334988866352199,2026-07-06T17:49:48.866+07:00,540196567677223494,187902,140111,174420,1309
1783334988884534017,2026-07-06T17:49:48.884+07:00,540196567677223494,187871,140090,174372,1325
1783334988902715835,2026-07-06T17:49:48.902+07:00,540196567677223494,187794,140110,174259,1316
1783334988920897653,2026-07-06T17:49:48.920+07:00,540196567677223494,187806,140035,174243,1290
1783334988939079471,2026-07-06T17:49:48.939+07:00,540196567677223494,187740,140119,174291,1323
1783334988957261289,2026-07-06T17:49:48.957+07:00,540196567677223494,187831,140108,174246,1321
1783334988975443107,2026-07-06T17:49:48.975+07:00,540196567677223494,187793,140078,174200,1334
1783334988993624925,2026-07-06T17:49:48.993+07:00,540196567677223494,187706,139993,174198,1285
1783334989011806743,2026-07-06T17:49:49.011+07:00,540196567677223494,187700,139997,174161,1280
1783334989029988561,2026-07-06T17:49:49.029+07:00,540196567677223494,187620,140004,174065,1271
1783334989048170379,2026-07-06T17:49:49.048+07:00,540196567677223494,187661,139980,174106,1262
1783334989066352197,2026-07-06T17:49:49.066+07:00,540196567677223494,187650,139989,174028,1301
1783334989084534015,2026-07-06T17:49:49.084+07:00,540196567677223494,187651,140007,174045,1352
1783334989102715833,2026-07-06T17:49:49.102+07:00,540196567677223494,187660,139964,174039,1358
1783334989120897651,2026-07-06T17:49:49.120+07:00,540196567677223494,187701,139952,174041,1314
1783334989139079469,2026-07-06T17:49:49.139+07:00,540196568514396320,187683,140006,174092,1344
1783334989157261287,2026-07-06T17:49:49.157+07:00,540196568514396320,187705,140016,174093,1349
1783334989175443105,2026-07-06T17:49:49.175+07:00,540196568514396320,187729,139999,174080,1326
1783334989193624923,2026-07-06T17:49:49.193+07:00,540196568514396320,187698,140020,174165,1357
1783334989211806741,2026-07-06T17:49:49.211+07:00,540196568514396320,187745,140046,174134,1345
1783334989229988559,2026-07-06T17:49:49.229+07:00,540196568514396320,187750,140037,174113,1307
1783334989248170377,2026-07-06T17:49:49.248+07:00,540196568514396320,187813,140012,174141,1351
1783334989266352195,2026-07-06T17:49:49.266+07:00,540196568514396320,187781,140054,174164,1300
1783334989284534013,2026-07-06T17:49:49.284+07:00,540196568514396320,187898,140066,174307,1404
1783334989302715831,2026-07-06T17:49:49.302+07:00,540196568514396320,187886,140153,174268,1333
1783334989320897649,2026-07-06T17:49:49.320+07:00,540196568514396320,187927,140181,174346,1397
1783334989339079467,2026-07-06T17:49:49.339+07:00,540196568514396320,187964,140169,174368,1341
1783334989357261285,2026-07-06T17:49:49.357+07:00,540196568514396320,187985,140143,174339,1328
1783334989375443103,2026-07-06T17:49:49.375+07:00,540196568514396320,188015,140174,174399,1392
1783334989393624921,2026-07-06T17:49:49.393+07:00,540196568514396320,188031,140151,174464,1360
1783334989411806739,2026-07-06T17:49:49.411+07:00,540196568514396320,188086,140210,174491,1372
1783334989429988557,2026-07-06T17:49:49.429+07:00,540196568514396320,188099,140222,174553,1358
1783334989448170375,2026-07-06T17:49:49.448+07:00,540196568514396320,188166,140206,174584,1345
1783334989466352193,2026-07-06T17:49:49.466+07:00,540196568514396320,188191,140264,174671,1331
1783334989484534011,2026-07-06T17:49:49.484+07:00,540196568514396320,188227,140260,174641,1367
1783334989502715829,2026-07-06T17:49:49.502+07:00,540196568514396320,188133,140223,174598,1359
1783334989520897647,2026-07-06T17:49:49.520+07:00,540196568514396320,188018,140256,174557,1360
1783334989539079465,2026-07-06T17:49:49.539+07:00,540196568514396320,187911,140129,174363,1309
1783334989557261283,2026-07-06T17:49:49.557+07:00,540196568514396320,187844,140166,174280,1357
1783334989575443101,2026-07-06T17:49:49.575+07:00,540196568514396320,187761,140091,174168,1406
1783334989593624919,2026-07-06T17:49:49.593+07:00,540196568514396320,187655,139963,174062,1397
1783334989611806737,2026-07-06T17:49:49.611+07:00,540196568514396320,187587,139955,173925,1342
1783334989629988555,2026-07-06T17:49:49.629+07:00,540196568514396320,187552,139920,173904,1304
1783334989648170373,2026-07-06T17:49:49.648+07:00,540196568514396320,187528,139850,173798,1274
1783334989666352191,2026-07-06T17:49:49.666+07:00,540196568514396320,187460,139827,173759,1296
1783334989684534009,2026-07-06T17:49:49.684+07:00,540196568514396320,187384,139790,173645,1273
1783334989702715827,2026-07-06T17:49:49.702+07:00,540196568514396320,187391,139788,173674,1365
1783334989720897645,2026-07-06T17:49:49.720+07:00,540196568514396320,187302,139784,173602,1313
1783334989739079463,2026-07-06T17:49:49.739+07:00,540196568514396320,187292,139762,173566,1350
1783334989757261281,2026-07-06T17:49:49.757+07:00,540196568514396320,187316,139751,173551,1320
1783334989775443099,2026-07-06T17:49:49.775+07:00,540196568514396320,187319,139810,173530,1360
1783334989793624917,2026-07-06T17:49:49.793+07:00,540196568514396320,187289,139779,173554,1333
1783334989811806735,2026-07-06T17:49:49.811+07:00,540196568514396320,187273,139746,173606,1357
1783334989829988553,2026-07-06T17:49:49.829+07:00,540196568514396320,187287,139759,173554,1317
1783334989848170371,2026-07-06T17:49:49.848+07:00,540196568514396320,187265,139735,173556,1281
1783334989866352189,2026-07-06T17:49:49.866+07:00,540196568514396320,187292,139717,173557,1318
1783334989884534007,2026-07-06T17:49:49.884+07:00,540196568514396320,187304,139735,173589,1290
1783334989902715825,2026-07-06T17:49:49.902+07:00,540196568514396320,187293,139746,173564,1333
1783334989920897643,2026-07-06T17:49:49.920+07:00,540196568514396320,187314,139700,173582,1354
1783334989939079461,2026-07-06T17:49:49.939+07:00,540196568514396320,187354,139744,173564,1313
1783334989957261279,2026-07-06T17:49:49.957+07:00,540196568514396320,187374,139745,173649,1344
1783334989975443097,2026-07-06T17:49:49.975+07:00,540196569315109298,187392,139739,173658,1376
1783334989993624915,2026-07-06T17:49:49.993+07:00,540196569315109298,187426,139796,173699,1355
1783334990011806733,2026-07-06T17:49:50.011+07:00,540196569315109298,187427,139764,173629,1268
1783334990029988551,2026-07-06T17:49:50.029+07:00,540196569315109298,187537,139830,173750,1350
1783334990048170369,2026-07-06T17:49:50.048+07:00,540196569315109298,187510,139880,173788,1330
1783334990066352187,2026-07-06T17:49:50.066+07:00,540196569315109298,187495,139925,173771,1294
1783334990084534005,2026-07-06T17:49:50.084+07:00,540196569315109298,187598,139986,173857,1407
1783334990102715823,2026-07-06T17:49:50.102+07:00,540196569315109298,187555,139863,173790,1303
1783334990120897641,2026-07-06T17:49:50.120+07:00,540196569315109298,187600,139948,173853,1350
1783334990139079459,2026-07-06T17:49:50.139+07:00,540196569315109298,187641,139947,173902,1331
1783334990157261277,2026-07-06T17:49:50.157+07:00,540196569315109298,187709,139978,173932,1375
1783334990175443095,2026-07-06T17:49:50.175+07:00,540196569315109298,187671,139992,173921,1334
1783334990193624913,2026-07-06T17:49:50.193+07:00,540196569315109298,187722,140004,173962,1323
1783334990211806731,2026-07-06T17:49:50.211+07:00,540196569315109298,187795,140043,174018,1360
1783334990229988549,2026-07-06T17:49:50.229+07:00,540196569315109298,187774,140098,174022,1360
1783334990248170367,2026-07-06T17:49:50.248+07:00,540196569315109298,187881,140124,174125,1417
1783334990266352185,2026-07-06T17:49:50.266+07:00,540196569315109298,187850,140132,174127,1375
1783334990284534003,2026-07-06T17:49:50.284+07:00,540196569315109298,187912,140170,174148,1354
1783334990302715821,2026-07-06T17:49:50.302+07:00,540196569315109298,187973,140232,174255,1392
1783334990320897639,2026-07-06T17:49:50.320+07:00,540196569315109298,187954,140216,174245,1402
1783334990339079457,2026-07-06T17:49:50.339+07:00,540196569315109298,187809,140171,174142,1370
1783334990357261275,2026-07-06T17:49:50.357+07:00,540196569315109298,187710,140051,173945,1380
1783334990375443093,2026-07-06T17:49:50.375+07:00,540196569315109298,187634,140034,173790,1310
1783334990393624911,2026-07-06T17:49:50.393+07:00,540196569315109298,187631,140004,173691,1365
1783334990411806729,2026-07-06T17:49:50.411+07:00,540196569315109298,187579,139982,173663,1327
1783334990429988547,2026-07-06T17:49:50.429+07:00,540196569315109298,187518,139915,173643,1315
1783334990448170365,2026-07-06T17:49:50.448+07:00,540196569315109298,187438,139844,173512,1314
1783334990466352183,2026-07-06T17:49:50.466+07:00,540196569315109298,187456,139794,173502,1352
1783334990484534001,2026-07-06T17:49:50.484+07:00,540196569315109298,187400,139790,173385,1311
1783334990502715819,2026-07-06T17:49:50.502+07:00,540196569315109298,187370,139803,173449,1319
1783334990520897637,2026-07-06T17:49:50.520+07:00,540196569315109298,187353,139795,173375,1361
1783334990539079455,2026-07-06T17:49:50.539+07:00,540196569315109298,187351,139770,173380,1374
1783334990557261273,2026-07-06T17:49:50.557+07:00,540196569315109298,187371,139794,173375,1324
1783334990575443091,2026-07-06T17:49:50.575+07:00,540196569315109298,187387,139778,173393,1360
1783334990593624909,2026-07-06T17:49:50.593+07:00,540196569315109298,187456,139821,173530,1420
1783334990611806727,2026-07-06T17:49:50.611+07:00,540196569315109298,187433,139786,173403,1315
1783334990629988545,2026-07-06T17:49:50.629+07:00,540196569315109298,187505,139820,173429,1336
1783334990648170363,2026-07-06T17:49:50.648+07:00,540196569315109298,187488,139864,173481,1387
1783334990666352181,2026-07-06T17:49:50.666+07:00,540196569315109298,187495,139903,173452,1389
1783334990684533999,2026-07-06T17:49:50.684+07:00,540196569315109298,187456,139867,173466,1376
1783334990702715817,2026-07-06T17:49:50.702+07:00,540196569315109298,187521,139851,173469,1353
1783334990720897635,2026-07-06T17:49:50.720+07:00,540196569315109298,187465,139889,173519,1352
1783334990739079453,2026-07-06T17:49:50.739+07:00,540196569315109298,187472,139869,173460,1350
1783334990757261271,2026-07-06T17:49:50.757+07:00,540196569315109298,187535,139889,173532,1321
1783334990775443089,2026-07-06T17:49:50.775+07:00,540196570115852788,187587,139951,173612,1374
1783334990793624907,2026-07-06T17:49:50.793+07:00,540196570115852788,187616,139953,173686,1319
1783334990811806725,2026-07-06T17:49:50.811+07:00,540196570115852788,187676,139966,173672,1351
1783334990829988543,2026-07-06T17:49:50.829+07:00,540196570115852788,187692,140040,173682,1316
1783334990848170361,2026-07-06T17:49:50.848+07:00,540196570115852788,187729,140059,173757,1350
1783334990866352179,2026-07-06T17:49:50.866+07:00,540196570115852788,187734,140091,173757,1403
1783334990884533997,2026-07-06T17:49:50.884+07:00,540196570115852788,187804,140153,173843,1394
1783334990902715815,2026-07-06T17:49:50.902+07:00,540196570115852788,187818,140165,173869,1373
1783334990920897633,2026-07-06T17:49:50.920+07:00,540196570115852788,187880,140212,173908,1375
1783334990939079451,2026-07-06T17:49:50.939+07:00,540196570115852788,187896,140146,173909,1336
1783334990957261269,2026-07-06T17:49:50.957+07:00,540196570115852788,188023,140226,174033,1389
1783334990975443087,2026-07-06T17:49:50.975+07:00,540196570115852788,188055,140236,174021,1366
1783334990993624905,2026-07-06T17:49:50.993+07:00,540196570115852788,188125,140255,174130,1384
1783334991011806723,2026-07-06T17:49:51.011+07:00,540196570115852788,188112,140302,174110,1344
1783334991029988541,2026-07-06T17:49:51.029+07:00,540196570115852788,188186,140279,174208,1377
1783334991048170359,2026-07-06T17:49:51.048+07:00,540196570115852788,188230,140410,174273,1367
1783334991066352177,2026-07-06T17:49:51.066+07:00,540196570115852788,188281,140425,174319,1406
1783334991084533995,2026-07-06T17:49:51.084+07:00,540196570115852788,188358,140467,174376,1401
1783334991102715813,2026-07-06T17:49:51.102+07:00,540196570115852788,188356,140473,174443,1397
1783334991120897631,2026-07-06T17:49:51.120+07:00,540196570115852788,188381,140496,174434,1389
1783334991139079449,2026-07-06T17:49:51.139+07:00,540196570115852788,188363,140519,174470,1362
1783334991157261267,2026-07-06T17:49:51.157+07:00,540196570115852788,188343,140503,174475,1357
1783334991175443085,2026-07-06T17:49:51.175+07:00,540196570115852788,188314,140442,174323,1354
1783334991193624903,2026-07-06T17:49:51.193+07:00,540196570115852788,188245,140418,174308,1322
1783334991211806721,2026-07-06T17:49:51.211+07:00,540196570115852788,188163,140377,174145,1337
1783334991229988539,2026-07-06T17:49:51.229+07:00,540196570115852788,188173,140365,174168,1344
1783334991248170357,2026-07-06T17:49:51.248+07:00,540196570115852788,188167,140391,174159,1361
1783334991266352175,2026-07-06T17:49:51.266+07:00,540196570115852788,188165,140399,174111,1378
1783334991284533993,2026-07-06T17:49:51.284+07:00,540196570115852788,188155,140346,174089,1288
1783334991302715811,2026-07-06T17:49:51.302+07:00,540196570115852788,188187,140377,174158,1338
1783334991320897629,2026-07-06T17:49:51.320+07:00,540196570115852788,188163,140390,174077,1300
1783334991339079447,2026-07-06T17:49:51.339+07:00,540196570115852788,188117,140361,174021,1320
1783334991357261265,2026-07-06T17:49:51.357+07:00,540196570115852788,188173,140386,174056,1314
1783334991375443083,2026-07-06T17:49:51.375+07:00,540196570115852788,188259,140388,174112,1366
1783334991393624901,2026-07-06T17:49:51.393+07:00,540196570115852788,188265,140380,174160,1357
1783334991411806719,2026-07-06T17:49:51.411+07:00,540196570115852788,188303,140482,174236,1338
1783334991429988537,2026-07-06T17:49:51.429+07:00,540196570115852788,188362,140483,174259,1376
1783334991448170355,2026-07-06T17:49:51.448+07:00,540196570115852788,188406,140445,174293,1362
1783334991466352173,2026-07-06T17:49:51.466+07:00,540196570115852788,188406,140514,174319,1405
1783334991484533991,2026-07-06T17:49:51.484+07:00,540196570115852788,188330,140531,174352,1353
1783334991502715809,2026-07-06T17:49:51.502+07:00,540196570115852788,188433,140560,174361,1372
1783334991520897627,2026-07-06T17:49:51.520+07:00,540196570115852788,188473,140602,174350,1327
1783334991539079445,2026-07-06T17:49:51.539+07:00,540196570115852788,188476,140586,174375,1321
1783334991557261263,2026-07-06T17:49:51.557+07:00,540196570115852788,188493,140534,174388,1358
1783334991575443081,2026-07-06T17:49:51.575+07:00,540196570952979836,188549,140633,174500,1322
1783334991593624899,2026-07-06T17:49:51.593+07:00,540196570952979836,188568,140646,174523,1276
1783334991611806717,2026-07-06T17:49:51.611+07:00,540196570952979836,188669,140698,174604,1310
1783334991629988535,2026-07-06T17:49:51.629+07:00,540196570952979836,188730,140741,174695,1358
1783334991648170353,2026-07-06T17:49:51.648+07:00,540196570952979836,188733,140709,174732,1286
1783334991666352171,2026-07-06T17:49:51.666+07:00,540196570952979836,188750,140778,174768,1313
1783334991684533989,2026-07-06T17:49:51.684+07:00,540196570952979836,188872,140881,174865,1314
1783334991702715807,2026-07-06T17:49:51.702+07:00,540196570952979836,188943,140939,174966,1335
1783334991720897625,2026-07-06T17:49:51.720+07:00,540196570952979836,188968,140931,175018,1332
1783334991739079443,2026-07-06T17:49:51.739+07:00,540196570952979836,188969,140953,175046,1352
1783334991757261261,2026-07-06T17:49:51.757+07:00,540196570952979836,189004,140973,175064,1335
1783334991775443079,2026-07-06T17:49:51.775+07:00,540196570952979836,189127,141048,175158,1337
1783334991793624897,2026-07-06T17:49:51.793+07:00,540196570952979836,189171,141083,175277,1365
1783334991811806715,2026-07-06T17:49:51.811+07:00,540196570952979836,189166,141060,175341,1330
1783334991829988533,2026-07-06T17:49:51.829+07:00,540196570952979836,189305,141152,175390,1367
1783334991848170351,2026-07-06T17:49:51.848+07:00,540196570952979836,189351,141215,175490,1362
1783334991866352169,2026-07-06T17:49:51.866+07:00,540196570952979836,189337,141169,175509,1327
1783334991884533987,2026-07-06T17:49:51.884+07:00,540196570952979836,189454,141231,175631,1331
1783334991902715805,2026-07-06T17:49:51.902+07:00,540196570952979836,189505,141340,175662,1310
1783334991920897623,2026-07-06T17:49:51.920+07:00,540196570952979836,189525,141338,175721,1339
1783334991939079441,2026-07-06T17:49:51.939+07:00,540196570952979836,189576,141348,175673,1303
1783334991957261259,2026-07-06T17:49:51.957+07:00,540196570952979836,189574,141354,175688,1303
1783334991975443077,2026-07-06T17:49:51.975+07:00,540196570952979836,189473,141308,175618,1287
1783334991993624895,2026-07-06T17:49:51.993+07:00,540196570952979836,189485,141284,175533,1318
1783334992011806713,2026-07-06T17:49:52.011+07:00,540196570952979836,189432,141281,175543,1333
1783334992029988531,2026-07-06T17:49:52.029+07:00,540196570952979836,189410,141267,175566,1280
1783334992048170349,2026-07-06T17:49:52.048+07:00,540196570952979836,189438,141266,175539,1327
1783334992066352167,2026-07-06T17:49:52.066+07:00,540196570952979836,189402,141323,175513,1296
1783334992084533985,2026-07-06T17:49:52.084+07:00,540196570952979836,189473,141307,175586,1297
1783334992102715803,2026-07-06T17:49:52.102+07:00,540196570952979836,189476,141257,175598,1341
1783334992120897621,2026-07-06T17:49:52.120+07:00,540196570952979836,189485,141282,175605,1340
1783334992139079439,2026-07-06T17:49:52.139+07:00,540196570952979836,189520,141295,175643,1319
1783334992157261257,2026-07-06T17:49:52.157+07:00,540196570952979836,189579,141354,175697,1323
1783334992175443075,2026-07-06T17:49:52.175+07:00,540196570952979836,189673,141347,175718,1322
1783334992193624893,2026-07-06T17:49:52.193+07:00,540196570952979836,189679,141372,175841,1292
1783334992211806711,2026-07-06T17:49:52.211+07:00,540196570952979836,189673,141453,175929,1344
1783334992229988529,2026-07-06T17:49:52.229+07:00,540196570952979836,189758,141465,175960,1371
1783334992248170347,2026-07-06T17:49:52.248+07:00,540196570952979836,189758,141506,176054,1322
1783334992266352165,2026-07-06T17:49:52.266+07:00,540196570952979836,189815,141477,176043,1309
1783334992284533983,2026-07-06T17:49:52.284+07:00,540196570952979836,189810,141497,176067,1326
1783334992302715801,2026-07-06T17:49:52.302+07:00,540196570952979836,189879,141553,176198,1340
1783334992320897619,2026-07-06T17:49:52.320+07:00,540196570952979836,189933,141576,176253,1302
1783334992339079437,2026-07-06T17:49:52.339+07:00,540196570952979836,189983,141646,176295,1252
1783334992357261255,2026-07-06T17:49:52.357+07:00,540196570952979836,190106,141706,176409,1359
1783334992375443073,2026-07-06T17:49:52.375+07:00,540196570952979836,190178,141762,176525,1380
1783334992393624891,2026-07-06T17:49:52.393+07:00,540196570952979836,190251,141807,176602,1373
1783334992411806709,2026-07-06T17:49:52.411+07:00,540196571735519339,190278,141795,176638,1323
1783334992429988527,2026-07-06T17:49:52.429+07:00,540196571735519339,190381,141888,176736,1309
1783334992448170345,2026-07-06T17:49:52.448+07:00,540196571735519339,190425,141972,176833,1379
1783334992466352163,2026-07-06T17:49:52.466+07:00,540196571735519339,190454,141914,176907,1301
1783334992484533981,2026-07-06T17:49:52.484+07:00,540196571735519339,190551,141977,176976,1334
1783334992502715799,2026-07-06T17:49:52.502+07:00,540196571735519339,190569,142006,176974,1349
1783334992520897617,2026-07-06T17:49:52.520+07:00,540196571735519339,190634,142063,177059,1327
1783334992539079435,2026-07-06T17:49:52.539+07:00,540196571735519339,190653,142066,177125,1335
1783334992557261253,2026-07-06T17:49:52.557+07:00,540196571735519339,190699,142172,177235,1339
1783334992575443071,2026-07-06T17:49:52.575+07:00,540196571735519339,190812,142228,177350,1281
1783334992593624889,2026-07-06T17:49:52.593+07:00,540196571735519339,190859,142272,177428,1345
1783334992611806707,2026-07-06T17:49:52.611+07:00,540196571735519339,190937,142239,177459,1284
1783334992629988525,2026-07-06T17:49:52.629+07:00,540196571735519339,191012,142287,177620,1356
1783334992648170343,2026-07-06T17:49:52.648+07:00,540196571735519339,191053,142314,177644,1318
1783334992666352161,2026-07-06T17:49:52.666+07:00,540196571735519339,191152,142366,177796,1299
1783334992684533979,2026-07-06T17:49:52.684+07:00,540196571735519339,191214,142479,177836,1350
1783334992702715797,2026-07-06T17:49:52.702+07:00,540196571735519339,191301,142458,177883,1360
1783334992720897615,2026-07-06T17:49:52.720+07:00,540196571735519339,191356,142516,178005,1324
1783334992739079433,2026-07-06T17:49:52.739+07:00,540196571735519339,191408,142586,178031,1340
1783334992757261251,2026-07-06T17:49:52.757+07:00,540196571735519339,191393,142588,178074,1272
1783334992775443069,2026-07-06T17:49:52.775+07:00,540196571735519339,191456,142595,178071,1322
1783334992793624887,2026-07-06T17:49:52.793+07:00,540196571735519339,191321,142532,177996,1281
1783334992811806705,2026-07-06T17:49:52.811+07:00,540196571735519339,191335,142532,177971,1274
1783334992829988523,2026-07-06T17:49:52.829+07:00,540196571735519339,191334,142527,177953,1291
1783334992848170341,2026-07-06T17:49:52.848+07:00,540196571735519339,191365,142499,177971,1370
1783334992866352159,2026-07-06T17:49:52.866+07:00,540196571735519339,191335,142515,177936,1359
1783334992884533977,2026-07-06T17:49:52.884+07:00,540196571735519339,191301,142494,177932,1310
1783334992902715795,2026-07-06T17:49:52.902+07:00,540196571735519339,191312,142468,177908,1319
1783334992920897613,2026-07-06T17:49:52.920+07:00,540196571735519339,191331,142502,178005,1300
1783334992939079431,2026-07-06T17:49:52.939+07:00,540196571735519339,191361,142531,178028,1342
1783334992957261249,2026-07-06T17:49:52.957+07:00,540196571735519339,191333,142545,178064,1341
1783334992975443067,2026-07-06T17:49:52.975+07:00,540196571735519339,191425,142523,178095,1336
1783334992993624885,2026-07-06T17:49:52.993+07:00,540196571735519339,191434,142572,178145,1342
1783334993011806703,2026-07-06T17:49:53.011+07:00,540196571735519339,191582,142602,178178,1376
1783334993029988521,2026-07-06T17:49:53.029+07:00,540196571735519339,191583,142612,178217,1322
1783334993048170339,2026-07-06T17:49:53.048+07:00,540196571735519339,191544,142565,178244,1334
1783334993066352157,2026-07-06T17:49:53.066+07:00,540196571735519339,191628,142648,178350,1345
1783334993084533975,2026-07-06T17:49:53.084+07:00,540196571735519339,191647,142715,178396,1349
1783334993102715793,2026-07-06T17:49:53.102+07:00,540196571735519339,191673,142683,178428,1319
1783334993120897611,2026-07-06T17:49:53.120+07:00,540196571735519339,191664,142754,178458,1345
1783334993139079429,2026-07-06T17:49:53.139+07:00,540196571735519339,191753,142779,178550,1373
1783334993157261247,2026-07-06T17:49:53.157+07:00,540196571735519339,191829,142770,178537,1377
1783334993175443065,2026-07-06T17:49:53.175+07:00,540196571735519339,191884,142832,178685,1339
1783334993193624883,2026-07-06T17:49:53.193+07:00,540196572554454608,191921,142943,178767,1352
1783334993211806701,2026-07-06T17:49:53.211+07:00,540196572554454608,191943,142933,178826,1378
1783334993229988519,2026-07-06T17:49:53.229+07:00,540196572554454608,192072,142949,178892,1386
1783334993248170337,2026-07-06T17:49:53.248+07:00,540196572554454608,192038,142899,178907,1253
1783334993266352155,2026-07-06T17:49:53.266+07:00,540196572554454608,192147,142986,178991,1308
1783334993284533973,2026-07-06T17:49:53.284+07:00,540196572554454608,192150,143018,179072,1366
1783334993302715791,2026-07-06T17:49:53.302+07:00,540196572554454608,192248,143101,179164,1338
1783334993320897609,2026-07-06T17:49:53.320+07:00,540196572554454608,192360,143130,179248,1332
1783334993339079427,2026-07-06T17:49:53.339+07:00,540196572554454608,192359,143138,179302,1378
1783334993357261245,2026-07-06T17:49:53.357+07:00,540196572554454608,192375,143114,179371,1290
1783334993375443063,2026-07-06T17:49:53.375+07:00,540196572554454608,192401,143174,179391,1330
1783334993393624881,2026-07-06T17:49:53.393+07:00,540196572554454608,192406,143178,179389,1275
1783334993411806699,2026-07-06T17:49:53.411+07:00,540196572554454608,192572,143232,179443,1266
1783334993429988517,2026-07-06T17:49:53.429+07:00,540196572554454608,192653,143325,179599,1321
1783334993448170335,2026-07-06T17:49:53.448+07:00,540196572554454608,192715,143390,179692,1302
1783334993466352153,2026-07-06T17:49:53.466+07:00,540196572554454608,192703,143415,179762,1338
1783334993484533971,2026-07-06T17:49:53.484+07:00,540196572554454608,192749,143395,179843,1380
1783334993502715789,2026-07-06T17:49:53.502+07:00,540196572554454608,192838,143504,179866,1320
1783334993520897607,2026-07-06T17:49:53.520+07:00,540196572554454608,192902,143550,179972,1322
1783334993539079425,2026-07-06T17:49:53.539+07:00,540196572554454608,192964,143517,180029,1291
1783334993557261243,2026-07-06T17:49:53.557+07:00,540196572554454608,192956,143534,180082,1302
1783334993575443061,2026-07-06T17:49:53.575+07:00,540196572554454608,193049,143570,180205,1344
1783334993593624879,2026-07-06T17:49:53.593+07:00,540196572554454608,193137,143634,180320,1332
1783334993611806697,2026-07-06T17:49:53.611+07:00,540196572554454608,193124,143629,180286,1348
1783334993629988515,2026-07-06T17:49:53.629+07:00,540196572554454608,193063,143607,180328,1297
1783334993648170333,2026-07-06T17:49:53.648+07:00,540196572554454608,192999,143609,180282,1336
1783334993666352151,2026-07-06T17:49:53.666+07:00,540196572554454608,192944,143575,180188,1287
1783334993684533969,2026-07-06T17:49:53.684+07:00,540196572554454608,192935,143543,180097,1383
1783334993702715787,2026-07-06T17:49:53.702+07:00,540196572554454608,192940,143570,180100,1365
1783334993720897605,2026-07-06T17:49:53.720+07:00,540196572554454608,192894,143486,180005,1275
1783334993739079423,2026-07-06T17:49:53.739+07:00,540196572554454608,192960,143587,180070,1292
1783334993757261241,2026-07-06T17:49:53.757+07:00,540196572554454608,192927,143584,180095,1332
1783334993775443059,2026-07-06T17:49:53.775+07:00,540196572554454608,192939,143517,180120,1315
1783334993793624877,2026-07-06T17:49:53.793+07:00,540196572554454608,192902,143485,180096,1322
1783334993811806695,2026-07-06T17:49:53.811+07:00,540196572554454608,192895,143499,180088,1337
1783334993829988513,2026-07-06T17:49:53.829+07:00,540196572554454608,192921,143542,180078,1316
1783334993848170331,2026-07-06T17:49:53.848+07:00,540196572554454608,192943,143489,180103,1299
1783334993866352149,2026-07-06T17:49:53.866+07:00,540196572554454608,192985,143563,180208,1335
1783334993884533967,2026-07-06T17:49:53.884+07:00,540196572554454608,192982,143544,180227,1302
1783334993902715785,2026-07-06T17:49:53.902+07:00,540196572554454608,193093,143639,180313,1342
1783334993920897603,2026-07-06T17:49:53.920+07:00,540196572554454608,193031,143641,180295,1339
1783334993939079421,2026-07-06T17:49:53.939+07:00,540196572554454608,193122,143599,180319,1311
1783334993957261239,2026-07-06T17:49:53.957+07:00,540196572554454608,193109,143625,180304,1327
1783334993975443057,2026-07-06T17:49:53.975+07:00,540196572554454608,193088,143591,180348,1306
1783334993993624875,2026-07-06T17:49:53.993+07:00,540196572554454608,193176,143637,180409,1306
1783334994011806693,2026-07-06T17:49:54.011+07:00,540196573391654908,193213,143666,180460,1287
1783334994029988511,2026-07-06T17:49:54.029+07:00,540196573391654908,193184,143647,180553,1260
1783334994048170329,2026-07-06T17:49:54.048+07:00,540196573391654908,193239,143667,180542,1307
1783334994066352147,2026-07-06T17:49:54.066+07:00,540196573391654908,193302,143734,180579,1357
1783334994084533965,2026-07-06T17:49:54.084+07:00,540196573391654908,193323,143812,180668,1392
1783334994102715783,2026-07-06T17:49:54.102+07:00,540196573391654908,193398,143815,180692,1315
1783334994120897601,2026-07-06T17:49:54.120+07:00,540196573391654908,193447,143874,180803,1320
1783334994139079419,2026-07-06T17:49:54.139+07:00,540196573391654908,193466,143761,180874,1354
1783334994157261237,2026-07-06T17:49:54.157+07:00,540196573391654908,193495,143830,180907,1297
1783334994175443055,2026-07-06T17:49:54.175+07:00,540196573391654908,193545,143871,180945,1268
1783334994193624873,2026-07-06T17:49:54.193+07:00,540196573391654908,193537,143912,181040,1332
1783334994211806691,2026-07-06T17:49:54.211+07:00,540196573391654908,193633,143924,180986,1297
1783334994229988509,2026-07-06T17:49:54.229+07:00,540196573391654908,193685,143968,181087,1354
1783334994248170327,2026-07-06T17:49:54.248+07:00,540196573391654908,193717,143980,181141,1337
1783334994266352145,2026-07-06T17:49:54.266+07:00,540196573391654908,193761,144039,181187,1307
1783334994284533963,2026-07-06T17:49:54.284+07:00,540196573391654908,193781,143975,181286,1301
1783334994302715781,2026-07-06T17:49:54.302+07:00,540196573391654908,193854,144058,181318,1334
1783334994320897599,2026-07-06T17:49:54.320+07:00,540196573391654908,193895,144088,181360,1351
1783334994339079417,2026-07-06T17:49:54.339+07:00,540196573391654908,193942,144127,181421,1330
1783334994357261235,2026-07-06T17:49:54.357+07:00,540196573391654908,194009,144113,181504,1309
1783334994375443053,2026-07-06T17:49:54.375+07:00,540196573391654908,193973,144198,181619,1335
1783334994393624871,2026-07-06T17:49:54.393+07:00,540196573391654908,194076,144192,181651,1333
1783334994411806689,2026-07-06T17:49:54.411+07:00,540196573391654908,194111,144303,181736,1345
1783334994429988507,2026-07-06T17:49:54.429+07:00,540196573391654908,194208,144224,181722,1331
1783334994448170325,2026-07-06T17:49:54.448+07:00,540196573391654908,194266,144257,181780,1311
1783334994466352143,2026-07-06T17:49:54.466+07:00,540196573391654908,194320,144277,181875,1348
1783334994484533961,2026-07-06T17:49:54.484+07:00,540196573391654908,194285,144291,181910,1315
1783334994502715779,2026-07-06T17:49:54.502+07:00,540196573391654908,194352,144387,181967,1348
1783334994520897597,2026-07-06T17:49:54.520+07:00,540196573391654908,194290,144348,181950,1350
1783334994539079415,2026-07-06T17:49:54.539+07:00,540196573391654908,194212,144269,181797,1367
1783334994557261233,2026-07-06T17:49:54.557+07:00,540196573391654908,194154,144230,181691,1378
1783334994575443051,2026-07-06T17:49:54.575+07:00,540196573391654908,194053,144204,181599,1343
1783334994593624869,2026-07-06T17:49:54.593+07:00,540196573391654908,194012,144123,181522,1335
1783334994611806687,2026-07-06T17:49:54.611+07:00,540196573391654908,193951,144165,181514,1277
1783334994629988505,2026-07-06T17:49:54.629+07:00,540196573391654908,193957,144084,181513,1347
1783334994648170323,2026-07-06T17:49:54.648+07:00,540196573391654908,193928,144035,181494,1344
1783334994666352141,2026-07-06T17:49:54.666+07:00,540196573391654908,193870,144082,181456,1348
1783334994684533959,2026-07-06T17:49:54.684+07:00,540196573391654908,193891,144049,181454,1321
1783334994702715777,2026-07-06T17:49:54.702+07:00,540196573391654908,193790,144001,181421,1336
1783334994720897595,2026-07-06T17:49:54.720+07:00,540196573391654908,193803,143951,181425,1263
1783334994739079413,2026-07-06T17:49:54.739+07:00,540196573391654908,193812,143957,181464,1317
1783334994757261231,2026-07-06T17:49:54.757+07:00,540196573391654908,193833,143946,181501,1342
1783334994775443049,2026-07-06T17:49:54.775+07:00,540196573391654908,193825,143950,181546,1355
1783334994793624867,2026-07-06T17:49:54.793+07:00,540196573391654908,193805,143965,181476,1319
1783334994811806685,2026-07-06T17:49:54.811+07:00,540196573391654908,193833,143980,181513,1334
1783334994829988503,2026-07-06T17:49:54.829+07:00,540196573391654908,193860,143978,181559,1327
1783334994848170321,2026-07-06T17:49:54.848+07:00,540196574228766700,193860,143935,181559,1357
1783334994866352139,2026-07-06T17:49:54.866+07:00,540196574228766700,193857,143986,181568,1389
1783334994884533957,2026-07-06T17:49:54.884+07:00,540196574228766700,193837,144007,181598,1319
1783334994902715775,2026-07-06T17:49:54.902+07:00,540196574228766700,193840,143991,181616,1374
1783334994920897593,2026-07-06T17:49:54.920+07:00,540196574228766700,193870,143960,181547,1355
1783334994939079411,2026-07-06T17:49:54.939+07:00,540196574228766700,193833,144019,181636,1410
1783334994957261229,2026-07-06T17:49:54.957+07:00,540196574228766700,193844,144071,181658,1380
1783334994975443047,2026-07-06T17:49:54.975+07:00,540196574228766700,193903,144011,181630,1324
1783334994993624865,2026-07-06T17:49:54.993+07:00,540196574228766700,193934,144059,181701,1320
1783334995011806683,2026-07-06T17:49:55.011+07:00,540196574228766700,193913,144009,181747,1352
1783334995029988501,2026-07-06T17:49:55.029+07:00,540196574228766700,193939,144050,181737,1339
1783334995048170319,2026-07-06T17:49:55.048+07:00,540196574228766700,193955,144045,181744,1351
1783334995066352137,2026-07-06T17:49:55.066+07:00,540196574228766700,193940,143981,181775,1300
1783334995084533955,2026-07-06T17:49:55.084+07:00,540196574228766700,193976,144056,181842,1376
1783334995102715773,2026-07-06T17:49:55.102+07:00,540196574228766700,193923,143988,181777,1380
1783334995120897591,2026-07-06T17:49:55.120+07:00,540196574228766700,193971,144022,181828,1322
1783334995139079409,2026-07-06T17:49:55.139+07:00,540196574228766700,193977,144041,181921,1378
1783334995157261227,2026-07-06T17:49:55.157+07:00,540196574228766700,194048,144086,181927,1324
1783334995175443045,2026-07-06T17:49:55.175+07:00,540196574228766700,194072,144090,181967,1368
1783334995193624863,2026-07-06T17:49:55.193+07:00,540196574228766700,194100,144145,182040,1388
1783334995211806681,2026-07-06T17:49:55.211+07:00,540196574228766700,194132,144120,182005,1306
1783334995229988499,2026-07-06T17:49:55.229+07:00,540196574228766700,194130,144099,182114,1288
1783334995248170317,2026-07-06T17:49:55.248+07:00,540196574228766700,194129,144100,182094,1250
1783334995266352135,2026-07-06T17:49:55.266+07:00,540196574228766700,194214,144146,182225,1337
1783334995284533953,2026-07-06T17:49:55.284+07:00,540196574228766700,194196,144196,182264,1334
1783334995302715771,2026-07-06T17:49:55.302+07:00,540196574228766700,194297,144182,182319,1326
1783334995320897589,2026-07-06T17:49:55.320+07:00,540196574228766700,194233,144152,182298,1302
1783334995339079407,2026-07-06T17:49:55.339+07:00,540196574228766700,194334,144226,182400,1292
1783334995357261225,2026-07-06T17:49:55.357+07:00,540196574228766700,194319,144232,182405,1313
1783334995375443043,2026-07-06T17:49:55.375+07:00,540196574228766700,194356,144286,182453,1257
1783334995393624861,2026-07-06T17:49:55.393+07:00,540196574228766700,194400,144265,182486,1325
1783334995411806679,2026-07-06T17:49:55.411+07:00,540196574228766700,194387,144301,182535,1310
1783334995429988497,2026-07-06T17:49:55.429+07:00,540196574228766700,194331,144250,182468,1370
1783334995448170315,2026-07-06T17:49:55.448+07:00,540196574228766700,194242,144150,182355,1318
1783334995466352133,2026-07-06T17:49:55.466+07:00,540196574228766700,194122,144113,182227,1308
1783334995484533951,2026-07-06T17:49:55.484+07:00,540196574228766700,194058,144068,182095,1284
1783334995502715769,2026-07-06T17:49:55.502+07:00,540196574228766700,193977,144008,182002,1321
1783334995520897587,2026-07-06T17:49:55.520+07:00,540196574228766700,193892,143953,181886,1331
1783334995539079405,2026-07-06T17:49:55.539+07:00,540196574228766700,193788,143944,181889,1377
1783334995557261223,2026-07-06T17:49:55.557+07:00,540196574228766700,193750,143853,181830,1296
1783334995575443041,2026-07-06T17:49:55.575+07:00,540196574228766700,193737,143781,181780,1281
1783334995593624859,2026-07-06T17:49:55.593+07:00,540196574228766700,193699,143822,181752,1313
1783334995611806677,2026-07-06T17:49:55.611+07:00,540196574228766700,193614,143747,181679,1304
1783334995629988495,2026-07-06T17:49:55.629+07:00,540196574228766700,193510,143635,181575,1315
1783334995648170313,2026-07-06T17:49:55.648+07:00,540196574228766700,193526,143671,181503,1288
1783334995666352131,2026-07-06T17:49:55.666+07:00,540196574228766700,193468,143653,181540,1372
1783334995684533949,2026-07-06T17:49:55.684+07:00,540196575047740115,193523,143609,181516,1366
1783334995702715767,2026-07-06T17:49:55.702+07:00,540196575047740115,193479,143638,181515,1361
1783334995720897585,2026-07-06T17:49:55.720+07:00,540196575047740115,193457,143618,181453,1315
1783334995739079403,2026-07-06T17:49:55.739+07:00,540196575047740115,193458,143632,181461,1315
1783334995757261221,2026-07-06T17:49:55.757+07:00,540196575047740115,193328,143533,181397,1306
1783334995775443039,2026-07-06T17:49:55.775+07:00,540196575047740115,193339,143583,181369,1333
1783334995793624857,2026-07-06T17:49:55.793+07:00,540196575047740115,193279,143488,181279,1306
1783334995811806675,2026-07-06T17:49:55.811+07:00,540196575047740115,193327,143505,181381,1326
1783334995829988493,2026-07-06T17:49:55.829+07:00,540196575047740115,193292,143496,181319,1287
1783334995848170311,2026-07-06T17:49:55.848+07:00,540196575047740115,193276,143508,181349,1287
1783334995866352129,2026-07-06T17:49:55.866+07:00,540196575047740115,193307,143519,181331,1336
1783334995884533947,2026-07-06T17:49:55.884+07:00,540196575047740115,193311,143478,181314,1345
1783334995902715765,2026-07-06T17:49:55.902+07:00,540196575047740115,193280,143407,181306,1304
1783334995920897583,2026-07-06T17:49:55.920+07:00,540196575047740115,193259,143441,181296,1303
1783334995939079401,2026-07-06T17:49:55.939+07:00,540196575047740115,193290,143451,181315,1299
1783334995957261219,2026-07-06T17:49:55.957+07:00,540196575047740115,193266,143464,181376,1301
1783334995975443037,2026-07-06T17:49:55.975+07:00,540196575047740115,193230,143444,181310,1304
1783334995993624855,2026-07-06T17:49:55.993+07:00,540196575047740115,193227,143404,181318,1287
1783334996011806673,2026-07-06T17:49:56.011+07:00,540196575047740115,193249,143357,181257,1285
1783334996029988491,2026-07-06T17:49:56.029+07:00,540196575047740115,193219,143382,181275,1334
1783334996048170309,2026-07-06T17:49:56.048+07:00,540196575047740115,193273,143455,181357,1353
1783334996066352127,2026-07-06T17:49:56.066+07:00,540196575047740115,193238,143472,181326,1332
1783334996084533945,2026-07-06T17:49:56.084+07:00,540196575047740115,193298,143498,181421,1399
1783334996102715763,2026-07-06T17:49:56.102+07:00,540196575047740115,193269,143466,181338,1320
1783334996120897581,2026-07-06T17:49:56.120+07:00,540196575047740115,193299,143502,181388,1298
1783334996139079399,2026-07-06T17:49:56.139+07:00,540196575047740115,193292,143520,181396,1301
1783334996157261217,2026-07-06T17:49:56.157+07:00,540196575047740115,193377,143498,181451,1337
1783334996175443035,2026-07-06T17:49:56.175+07:00,540196575047740115,193388,143488,181479,1282
1783334996193624853,2026-07-06T17:49:56.193+07:00,540196575047740115,193383,143464,181467,1300
1783334996211806671,2026-07-06T17:49:56.211+07:00,540196575047740115,193382,143538,181510,1327
1783334996229988489,2026-07-06T17:49:56.229+07:00,540196575047740115,193285,143457,181500,1264
1783334996248170307,2026-07-06T17:49:56.248+07:00,540196575047740115,193344,143515,181496,1269
1783334996266352125,2026-07-06T17:49:56.266+07:00,540196575047740115,193360,143464,181483,1265
1783334996284533943,2026-07-06T17:49:56.284+07:00,540196575047740115,193344,143473,181469,1305
1783334996302715761,2026-07-06T17:49:56.302+07:00,540196575047740115,193223,143387,181372,1237
1783334996320897579,2026-07-06T17:49:56.320+07:00,540196575047740115,193138,143407,181280,1292
1783334996339079397,2026-07-06T17:49:56.339+07:00,540196575047740115,193007,143370,181091,1315
1783334996357261215,2026-07-06T17:49:56.357+07:00,540196575047740115,192859,143260,180919,1292
1783334996375443033,2026-07-06T17:49:56.375+07:00,540196575047740115,192764,143185,180823,1240
1783334996393624851,2026-07-06T17:49:56.393+07:00,540196575047740115,192765,143128,180722,1287
1783334996411806669,2026-07-06T17:49:56.411+07:00,540196575047740115,192683,143040,180652,1316
1783334996429988487,2026-07-06T17:49:56.429+07:00,540196575047740115,192619,142957,180580,1298
1783334996448170305,2026-07-06T17:49:56.448+07:00,540196575047740115,192603,143040,180587,1325
1783334996466352123,2026-07-06T17:49:56.466+07:00,540196575047740115,192469,142959,180424,1317
1783334996484533941,2026-07-06T17:49:56.484+07:00,540196575047740115,192380,142934,180402,1328
1783334996502715759,2026-07-06T17:49:56.502+07:00,540196575866683020,192391,142838,180408,1341
1783334996520897577,2026-07-06T17:49:56.520+07:00,540196575866683020,192285,142764,180337,1272
1783334996539079395,2026-07-06T17:49:56.539+07:00,540196575866683020,192280,142713,180337,1389
1783334996557261213,2026-07-06T17:49:56.557+07:00,540196575866683020,192322,142753,180285,1349
1783334996575443031,2026-07-06T17:49:56.575+07:00,540196575866683020,192250,142662,180259,1309
1783334996593624849,2026-07-06T17:49:56.593+07:00,540196575866683020,192169,142681,180221,1302
1783334996611806667,2026-07-06T17:49:56.611+07:00,540196575866683020,192216,142711,180252,1399
1783334996629988485,2026-07-06T17:49:56.629+07:00,540196575866683020,192185,142602,180176,1369
1783334996648170303,2026-07-06T17:49:56.648+07:00,540196575866683020,192151,142680,180143,1369
1783334996666352121,2026-07-06T17:49:56.666+07:00,540196575866683020,192128,142666,180176,1326
1783334996684533939,2026-07-06T17:49:56.684+07:00,540196575866683020,192085,142598,180159,1301
1783334996702715757,2026-07-06T17:49:56.702+07:00,540196575866683020,192043,142575,180086,1317
1783334996720897575,2026-07-06T17:49:56.720+07:00,540196575866683020,192052,142655,180153,1358
1783334996739079393,2026-07-06T17:49:56.739+07:00,540196575866683020,192036,142567,180115,1324
1783334996757261211,2026-07-06T17:49:56.757+07:00,540196575866683020,192021,142589,180130,1336
1783334996775443029,2026-07-06T17:49:56.775+07:00,540196575866683020,192035,142600,180184,1383
1783334996793624847,2026-07-06T17:49:56.793+07:00,540196575866683020,192065,142577,180156,1325
1783334996811806665,2026-07-06T17:49:56.811+07:00,540196575866683020,192052,142575,180126,1316
1783334996829988483,2026-07-06T17:49:56.829+07:00,540196575866683020,191945,142563,180121,1314
1783334996848170301,2026-07-06T17:49:56.848+07:00,540196575866683020,191957,142559,180142,1297
1783334996866352119,2026-07-06T17:49:56.866+07:00,540196575866683020,192021,142579,180123,1315
1783334996884533937,2026-07-06T17:49:56.884+07:00,540196575866683020,191939,142585,180173,1287
1783334996902715755,2026-07-06T17:49:56.902+07:00,540196575866683020,192019,142623,180212,1282
1783334996920897573,2026-07-06T17:49:56.920+07:00,540196575866683020,191956,142592,180234,1274
1783334996939079391,2026-07-06T17:49:56.939+07:00,540196575866683020,191985,142597,180242,1252
1783334996957261209,2026-07-06T17:49:56.957+07:00,540196575866683020,192006,142587,180275,1315
1783334996975443027,2026-07-06T17:49:56.975+07:00,540196575866683020,192043,142617,180258,1324
1783334996993624845,2026-07-06T17:49:56.993+07:00,540196575866683020,192112,142593,180301,1311
1783334997011806663,2026-07-06T17:49:57.011+07:00,540196575866683020,192086,142619,180333,1291
1783334997029988481,2026-07-06T17:49:57.029+07:00,540196575866683020,192050,142609,180307,1334
1783334997048170299,2026-07-06T17:49:57.048+07:00,540196575866683020,192033,142717,180350,1294
1783334997066352117,2026-07-06T17:49:57.066+07:00,540196575866683020,192101,142683,180407,1343
1783334997084533935,2026-07-06T17:49:57.084+07:00,540196575866683020,192021,142652,180333,1307
1783334997102715753,2026-07-06T17:49:57.102+07:00,540196575866683020,191922,142653,180202,1353
1783334997120897571,2026-07-06T17:49:57.120+07:00,540196575866683020,191769,142498,180024,1332
1783334997139079389,2026-07-06T17:49:57.139+07:00,540196575866683020,191657,142482,179900,1388
1783334997157261207,2026-07-06T17:49:57.157+07:00,540196575866683020,191603,142452,179767,1404
1783334997175443025,2026-07-06T17:49:57.175+07:00,540196575866683020,191500,142312,179610,1294
1783334997193624843,2026-07-06T17:49:57.193+07:00,540196575866683020,191382,142248,179543,1273
1783334997211806661,2026-07-06T17:49:57.211+07:00,540196575866683020,191340,142217,179430,1349
1783334997229988479,2026-07-06T17:49:57.229+07:00,540196575866683020,191228,142137,179431,1338
1783334997248170297,2026-07-06T17:49:57.248+07:00,540196575866683020,191093,142046,179258,1284
1783334997266352115,2026-07-06T17:49:57.266+07:00,540196575866683020,191016,142022,179201,1266
1783334997284533933,2026-07-06T17:49:57.284+07:00,540196575866683020,190997,141994,179186,1292
1783334997302715751,2026-07-06T17:49:57.302+07:00,540196575866683020,190930,141898,179088,1290
1783334997320897569,2026-07-06T17:49:57.320+07:00,540196576722024737,190876,141919,179103,1332
1783334997339079387,2026-07-06T17:49:57.339+07:00,540196576722024737,190864,141875,179058,1292
1783334997357261205,2026-07-06T17:49:57.357+07:00,540196576722024737,190755,141807,179029,1292
1783334997375443023,2026-07-06T17:49:57.375+07:00,540196576722024737,190756,141835,178994,1350
1783334997393624841,2026-07-06T17:49:57.393+07:00,540196576722024737,190703,141832,178970,1314
1783334997411806659,2026-07-06T17:49:57.411+07:00,540196576722024737,190714,141781,178980,1298
1783334997429988477,2026-07-06T17:49:57.429+07:00,540196576722024737,190676,141746,178876,1283
1783334997448170295,2026-07-06T17:49:57.448+07:00,540196576722024737,190667,141727,178906,1284
1783334997466352113,2026-07-06T17:49:57.466+07:00,540196576722024737,190622,141736,178920,1279
1783334997484533931,2026-07-06T17:49:57.484+07:00,540196576722024737,190579,141735,178892,1302
1783334997502715749,2026-07-06T17:49:57.502+07:00,540196576722024737,190562,141741,178858,1289
1783334997520897567,2026-07-06T17:49:57.520+07:00,540196576722024737,190595,141714,178846,1328
1783334997539079385,2026-07-06T17:49:57.539+07:00,540196576722024737,190544,141725,178842,1324
1783334997557261203,2026-07-06T17:49:57.557+07:00,540196576722024737,190522,141727,178842,1275
1783334997575443021,2026-07-06T17:49:57.575+07:00,540196576722024737,190572,141687,178902,1274
1783334997593624839,2026-07-06T17:49:57.593+07:00,540196576722024737,190567,141671,178920,1276
1783334997611806657,2026-07-06T17:49:57.611+07:00,540196576722024737,190582,141658,178968,1279
1783334997629988475,2026-07-06T17:49:57.629+07:00,540196576722024737,190586,141728,178983,1286
1783334997648170293,2026-07-06T17:49:57.648+07:00,540196576722024737,190571,141718,179017,1353
1783334997666352111,2026-07-06T17:49:57.666+07:00,540196576722024737,190613,141748,179082,1287
1783334997684533929,2026-07-06T17:49:57.684+07:00,540196576722024737,190579,141775,179031,1339
1783334997702715747,2026-07-06T17:49:57.702+07:00,540196576722024737,190635,141784,179055,1370
1783334997720897565,2026-07-06T17:49:57.720+07:00,540196576722024737,190662,141834,179088,1390
1783334997739079383,2026-07-06T17:49:57.739+07:00,540196576722024737,190611,141796,179028,1301
1783334997757261201,2026-07-06T17:49:57.757+07:00,540196576722024737,190629,141837,179027,1305
1783334997775443019,2026-07-06T17:49:57.775+07:00,540196576722024737,190626,141817,178991,1269
1783334997793624837,2026-07-06T17:49:57.793+07:00,540196576722024737,190634,141862,178955,1307
1783334997811806655,2026-07-06T17:49:57.811+07:00,540196576722024737,190533,141813,178864,1281
1783334997829988473,2026-07-06T17:49:57.829+07:00,540196576722024737,190569,141826,178895,1315
1783334997848170291,2026-07-06T17:49:57.848+07:00,540196576722024737,190607,141908,178861,1341
1783334997866352109,2026-07-06T17:49:57.866+07:00,540196576722024737,190531,141884,178867,1324
1783334997884533927,2026-07-06T17:49:57.884+07:00,540196576722024737,190562,141901,178929,1296
1783334997902715745,2026-07-06T17:49:57.902+07:00,540196576722024737,190635,141893,178947,1268
1783334997920897563,2026-07-06T17:49:57.920+07:00,540196576722024737,190641,141903,178944,1270
1783334997939079381,2026-07-06T17:49:57.939+07:00,540196576722024737,190633,141885,178965,1307
1783334997957261199,2026-07-06T17:49:57.957+07:00,540196576722024737,190620,141910,178887,1349
1783334997975443017,2026-07-06T17:49:57.975+07:00,540196576722024737,190472,141872,178763,1342
1783334997993624835,2026-07-06T17:49:57.993+07:00,540196576722024737,190356,141786,178695,1337
1783334998011806653,2026-07-06T17:49:58.011+07:00,540196576722024737,190191,141724,178490,1344
1783334998029988471,2026-07-06T17:49:58.029+07:00,540196576722024737,190097,141637,178399,1318
1783334998048170289,2026-07-06T17:49:58.048+07:00,540196576722024737,189977,141537,178204,1339
1783334998066352107,2026-07-06T17:49:58.066+07:00,540196576722024737,189821,141488,178159,1291
1783334998084533925,2026-07-06T17:49:58.084+07:00,540196576722024737,189834,141475,178158,1358
1783334998102715743,2026-07-06T17:49:58.102+07:00,540196576722024737,189691,141376,178082,1307
1783334998120897561,2026-07-06T17:49:58.120+07:00,540196576722024737,189689,141354,177991,1367
1783334998139079379,2026-07-06T17:49:58.139+07:00,540196576722024737,189550,141322,177829,1277
1783334998157261197,2026-07-06T17:49:58.157+07:00,540196576722024737,189482,141286,177708,1332
1783334998175443015,2026-07-06T17:49:58.175+07:00,540196577595596381,189467,141277,177601,1311
1783334998193624833,2026-07-06T17:49:58.193+07:00,540196577595596381,189419,141268,177501,1297
1783334998211806651,2026-07-06T17:49:58.211+07:00,540196577595596381,189442,141279,177491,1316
1783334998229988469,2026-07-06T17:49:58.229+07:00,540196577595596381,189384,141244,177381,1325
1783334998248170287,2026-07-06T17:49:58.248+07:00,540196577595596381,189318,141274,177293,1324
1783334998266352105,2026-07-06T17:49:58.266+07:00,540196577595596381,189309,141290,177218,1317
1783334998284533923,2026-07-06T17:49:58.284+07:00,540196577595596381,189300,141234,177159,1341
1783334998302715741,2026-07-06T17:49:58.302+07:00,540196577595596381,189268,141220,177102,1319
1783334998320897559,2026-07-06T17:49:58.320+07:00,540196577595596381,189270,141263,177020,1378
1783334998339079377,2026-07-06T17:49:58.339+07:00,540196577595596381,189226,141206,176970,1301
1783334998357261195,2026-07-06T17:49:58.357+07:00,540196577595596381,189131,141192,176962,1298
1783334998375443013,2026-07-06T17:49:58.375+07:00,540196577595596381,189056,141177,176872,1184
1783334998393624831,2026-07-06T17:49:58.393+07:00,540196577595596381,189040,141188,176928,1306
1783334998411806649,2026-07-06T17:49:58.411+07:00,540196577595596381,189089,141165,176891,1317
1783334998429988467,2026-07-06T17:49:58.429+07:00,540196577595596381,189013,141173,176938,1291
1783334998448170285,2026-07-06T17:49:58.448+07:00,540196577595596381,189013,141165,177015,1293
1783334998466352103,2026-07-06T17:49:58.466+07:00,540196577595596381,189025,141190,177026,1287
1783334998484533921,2026-07-06T17:49:58.484+07:00,540196577595596381,189020,141155,177000,1336
1783334998502715739,2026-07-06T17:49:58.502+07:00,540196577595596381,188992,141084,177035,1317
1783334998520897557,2026-07-06T17:49:58.520+07:00,540196577595596381,189022,141102,177038,1323
1783334998539079375,2026-07-06T17:49:58.539+07:00,540196577595596381,188962,141036,177041,1289
1783334998557261193,2026-07-06T17:49:58.557+07:00,540196577595596381,189005,141061,177046,1291
1783334998575443011,2026-07-06T17:49:58.575+07:00,540196577595596381,189004,141095,177069,1313
1783334998593624829,2026-07-06T17:49:58.593+07:00,540196577595596381,188988,141112,177002,1254
1783334998611806647,2026-07-06T17:49:58.611+07:00,540196577595596381,188987,141061,177014,1264
1783334998629988465,2026-07-06T17:49:58.629+07:00,540196577595596381,188998,141089,177017,1297
1783334998648170283,2026-07-06T17:49:58.648+07:00,540196577595596381,189107,141160,177092,1309
1783334998666352101,2026-07-06T17:49:58.666+07:00,540196577595596381,189029,141205,177118,1269
1783334998684533919,2026-07-06T17:49:58.684+07:00,540196577595596381,189053,141161,177112,1317
1783334998702715737,2026-07-06T17:49:58.702+07:00,540196577595596381,189081,141134,177068,1247
1783334998720897555,2026-07-06T17:49:58.720+07:00,540196577595596381,189065,141153,177044,1273
1783334998739079373,2026-07-06T17:49:58.739+07:00,540196577595596381,189114,141266,177104,1260
1783334998757261191,2026-07-06T17:49:58.757+07:00,540196577595596381,189150,141230,177046,1267
1783334998775443009,2026-07-06T17:49:58.775+07:00,540196577595596381,189212,141285,177145,1299
1783334998793624827,2026-07-06T17:49:58.793+07:00,540196577595596381,189200,141302,177105,1288
1783334998811806645,2026-07-06T17:49:58.811+07:00,540196577595596381,189261,141291,177140,1270
1783334998829988463,2026-07-06T17:49:58.829+07:00,540196577595596381,189274,141318,177196,1317
1783334998848170281,2026-07-06T17:49:58.848+07:00,540196577595596381,189151,141281,177128,1372
1783334998866352099,2026-07-06T17:49:58.866+07:00,540196577595596381,189071,141195,177065,1317
1783334998884533917,2026-07-06T17:49:58.884+07:00,540196577595596381,188985,141152,176922,1342
1783334998902715735,2026-07-06T17:49:58.902+07:00,540196577595596381,188808,141029,176772,1281
1783334998920897553,2026-07-06T17:49:58.920+07:00,540196577595596381,188665,140946,176603,1331
1783334998939079371,2026-07-06T17:49:58.939+07:00,540196577595596381,188559,140854,176512,1339
1783334998957261189,2026-07-06T17:49:58.957+07:00,540196577595596381,188441,140795,176444,1347
1783334998975443007,2026-07-06T17:49:58.975+07:00,540196577595596381,188344,140676,176282,1323
1783334998993624825,2026-07-06T17:49:58.993+07:00,540196577595596381,188248,140629,176247,1322
1783334999011806643,2026-07-06T17:49:59.011+07:00,540196577595596381,188134,140588,176130,1317
1783334999029988461,2026-07-06T17:49:59.029+07:00,540196577595596381,188030,140468,175993,1299
1783334999048170279,2026-07-06T17:49:59.048+07:00,540196578378140462,188004,140427,175906,1352
1783334999066352097,2026-07-06T17:49:59.066+07:00,540196578378140462,187940,140421,175848,1355
1783334999084533915,2026-07-06T17:49:59.084+07:00,540196578378140462,187830,140290,175756,1294
1783334999102715733,2026-07-06T17:49:59.102+07:00,540196578378140462,187870,140264,175726,1365
1783334999120897551,2026-07-06T17:49:59.120+07:00,540196578378140462,187751,140227,175689,1326
1783334999139079369,2026-07-06T17:49:59.139+07:00,540196578378140462,187722,140152,175616,1339
1783334999157261187,2026-07-06T17:49:59.157+07:00,540196578378140462,187672,140209,175592,1330
1783334999175443005,2026-07-06T17:49:59.175+07:00,540196578378140462,187562,140132,175440,1300
1783334999193624823,2026-07-06T17:49:59.193+07:00,540196578378140462,187501,140061,175433,1339
1783334999211806641,2026-07-06T17:49:59.211+07:00,540196578378140462,187507,140075,175408,1344
1783334999229988459,2026-07-06T17:49:59.229+07:00,540196578378140462,187500,140069,175446,1345
1783334999248170277,2026-07-06T17:49:59.248+07:00,540196578378140462,187434,139997,175354,1353
1783334999266352095,2026-07-06T17:49:59.266+07:00,540196578378140462,187386,140003,175289,1344
1783334999284533913,2026-07-06T17:49:59.284+07:00,540196578378140462,187329,139886,175284,1289
1783334999302715731,2026-07-06T17:49:59.302+07:00,540196578378140462,187366,139952,175280,1314
1783334999320897549,2026-07-06T17:49:59.320+07:00,540196578378140462,187364,139980,175325,1338
1783334999339079367,2026-07-06T17:49:59.339+07:00,540196578378140462,187299,139926,175288,1336
1783334999357261185,2026-07-06T17:49:59.357+07:00,540196578378140462,187347,139985,175351,1412
1783334999375443003,2026-07-06T17:49:59.375+07:00,540196578378140462,187300,139899,175302,1362
1783334999393624821,2026-07-06T17:49:59.393+07:00,540196578378140462,187268,139885,175305,1308
1783334999411806639,2026-07-06T17:49:59.411+07:00,540196578378140462,187244,139857,175286,1292
1783334999429988457,2026-07-06T17:49:59.429+07:00,540196578378140462,187271,139841,175312,1303
1783334999448170275,2026-07-06T17:49:59.448+07:00,540196578378140462,187264,139858,175320,1340
1783334999466352093,2026-07-06T17:49:59.466+07:00,540196578378140462,187280,139856,175361,1241
1783334999484533911,2026-07-06T17:49:59.484+07:00,540196578378140462,187282,139768,175330,1321
1783334999502715729,2026-07-06T17:49:59.502+07:00,540196578378140462,187288,139835,175387,1319
1783334999520897547,2026-07-06T17:49:59.520+07:00,540196578378140462,187280,139782,175373,1309
1783334999539079365,2026-07-06T17:49:59.539+07:00,540196578378140462,187320,139847,175361,1301
1783334999557261183,2026-07-06T17:49:59.557+07:00,540196578378140462,187270,139830,175392,1341
1783334999575443001,2026-07-06T17:49:59.575+07:00,540196578378140462,187267,139834,175437,1351
1783334999593624819,2026-07-06T17:49:59.593+07:00,540196578378140462,187292,139915,175473,1342
1783334999611806637,2026-07-06T17:49:59.611+07:00,540196578378140462,187350,139896,175474,1344
1783334999629988455,2026-07-06T17:49:59.629+07:00,540196578378140462,187347,139857,175488,1306
1783334999648170273,2026-07-06T17:49:59.648+07:00,540196578378140462,187382,139898,175529,1361
1783334999666352091,2026-07-06T17:49:59.666+07:00,540196578378140462,187425,139912,175583,1339
1783334999684533909,2026-07-06T17:49:59.684+07:00,540196578378140462,187424,139969,175642,1345
1783334999702715727,2026-07-06T17:49:59.702+07:00,540196578378140462,187463,139930,175591,1345
1783334999720897545,2026-07-06T17:49:59.720+07:00,540196578378140462,187434,139905,175575,1350
1783334999739079363,2026-07-06T17:49:59.739+07:00,540196578378140462,187243,139876,175409,1406
1783334999757261181,2026-07-06T17:49:59.757+07:00,540196578378140462,187112,139737,175268,1339
1783334999775442999,2026-07-06T17:49:59.775+07:00,540196578378140462,186928,139602,175025,1333
1783334999793624817,2026-07-06T17:49:59.793+07:00,540196578378140462,186763,139546,174910,1310
1783334999811806635,2026-07-06T17:49:59.811+07:00,540196578378140462,186698,139524,174781,1401
1783334999829988453,2026-07-06T17:49:59.829+07:00,540196579160654031,186570,139469,174655,1354
1783334999848170271,2026-07-06T17:49:59.848+07:00,540196579160654031,186481,139369,174555,1349
1783334999866352089,2026-07-06T17:49:59.866+07:00,540196579160654031,186328,139328,174470,1361
1783334999884533907,2026-07-06T17:49:59.884+07:00,540196579160654031,186290,139235,174331,1307
1783334999902715725,2026-07-06T17:49:59.902+07:00,540196579160654031,186206,139128,174260,1324
1783334999920897543,2026-07-06T17:49:59.920+07:00,540196579160654031,186123,139116,174186,1330
1783334999939079361,2026-07-06T17:49:59.939+07:00,540196579160654031,185999,139002,174112,1322
1783334999957261179,2026-07-06T17:49:59.957+07:00,540196579160654031,185964,139001,174086,1388
1783334999975442997,2026-07-06T17:49:59.975+07:00,540196579160654031,185942,138940,174043,1356
1783334999993624815,2026-07-06T17:49:59.993+07:00,540196579160654031,185939,138972,173990,1343
1783335000011806633,2026-07-06T17:50:00.011+07:00,540196579160654031,185817,138883,173950,1304
1783335000029988451,2026-07-06T17:50:00.029+07:00,540196579160654031,185821,138840,173950,1370
1783335000048170269,2026-07-06T17:50:00.048+07:00,540196579160654031,185722,138796,173887,1263
1783335000066352087,2026-07-06T17:50:00.066+07:00,540196579160654031,185686,138763,173815,1300
1783335000084533905,2026-07-06T17:50:00.084+07:00,540196579160654031,185668,138733,173758,1362
1783335000102715723,2026-07-06T17:50:00.102+07:00,540196579160654031,185548,138684,173702,1320
1783335000120897541,2026-07-06T17:50:00.120+07:00,540196579160654031,185557,138663,173677,1324
1783335000139079359,2026-07-06T17:50:00.139+07:00,540196579160654031,185508,138604,173634,1355
1783335000157261177,2026-07-06T17:50:00.157+07:00,540196579160654031,185501,138616,173642,1318
1783335000175442995,2026-07-06T17:50:00.175+07:00,540196579160654031,185460,138636,173614,1336
1783335000193624813,2026-07-06T17:50:00.193+07:00,540196579160654031,185449,138606,173601,1327
1783335000211806631,2026-07-06T17:50:00.211+07:00,540196579160654031,185511,138653,173686,1338
1783335000229988449,2026-07-06T17:50:00.229+07:00,540196579160654031,185464,138600,173698,1286
1783335000248170267,2026-07-06T17:50:00.248+07:00,540196579160654031,185510,138575,173744,1324
1783335000266352085,2026-07-06T17:50:00.266+07:00,540196579160654031,185503,138603,173757,1375
1783335000284533903,2026-07-06T17:50:00.284+07:00,540196579160654031,185483,138628,173737,1338
1783335000302715721,2026-07-06T17:50:00.302+07:00,540196579160654031,185488,138566,173761,1360
1783335000320897539,2026-07-06T17:50:00.320+07:00,540196579160654031,185472,138574,173783,1375
1783335000339079357,2026-07-06T17:50:00.339+07:00,540196579160654031,185440,138624,173826,1360
1783335000357261175,2026-07-06T17:50:00.357+07:00,540196579160654031,185464,138560,173784,1311
1783335000375442993,2026-07-06T17:50:00.375+07:00,540196579160654031,185465,138592,173809,1343
1783335000393624811,2026-07-06T17:50:00.393+07:00,540196579160654031,185562,138606,173869,1353
1783335000411806629,2026-07-06T17:50:00.411+07:00,540196579160654031,185561,138586,173836,1344
1783335000429988447,2026-07-06T17:50:00.429+07:00,540196579160654031,185527,138624,173913,1310
1783335000448170265,2026-07-06T17:50:00.448+07:00,540196579160654031,185633,138637,173930,1334
1783335000466352083,2026-07-06T17:50:00.466+07:00,540196579160654031,185619,138643,174003,1352
1783335000484533901,2026-07-06T17:50:00.484+07:00,540196579160654031,185647,138691,174028,1301
1783335000502715719,2026-07-06T17:50:00.502+07:00,540196579160654031,185662,138726,174063,1407
1783335000520897537,2026-07-06T17:50:00.520+07:00,540196579160654031,185576,138605,173982,1309
1783335000539079355,2026-07-06T17:50:00.539+07:00,540196579160654031,185460,138553,173788,1341
1783335000557261173,2026-07-06T17:50:00.557+07:00,540196579160654031,185318,138438,173635,1400
1783335000575442991,2026-07-06T17:50:00.575+07:00,540196579160654031,185205,138345,173458,1386
1783335000593624809,2026-07-06T17:50:00.593+07:00,540196579160654031,185025,138244,173350,1362
1783335000611806627,2026-07-06T17:50:00.611+07:00,540196579979627448,184924,138208,173194,1365
1783335000629988445,2026-07-06T17:50:00.629+07:00,540196579979627448,184807,138181,173084,1321
1783335000648170263,2026-07-06T17:50:00.648+07:00,540196579979627448,184749,138052,172998,1355
1783335000666352081,2026-07-06T17:50:00.666+07:00,540196579979627448,184636,137996,172956,1356
1783335000684533899,2026-07-06T17:50:00.684+07:00,540196579979627448,184534,137970,172840,1309
1783335000702715717,2026-07-06T17:50:00.702+07:00,540196579979627448,184417,137879,172767,1343
1783335000720897535,2026-07-06T17:50:00.720+07:00,540196579979627448,184385,137860,172731,1350
1783335000739079353,2026-07-06T17:50:00.739+07:00,540196579979627448,184326,137789,172628,1338
1783335000757261171,2026-07-06T17:50:00.757+07:00,540196579979627448,184319,137718,172584,1297
1783335000775442989,2026-07-06T17:50:00.775+07:00,540196579979627448,184228,137665,172537,1304
1783335000793624807,2026-07-06T17:50:00.793+07:00,540196579979627448,184192,137649,172475,1304
1783335000811806625,2026-07-06T17:50:00.811+07:00,540196579979627448,184215,137626,172506,1374
1783335000829988443,2026-07-06T17:50:00.829+07:00,540196579979627448,184144,137640,172461,1342
1783335000848170261,2026-07-06T17:50:00.848+07:00,540196579979627448,184101,137555,172361,1351
1783335000866352079,2026-07-06T17:50:00.866+07:00,540196579979627448,184092,137515,172395,1344
1783335000884533897,2026-07-06T17:50:00.884+07:00,540196579979627448,184094,137501,172427,1357
1783335000902715715,2026-07-06T17:50:00.902+07:00,540196579979627448,184068,137498,172359,1362
1783335000920897533,2026-07-06T17:50:00.920+07:00,540196579979627448,184055,137513,172305,1373
1783335000939079351,2026-07-06T17:50:00.939+07:00,540196579979627448,184033,137578,172377,1366
1783335000957261169,2026-07-06T17:50:00.957+07:00,540196579979627448,184021,137510,172369,1345
1783335000975442987,2026-07-06T17:50:00.975+07:00,540196579979627448,184009,137503,172356,1339
1783335000993624805,2026-07-06T17:50:00.993+07:00,540196579979627448,184004,137483,172386,1317
1783335001011806623,2026-07-06T17:50:01.011+07:00,540196579979627448,183976,137481,172426,1282
1783335001029988441,2026-07-06T17:50:01.029+07:00,540196579979627448,184080,137451,172443,1339
1783335001048170259,2026-07-06T17:50:01.048+07:00,540196579979627448,184009,137466,172444,1321
1783335001066352077,2026-07-06T17:50:01.066+07:00,540196579979627448,184065,137480,172423,1359
1783335001084533895,2026-07-06T17:50:01.084+07:00,540196579979627448,184081,137431,172459,1343
1783335001102715713,2026-07-06T17:50:01.102+07:00,540196579979627448,184073,137483,172499,1343
1783335001120897531,2026-07-06T17:50:01.120+07:00,540196579979627448,184066,137527,172542,1371
1783335001139079349,2026-07-06T17:50:01.139+07:00,540196579979627448,184098,137496,172559,1373
1783335001157261167,2026-07-06T17:50:01.157+07:00,540196579979627448,184117,137482,172544,1397
1783335001175442985,2026-07-06T17:50:01.175+07:00,540196579979627448,184189,137514,172588,1361
1783335001193624803,2026-07-06T17:50:01.193+07:00,540196579979627448,184213,137540,172623,1375
1783335001211806621,2026-07-06T17:50:01.211+07:00,540196579979627448,184247,137616,172660,1402
1783335001229988439,2026-07-06T17:50:01.229+07:00,540196579979627448,184276,137579,172746,1367
1783335001248170257,2026-07-06T17:50:01.248+07:00,540196579979627448,184294,137617,172804,1394
1783335001266352075,2026-07-06T17:50:01.266+07:00,540196579979627448,184360,137618,172846,1380
1783335001284533893,2026-07-06T17:50:01.284+07:00,540196579979627448,184379,137627,172885,1418
1783335001302715711,2026-07-06T17:50:01.302+07:00,540196579979627448,184386,137708,172962,1380
1783335001320897529,2026-07-06T17:50:01.320+07:00,540196579979627448,184424,137658,172926,1367
1783335001339079347,2026-07-06T17:50:01.339+07:00,540196579979627448,184358,137647,172855,1387
1783335001357261165,2026-07-06T17:50:01.357+07:00,540196579979627448,184160,137512,172704,1290
1783335001375442983,2026-07-06T17:50:01.375+07:00,540196579979627448,184041,137445,172547,1373
1783335001393624801,2026-07-06T17:50:01.393+07:00,540196579979627448,183877,137367,172372,1325
1783335001411806619,2026-07-06T17:50:01.411+07:00,540196579979627448,183789,137298,172209,1325
1783335001429988437,2026-07-06T17:50:01.429+07:00,540196580798570347,183652,137201,172084,1252
1783335001448170255,2026-07-06T17:50:01.448+07:00,540196580798570347,183563,137119,171982,1293
1783335001466352073,2026-07-06T17:50:01.466+07:00,540196580798570347,183480,137031,171838,1309
1783335001484533891,2026-07-06T17:50:01.484+07:00,540196580798570347,183398,137003,171847,1322
1783335001502715709,2026-07-06T17:50:01.502+07:00,540196580798570347,183313,136919,171740,1271
1783335001520897527,2026-07-06T17:50:01.520+07:00,540196580798570347,183331,136873,171616,1369
1783335001539079345,2026-07-06T17:50:01.539+07:00,540196580798570347,183195,136872,171570,1368
1783335001557261163,2026-07-06T17:50:01.557+07:00,540196580798570347,183193,136812,171540,1332
1783335001575442981,2026-07-06T17:50:01.575+07:00,540196580798570347,183132,136756,171575,1348
1783335001593624799,2026-07-06T17:50:01.593+07:00,540196580798570347,183037,136761,171498,1347
1783335001611806617,2026-07-06T17:50:01.611+07:00,540196580798570347,183078,136743,171514,1399
1783335001629988435,2026-07-06T17:50:01.629+07:00,540196580798570347,183037,136730,171449,1407
1783335001648170253,2026-07-06T17:50:01.648+07:00,540196580798570347,183061,136705,171435,1386
1783335001666352071,2026-07-06T17:50:01.666+07:00,540196580798570347,183037,136690,171378,1366
1783335001684533889,2026-07-06T17:50:01.684+07:00,540196580798570347,183032,136675,171380,1326
1783335001702715707,2026-07-06T17:50:01.702+07:00,540196580798570347,183003,136638,171278,1336
1783335001720897525,2026-07-06T17:50:01.720+07:00,540196580798570347,182992,136585,171327,1366
1783335001739079343,2026-07-06T17:50:01.739+07:00,540196580798570347,182968,136556,171297,1343
1783335001757261161,2026-07-06T17:50:01.757+07:00,540196580798570347,182965,136508,171273,1298
1783335001775442979,2026-07-06T17:50:01.775+07:00,540196580798570347,182981,136569,171328,1282
1783335001793624797,2026-07-06T17:50:01.793+07:00,540196580798570347,182946,136517,171290,1315
1783335001811806615,2026-07-06T17:50:01.811+07:00,540196580798570347,183001,136554,171336,1304
1783335001829988433,2026-07-06T17:50:01.829+07:00,540196580798570347,182998,136540,171386,1327
