window_start_ns,window_end_ns,red_Mean_NN,red_Median_NN,red_Heart_Rate,red_Mean_HR,red_SDNN,red_SDSD,red_RMSSD,red_NN_Count,red_SD1,red_SD2,red_SD1_SD2,infrared_Mean_NN,infrared_Median_NN,infrared_Heart_Rate,infrared_Mean_HR,infrared_SDNN,infrared_SDSD,infrared_RMSSD,infrared_NN_Count,infrared_SD1,infrared_SD2,infrared_SD1_SD2,ppg0_Mean_NN,ppg0_Median_NN,ppg0_Heart_Rate,ppg0_Mean_HR,ppg0_SDNN,ppg0_SDSD,ppg0_RMSSD,ppg0_NN_Count,ppg0_SD1,ppg0_SD2,ppg0_SD1_SD2,ppg1_Mean_NN,ppg1_Median_NN,ppg1_Heart_Rate,ppg1_Mean_HR,ppg1_SDNN,ppg1_SDSD,ppg1_RMSSD,ppg1_NN_Count,ppg1_SD1,ppg1_SD2,ppg1_SD1_SD2,ppg2_Mean_NN,ppg2_Median_NN,ppg2_Heart_Rate,ppg2_Mean_HR,ppg2_SDNN,ppg2_SDSD,ppg2_RMSSD,ppg2_NN_Count,ppg2_SD1,ppg2_SD2,ppg2_SD1_SD2,label
1783333595431094395,1783333605431094395,1320.9764205714284,1199.703168,32.39437670938648,62.71184201232943,748.4432181662443,1044.1016980234162,1039.938715290617,126.0,738.2913909207466,920.7591502039191,0.8018290024674078,1424.3889165128205,1473.3196799999998,35.63381438032512,58.95963599971905,735.8809278488379,1103.9139047758013,1099.1526042726712,117.0,780.5850079130898,882.2613006666414,0.8847548989435166,940.0394426966291,715.6124159999999,83.84426913017676,73.32036758538567,504.29958454677603,697.2990909626134,695.3266921559512,178.0,493.06491573487915,622.1572440981299,0.7925085184045697,978.520589473684,715.6124159999999,41.92213456508838,71.71737191797357,513.7893272911617,721.3523248794188,719.2446209197626,171.0,510.0731205469185,630.7706806156842,0.8086506494706525,1004.1903498795181,715.6124159999999,19.79656354462507,71.56759622988679,609.9113296274768,825.061814546589,822.6774981132386,166.0,583.4068039639708,757.4971356778756,0.770176910889421,base
1783333596431094395,1783333606431094395,1355.384527338843,1347.035136,13.197709029750046,62.36766072351783,811.9436730974955,1089.224463403714,1084.9465617655535,121.0,770.1980043070446,1010.8919693255201,0.7618994192039437,1420.8857465263156,1494.367104,142.53525752130048,60.125752301591156,741.4220030626403,1123.4247050678248,1118.494925457684,114.0,794.3812271059561,885.3769853919026,0.8972237139802451,911.8250135081967,715.6124159999999,83.84426913017676,74.3571688852544,438.45170233945976,608.1156023871835,606.4426539564882,183.0,430.00266619331967,540.3967469388197,0.7957166075279907,948.0907810909091,715.6124159999999,83.84426913017676,73.7539687002534,538.4748312481831,736.3176102628763,734.2108316665395,176.0,520.6551753239532,666.610367440914,0.7810487216433852,965.9788666046512,715.6124159999999,83.84426913017676,73.2143528815617,575.0938433284654,772.2594499619313,769.9980704366945,172.0,546.0698939034748,715.8000368501911,0.7628805054361308,base
1783333597431094395,1783333607431094395,1352.5108885853658,1347.035136,75.01855659015814,62.03215871604879,759.9650481219536,1059.6820349721343,1055.3550140875896,123.0,749.3083528303564,935.0733901268582,0.8013364092509363,1418.9921411282048,1473.3196799999998,54.82125289280787,60.71434272596052,786.3395434133514,1189.8839789862184,1184.7442896630844,117.0,841.3750303663865,939.5231685323236,0.8955340948970325,898.5543500108108,715.6124159999999,83.84426913017676,75.11888645261514,429.8213919138287,588.9498500946073,587.3472624979337,185.0,416.45043278069744,531.768160396866,0.7831428502035448,918.4119047071821,715.6124159999999,83.84426913017676,75.25613493251532,519.5960968068952,713.8326187835066,711.8469887375069,181.0,504.7558853739692,642.316865514281,0.785836263181146,933.8907570337078,715.6124159999999,83.84426913017676,74.51414086052392,517.5979221089849,686.9532074661461,685.1302873546751,178.0,485.74927135716115,646.4047034413279,0.7514630830672028,base
1783333598431094395,1783333608431094395,1387.3760319999997,1431.2248319999999,30.9859255481088,60.31384880974898,759.1482776970005,1063.128142009917,1058.712308853551,120.0,751.7451184854671,932.7657012761994,0.8059313474508528,1507.4506378378378,1641.6990719999997,33.14773430727918,56.57489192305177,784.7462074797994,1193.2868452824741,1187.8859360623633,111.0,843.78122019994,935.7723262240698,0.901694991990923,902.2939158260868,715.6124159999999,83.84426913017676,75.03193096850308,438.29414482732426,606.4701126695963,604.8234621311926,184.0,428.83912925564107,540.6033808527864,0.7932601689970189,892.5918307096773,715.6124159999999,83.84426913017676,76.0626472665894,467.5641572297885,662.3289818001858,660.5364778861507,186.0,468.3373144072928,572.3308153672027,0.8182982670727095,909.3417440883977,715.6124159999999,83.84426913017676,75.08911133779381,473.79678177347,669.9216758984021,668.058190575474,181.0,473.7061598916166,580.3171700700948,0.8162883752593415,base
1783333599431094395,1783333609431094395,1389.8315647999998,1410.1774079999998,89.08453595081279,60.007086767905655,774.3079956549093,1092.052594162341,1087.4572767052355,120.0,772.1977947445521,949.1896686996079,0.8135337121846943,1502.5206105945945,1599.604224,71.26762876065024,56.006007121084394,783.313708185702,1176.297429879723,1170.9840015822322,111.0,831.7678893602596,938.7448108926408,0.8860425961442512,897.5707912258064,715.6124159999999,83.84426913017676,75.24456045767515,431.1399966638719,600.2728661789279,598.64830875855,186.0,424.45701423740485,530.736766183558,0.7997505378977349,913.3656854505494,715.6124159999999,83.84426913017676,75.52540220010829,531.8219752826967,761.8663573523963,759.7588391868214,182.0,538.7208676417729,648.5053123690092,0.8307115722364857,904.4641657704917,715.6124159999999,83.84426913017676,75.12261037311859,454.6375915181986,625.3701947265068,623.6497782764694,183.0,442.20350544306467,561.7995275272751,0.7871197531784964,base
1783333600431094395,1783333610431094395,1374.7475775999997,1389.1299839999997,43.19250227918197,59.76572072878309,749.9937660897066,1039.0871668407271,1034.713011010962,120.0,734.7455819169957,924.6922532786629,0.7945839054148263,1529.3174135779814,1599.604224,41.92213456508838,53.46028347021865,766.3209863055506,1174.4852992376827,1169.0393804926614,109.0,830.4865194948769,910.8467371480597,0.9117741609254729,909.2487167999999,715.6124159999999,83.84426913017676,74.4827926983764,432.1257187408046,603.663729069768,601.9751558906174,180.0,426.85471638159174,531.3782072553496,0.8032973700339767,898.2534504918034,715.6124159999999,83.84426913017676,75.21939670838997,442.16652520656703,633.0299953299702,631.299353082396,183.0,447.6198023923105,539.2965123933528,0.8300068554232091,913.2243413333332,715.6124159999999,83.84426913017676,74.64979002517244,460.2900457068635,641.6396597191273,639.8559232185719,180.0,453.70775446562374,566.399584324118,0.8010382899680817,base
1783333601431094395,1783333611431094395,1392.2870976,1431.2248319999999,27.410626446403935,58.42799663472598,739.8524838136079,1025.6708329109451,1021.3874833399802,120.0,725.2588012165836,912.0105433816387,0.795230720170625,1524.6831183853212,1599.604224,24.158518223949233,54.27360183597285,773.8695479770469,1168.0326415886448,1162.6219154683245,109.0,825.9238015145669,925.5663626225084,0.8923442282132927,914.5853314098359,715.6124159999999,83.84426913017676,74.1535462826009,431.1896295969362,584.7535436382144,583.1581207585563,183.0,413.48319602944514,535.130653807576,0.7726770893938114,885.5508764444443,715.6124159999999,83.84426913017676,75.63282313691806,421.62795083375335,590.2918242368312,588.719805935231,189.0,417.39935179684096,518.1014846613821,0.8056324178836171,919.6105255384616,715.6124159999999,83.84426913017676,74.60529112179307,480.8282758228643,661.5278244163848,659.6978684227433,182.0,467.7708105884094,594.1270032933263,0.7873246090406472,base
1783333602431094395,1783333612431094395,1357.3021720975605,1262.8454399999998,52.79083611900018,60.70002528499769,748.8248957796085,1015.9549740858808,1011.7847747550286,123.0,718.3886515563295,929.2127429906578,0.7731153677942534,1491.7361760000001,1578.5567999999998,61.9718510962176,55.26159244989539,758.6922342157702,1155.408905229431,1150.208590291937,112.0,816.9974719310557,904.1489799517369,0.9036093498381944,891.6047060425531,715.6124159999999,83.84426913017676,75.5103072850954,420.4963485874593,570.6335205528944,569.1073199258777,188.0,403.49883195530475,521.755406925625,0.7733486353938687,868.5061385284972,715.6124159999999,83.84426913017676,76.61832599720836,409.6243746544295,553.1094926921385,551.71758304472,193.0,391.10747302126225,509.0203619655369,0.7683532963416935,901.1918534193549,715.6124159999999,83.84426913017676,75.78108254645953,479.7250201434669,656.0763206741808,654.3007387428,186.0,463.9160153246331,593.854489977096,0.781194759245696,base
1783333603431094395,1783333613431094395,1396.2047483697477,1389.1299839999997,33.14773430727918,59.79607905834213,757.5153816869881,1065.3735138125512,1060.8841625405673,119.0,753.3328361133948,929.4643220702133,0.8105021550859344,1513.501125818182,1599.604224,33.93696607650011,54.72022206236075,787.7162317384718,1108.6107726191362,1103.9460909545012,110.0,783.9061950154489,966.3018483873019,0.8112436050119742,853.9240594285714,715.6124159999999,83.84426913017676,77.05762664680722,335.62354769059345,461.759371160454,460.5738509215216,196.0,326.5131826239929,414.7058021238859,0.7873369047449521,837.4547901105527,715.6124159999999,83.84426913017676,78.16745105764207,375.1836668275653,520.6546307497191,519.3507579642154,199.0,368.1584200593044,462.3367350514919,0.7962993034033979,867.1974904041451,715.6124159999999,83.84426913017676,77.34145404494473,439.27600689059307,588.6032818210881,587.0684596994065,193.0,416.2053720043479,547.0953889559388,0.7607546698549632,base
1783333604431094395,1783333614431094395,1400.0044863999997,1431.2248319999999,38.52304257332446,60.45753050116473,759.4247962930381,1077.4795491179107,1072.9763601173563,120.0,761.8930957710984,929.0917596005308,0.8200407418301496,1504.9873638165132,1599.604224,25.00618553005272,55.49883379599445,731.3545130377572,1087.3579469399715,1082.346142899841,109.0,768.8781778583359,879.8704571060518,0.8738538402428281,851.7763631020407,715.6124159999999,83.84426913017676,76.88988888816863,313.17481853570655,423.86763888834156,422.77940181961077,196.0,299.7196817834771,388.8971459210662,0.7706913895539637,847.4526252182741,715.6124159999999,83.84426913017676,77.64598234575219,383.4618677825055,531.2493146597981,529.8923537855113,197.0,375.64999289664917,472.78911737144415,0.7945402698461899,873.248852,715.6124159999999,83.84426913017676,77.0826758706988,444.45268777290113,598.9034090225751,597.3335415543678,192.0,423.4886617956034,552.6346532768248,0.7663085535525949,base
1783333605431094395,1783333615431094395,1401.864559865546,1431.2248319999999,45.97911532945177,60.41538545958189,778.8087677211577,1063.5750874592131,1059.0636912723883,119.0,752.061156643485,964.5144901414017,0.7797302832985223,1484.8678241415926,1599.604224,35.63381438032512,55.16422846593473,718.948522403095,1058.1159993268257,1053.4305549446253,113.0,748.2009984059788,868.2577893248845,0.8617267908275766,884.8827042539682,715.6124159999999,83.84426913017676,75.47771277333841,364.80943971090767,486.5825277836199,485.2866998430861,189.0,344.06580500268933,454.9518826406793,0.7562685596675117,889.5895271489361,715.6124159999999,83.84426913017676,75.93651569233968,448.89806566531587,624.2565171669817,622.5969055198025,188.0,441.41601648866913,552.8063828410105,0.7985002166945353,894.3466903957218,715.6124159999999,83.84426913017676,76.23694945912665,467.83989293780235,629.774698688218,628.0794743516776,187.0,445.31796006215365,581.8885529645258,0.7652976807902628,base
1783333606431094395,1783333616431094395,1352.1272547096767,1325.9877119999999,59.38969063387521,61.11535590988822,707.6584216869688,956.2485518617908,952.3539829832753,124.0,676.1698355212883,879.1803343652203,0.7690911740075393,1410.5341439999995,1536.4619519999997,52.79083611900018,58.48201040393094,665.890695855257,957.1017804499568,953.0143021209734,118.0,676.7731592418827,811.054796618624,0.8344358014568484,884.8827042539682,715.6124159999999,83.84426913017676,75.3543884775386,357.26466791608885,489.5723699576444,488.2685797069049,189.0,346.17994267861957,441.99073466069433,0.7832289582820635,896.2789528216216,715.6124159999999,83.84426913017676,75.70209117638856,458.7834449678613,648.378051702319,646.6137544137695,185.0,458.47251713123165,562.019549722991,0.8157590200504667,913.8952519344263,715.6124159999999,83.84426913017676,75.65022632559779,505.8089572009145,659.1485593035868,657.3352173278947,183.0,466.08841609290937,634.8749456084674,0.7341420847001732,base
1783333607431094395,1783333617431094395,1328.9944868571429,1283.892864,83.84426913017676,62.48315014798478,710.6812950573526,946.4946863500678,942.7516897927604,126.0,669.2728110751673,886.6638362234943,0.7548213694219835,1442.4743172413791,1536.4619519999997,33.14773430727918,56.31222783182095,661.2196989153418,953.6870761829812,949.5326860393443,116.0,674.3585986989575,804.3899680178637,0.8383478480725924,886.9026219574466,715.6124159999999,20.07538838328176,75.38290524439519,373.98381538729313,481.93996750359753,480.8033165519713,188.0,340.78301914661813,470.8091495223216,0.7238241217112567,907.1208453626374,715.6124159999999,83.84426913017676,75.35231433156598,474.1996417666913,662.1079359459483,660.2763752147112,182.0,468.18101138480824,583.2099714448183,0.8027657864370144,933.97944,715.6124159999999,95.02350501420032,75.21078148167642,553.7792844303194,712.6889580151594,710.6499494119669,176.0,503.94719508929387,697.3963034094244,0.7226123692161854,base
1783333608431094395,1783333618431094395,1339.7294185785122,1304.9402879999998,49.150088800448444,61.42050161278954,702.1280515162335,953.9025860006636,949.9207131359647,121.0,674.5109871524531,870.9104807942531,0.7744894590513052,1374.8664404628096,1389.1299839999997,47.51175250710016,59.490290340277355,665.7455524030091,917.1404298263068,913.4598181441916,121.0,648.5162172305264,822.2819705449461,0.7886786290604658,889.5895271489361,715.6124159999999,83.84426913017676,74.93958819783165,356.49189580697606,461.04330962053274,459.80892103429386,188.0,326.00685065336774,448.3667139916166,0.7270986906032085,923.9935420110496,715.6124159999999,83.84426913017676,75.12058268655096,509.12295545814845,707.9562071441964,705.986923198398,181.0,500.60063485476934,626.9863393570713,0.7984235116958031,944.874752,715.6124159999999,83.84426913017676,75.13834737515293,571.8985488636872,728.0618323164258,725.9905284541013,177.0,514.8174587540477,722.2308443051949,0.7128156638744995,base
1783333609431094395,1783333619431094395,1395.4972719327727,1431.2248319999999,71.26762876065024,58.27479896203717,705.2047913626619,979.0203705783606,974.8820159076917,119.0,692.2719429557255,868.9116031103874,0.7967115877813621,1380.7110143999998,1410.1774079999998,31.674501671400108,58.87234672558076,653.9228473163163,926.6101659569745,922.711954637748,120.0,655.2123318645689,800.3615311662934,0.8186454575219128,898.3268102918918,715.6124159999999,83.84426913017676,75.17674234365722,397.649651164568,536.4662632962335,535.0064884453624,185.0,379.33893265457453,494.26862861084896,0.7674752365342578,904.2341392786885,715.6124159999999,83.84426913017676,75.75210793898151,453.8870906794689,619.7089116959237,618.0040696441168,183.0,438.200373821923,562.1540699506749,0.779502270365795,929.6339746516852,715.6124159999999,36.54750192853859,75.41531249751998,520.9799090439225,659.4023115394028,657.5577708438847,178.0,466.26784601959616,658.890946317333,0.7076555667150322,base
1783333610431094395,1783333620431094395,1354.2220612682922,1389.1299839999997,50.90544911475017,60.17919509209597,678.5815550891017,975.2633232249881,971.2669435106462,123.0,689.6153092949169,826.5356715879389,0.8343442793824363,1376.9537882975205,1389.1299839999997,45.97911532945177,59.223367220857504,659.5927780539147,916.1476790065024,912.335629159076,121.0,647.8142363938142,812.5845330084195,0.7972268854237494,909.5247485901638,715.6124159999999,83.84426913017676,74.59253946739084,414.4648846692206,556.391245746263,554.8745242903345,183.0,393.4280228600134,515.916152743807,0.7625813240536035,924.6834943999999,715.6124159999999,83.84426913017676,75.8265765790297,538.9283186261117,745.411191200423,743.3368715568989,180.0,527.0853080701612,664.8142629657003,0.7928309265190284,932.27008,715.6124159999999,83.84426913017676,74.85914342625166,501.0374216529295,627.5680681832205,625.7929485591674,177.0,443.7576366684968,635.3082525376371,0.6984918500522824,base
1783333611431094395,1783333621431094395,1356.9599375609755,1389.1299839999997,47.51175250710016,60.495645010950746,687.1611552645376,995.6162958373748,991.5277454123733,123.0,704.0070342464395,834.6064668301786,0.8435197452042834,1400.4496069915965,1431.2248319999999,30.9859255481088,57.322448400009144,654.0091403131901,896.9371948299023,893.1599452849458,119.0,634.2303727626635,808.9077996651178,0.784057680028837,942.0208639999998,715.6124159999999,41.92213456508838,73.06562815562368,451.01128159918983,610.0235716636928,608.3016704174281,177.0,431.351804207035,560.1697624498803,0.7700376441608253,980.8099584,715.6124159999999,41.92213456508838,73.90117069118907,610.9371895420195,857.0161359228575,854.4873150567579,170.0,606.0019212973444,750.2461828113265,0.8077374269690127,952.7868167314286,715.6124159999999,41.92213456508838,74.10150679177796,525.343942305849,671.1817174771551,669.2628920197106,175.0,474.5971438365299,662.8357948738184,0.7160101302719736,base
1783333612431094395,1783333622431094395,1358.7664870819672,1431.2248319999999,61.9718510962176,60.24660201612531,680.8112393704544,992.4228913854096,988.3458521789078,122.0,701.7489563033836,825.0951996405167,0.8505066525767287,1407.4790203076923,1389.1299839999997,52.79083611900018,57.141214277560664,675.858306363689,862.533989791062,859.2278565874301,117.0,609.9036331851484,852.9816408782585,0.7150255104637083,952.7868167314286,715.6124159999999,83.84426913017676,72.45574371666424,455.2425733509667,612.4421382347492,610.679711161375,175.0,433.06198903018014,566.3216912771686,0.7646925690830221,981.0575751529411,715.6124159999999,41.92213456508838,73.74685966529873,605.8565776785565,861.8466114277031,859.3022279036503,170.0,609.4175832831763,740.5602541491085,0.8229142461654076,952.7868167314286,715.6124159999999,83.84426913017676,74.02170099866501,524.0629732095227,671.2630585740534,669.3313623142291,175.0,474.6546606777358,660.7839861307639,0.7183204657502179,base
1783333613431094395,1783333623431094395,1337.529847741935,1389.1299839999997,36.54750192853859,58.40167898859047,611.4945264461138,893.2731825392201,889.6369498934141,124.0,631.6395248255712,740.5179721560964,0.852969878619537,1384.2189183999997,1347.035136,33.93696607650011,57.421051004152545,636.5589402486465,810.7696369189271,807.4454331435344,120.0,573.3007082455283,803.789597956796,0.7132472349764639,969.4051914418604,715.6124159999999,83.84426913017676,71.63066066974082,467.0081840514308,633.021949785469,631.1682944157084,172.0,447.61411333323537,579.6672241161139,0.7721915173240383,998.4292989700599,715.6124159999999,83.84426913017676,72.99629489474543,618.1973878432285,887.6228519375567,884.9452505067882,167.0,627.6441377411891,753.2379696031937,0.8332614168027568,952.7868167314286,715.6124159999999,83.84426913017676,73.89898952685363,522.2526384844298,671.6139181966156,669.6812122667194,175.0,474.9027558960941,657.8216498634295,0.7219323900249996,base
1783333614431094395,1783333624431094395,1325.9877119999999,1347.035136,49.150088800448444,59.8759046793921,616.5310295539816,913.3608973056006,909.6456855829293,124.0,645.8436841554201,742.7408623632216,0.8695410699506984,1395.4972719327727,1347.035136,45.97911532945177,57.050323747538116,676.3130062216364,886.8907434125413,883.1250241874609,119.0,627.1264588385862,847.4401259566259,0.7400245039502462,988.2266697142857,715.6124159999999,83.84426913017676,70.69377936144744,478.11560686698556,640.3866618720482,638.4664576637422,168.0,452.8217511911419,595.5378223787852,0.7603576702860186,986.6135676213019,715.6124159999999,83.84426913017676,73.98291900060492,627.2629899114831,896.2832234813934,893.6218846202664,169.0,633.7679451874311,765.5630691535724,0.82784550447051,948.6976029257142,715.6124159999999,83.84426913017676,73.9978774209507,518.1898111381767,665.8395502665115,663.9234612571965,175.0,470.8196611756514,652.8443796649098,0.7211820700935075,base
1783333615431094395,1783333625431094395,1332.0012617142852,1368.0825599999998,35.63381438032512,59.36850265655914,617.5063529460455,906.8186033077106,903.1871214692773,126.0,641.217583704996,746.3566151855395,0.8591303013313459,1432.6763784827585,1368.0825599999998,38.52304257332446,54.957375164320716,679.3247518347953,874.6317253041665,870.8649870360206,116.0,618.4580240034658,855.4057944529466,0.722999572850667,990.8479606153844,715.6124159999999,83.84426913017676,70.34591445008182,471.6421328690327,632.5559953120736,630.6705783155227,169.0,447.2846337653732,587.2485259182764,0.7616615692069338,979.2590955789474,715.6124159999999,83.84426913017676,74.19212784127897,625.494663112943,886.6151369356718,884.0035991953105,171.0,626.9315756298529,765.4838645619404,0.8190003795685803,947.3732552727271,715.6124159999999,83.84426913017676,73.71974752625701,509.5885863204399,649.6271914706078,647.7684546381422,176.0,459.3557923320385,643.3173265517037,0.7140423137586982,base
1783333616431094395,1783333626431094395,1361.066752,1389.1299839999997,29.694845316937606,58.0312877644438,627.2145474302919,920.6629694751522,916.9054334455798,123.0,651.0070289032235,758.2157352466846,0.8586039548380239,1521.1547345454542,1557.5093759999997,31.674501671400108,52.11328886067605,698.1101277382505,897.1844405492623,893.0757989197327,110.0,634.4052018874423,879.4774134737684,0.7213433706974492,998.177234011976,715.6124159999999,83.84426913017676,69.8489040641736,472.6061515189744,635.0435504952675,633.127879311617,167.0,449.0436009039853,588.126747521946,0.7635150123608844,953.582134751445,715.6124159999999,83.84426913017676,74.92989167006957,598.497049221096,839.4691270018045,837.0494389417095,173.0,593.5943122997271,734.9968245206402,0.807614798454218,932.27008,715.6124159999999,83.84426913017676,73.56562107136219,436.3123287006864,585.4393790515542,583.8095465605846,177.0,413.96815490099556,543.1869657091969,0.7621098830317284,base
1783333617431094395,1783333627431094395,1374.5185491570246,1431.2248319999999,75.01855659015814,57.05723113800776,625.0225194712275,923.2362175079998,919.4055107334846,121.0,652.8265900369249,753.8003856212216,0.8660470364431,1518.8586519272724,1578.5567999999998,38.52304257332446,52.1476316093216,696.610124643863,874.0517761650364,870.0338974258276,110.0,618.0479380344436,882.9154572541828,0.7000080618777904,1014.3582766545453,715.6124159999999,27.948089710058916,69.61466532829392,506.21131548152573,662.1305214264084,660.1664292119193,165.0,468.19698173119804,634.740565106699,0.7376194424449535,968.9157164651162,715.6124159999999,83.84426913017676,74.319279666477,612.021537666172,837.5151211862739,835.0626558299479,172.0,592.2126215370873,757.4845414796373,0.7818147950323646,936.4339929385475,715.6124159999999,61.9718510962176,73.39023934133742,443.6446895694127,587.2329770745652,585.5828420587309,179.0,415.23642022578946,554.4642268219989,0.7488966828496474,base
1783333618431094395,1783333628431094395,1356.9599375609753,1431.2248319999999,36.54750192853859,58.446896493710184,622.3422588073036,924.4731423029153,920.7308951117849,123.0,653.7012279472276,748.9707113665373,0.872799454006038,1601.6476632233007,1683.7939199999998,33.93696607650011,48.532969863728766,682.8260184905087,887.2304215598094,882.9693062338243,103.0,627.3666475599405,857.7343923499288,0.7314229826335266,1020.1504521481481,715.6124159999999,50.90544911475017,69.32585074937329,505.89025131681416,659.9655357618736,657.919047091445,162.0,466.66610568663384,634.7923011949771,0.7351477086413134,984.7718264470585,715.6124159999999,49.150088800448444,72.99348899881068,610.2064476344914,856.2888280333875,853.7569025704564,170.0,605.4876369566897,749.2637574417387,0.8081101360408071,967.6891665964908,715.6124159999999,28.507051504260097,72.43930081005435,502.3237711532269,648.3783487724622,646.5201817730081,171.0,458.47272719154444,632.1073653596933,0.7253083136132354,base
1783333619431094395,1783333629431094395,1338.6161663999997,1431.2248319999999,38.52304257332446,58.797208365946936,597.9696101661285,906.2858093983765,902.6281191848348,125.0,640.8408415187309,714.0005723283741,0.8975354731564607,1665.5102991515146,1683.7939199999998,36.54750192853859,46.02794071482771,683.9117217588617,865.9541725151288,861.5970933397243,99.0,612.322067582233,864.8707007953566,0.7079926132532024,995.8220969638555,715.6124159999999,83.84426913017676,70.1606250039955,477.9755806792518,608.345064981665,606.4987934553318,166.0,430.16492074990623,603.6558472585594,0.712599609037924,988.2266697142857,715.6124159999999,83.84426913017676,73.36899364194862,625.9790575674862,845.603796605537,843.0682472796738,168.0,597.9321787768653,777.7776776288529,0.7687700431307467,954.149888,715.6124159999999,83.84426913017676,73.2385406982353,494.79929441028173,642.9506750334658,641.0897429827053,174.0,454.6347822846319,621.5354300973743,0.7314704202999426,base
1783333620431094395,1783333630431094395,1317.8670523464566,1389.1299839999997,33.93696607650011,60.61156716260595,604.163365239981,843.4673704161519,840.1328075014518,127.0,596.4214973308465,743.0797013490632,0.8026346248565822,1639.2229044705878,1683.7939199999998,33.14773430727918,46.52721712880083,670.9291669856739,874.3541089942838,870.0184497133632,102.0,618.2617196281798,842.1212010425718,0.7341718969463693,1018.5403712392639,715.6124159999999,83.84426913017676,69.54001338030795,512.3378120726862,666.6454958103501,664.5994434069526,163.0,471.38955073496675,643.3319618111612,0.7327314337187165,966.4583230877192,715.6124159999999,83.84426913017676,73.85397388084246,567.4196805137854,734.5117357849128,732.3564255812777,171.0,519.3782292346135,713.4797230246219,0.7279509318538685,944.6083891199999,715.6124159999999,83.84426913017676,73.76386188534566,498.1048537274898,614.8123954818334,613.0431475101534,175.0,434.7380140027499,633.8125276485472,0.6859094685547376,base
1783333621431094395,1783333631431094395,1339.2896839679997,1389.1299839999997,36.54750192853859,59.78625638671461,606.3087508645831,845.410229291514,841.9987962151174,125.0,597.7953060165036,746.0167483389764,0.8013162001355983,1597.985191384615,1641.6990719999997,39.59312708925014,49.37628663234624,724.676517914838,991.3193902120036,986.505666283764,104.0,700.968663140621,897.013699940962,0.7814469981748952,978.2744207719297,715.6124159999999,47.51175250710016,71.26837419904436,476.78660950256256,615.2486340828103,613.4372099246436,171.0,435.04648127571596,600.0151844467831,0.7250591194235041,924.2261102320443,715.6124159999999,47.51175250710016,75.28068942707246,514.117016352157,647.6221962364464,645.8278959349393,181.0,457.9380466057162,650.9830917475189,0.7034561302912082,939.8029547865168,715.6124159999999,47.51175250710016,74.13229396045976,504.7525668855195,620.2747726520334,618.5278291812646,178.0,438.6004979411969,642.934762754285,0.6821850728093545,base
1783333622431094395,1783333632431094395,1343.6675481599998,1389.1299839999997,15.4929627740544,61.483781258375686,661.2613496812205,906.1022177488637,902.8497356745318,125.0,640.7110226183912,818.094027549466,0.7831752843100308,1610.5326941538458,1683.7939199999998,40.72435929180014,49.40139884915262,712.1541379424818,1008.9706454116778,1004.1872848403476,104.0,713.4499853887648,871.677458439522,0.818479333704446,986.3644856804732,715.6124159999999,41.92213456508838,71.05281014649475,495.22149686495476,655.8540337332431,653.8992218510891,169.0,463.75883472132693,618.8315873671053,0.7494104117962783,923.5141930666665,715.6124159999999,41.92213456508838,74.87521254909052,495.9050992400641,617.499269627754,615.7784619532822,180.0,436.6379209315251,629.6962743314377,0.6934103610428902,969.154795283237,715.6124159999999,41.92213456508838,72.62460370513931,518.6615118536961,638.7839074709374,636.9378592597667,173.0,451.68843268553996,660.3092515221665,0.6840558899398925,base
1783333623431094395,1783333633431094395,1411.604352,1515.4145279999998,49.150088800448444,59.09371357079078,672.5653129794053,931.2289220620714,927.2633866601846,118.0,658.4782856271296,829.3921714876196,0.7939287447650556,1596.3347212427182,1683.7939199999998,29.088828065571533,50.204288159335746,710.0972107181489,1013.0497211239647,1008.0729113135159,103.0,716.3343274858962,867.1266706612446,0.8261011357655985,962.1333936551725,715.6124159999999,83.84426913017676,72.40252338252627,488.5993488357038,634.2715640108123,632.4357524498519,174.0,448.4977240258428,613.9084159198072,0.730561289592141,895.2471149518717,715.6124159999999,83.84426913017676,76.28255353062782,466.51385613190115,560.4031201967465,558.8946299229874,187.0,396.2648464892193,597.291755881956,0.6634359885046428,963.5583704046243,715.6124159999999,83.84426913017676,73.46178034423237,555.518793113904,697.9527392510992,695.920849235892,173.0,493.52711487217846,703.8591850991425,0.7011730830828932,base
1783333624431094395,1783333634431094395,1422.2302063589739,1515.4145279999998,32.39437670938648,57.28994714967871,661.0603429266787,914.4789923856234,910.5333687301219,117.0,646.6342967685155,815.4346062695768,0.7929934439828555,1713.303710350515,1725.8887679999996,41.92213456508838,48.13419522414337,929.6507830205749,1179.9348250016756,1173.7831535843375,97.0,834.339916116847,1174.9211075338644,0.710124203886429,913.4351989508197,715.6124159999999,49.150088800448444,74.96648394075511,459.7141296386346,603.82793933313,602.1731827168213,183.0,426.97083057235545,575.7795731866415,0.741552584453966,892.1391979354838,715.6124159999999,83.84426913017676,76.48548982977758,465.6427295162521,554.9569106658115,553.4549947572165,186.0,392.4137947981324,597.2034912228457,0.6570855672571808,955.192236617143,715.6124159999999,49.150088800448444,73.82043621898627,548.1565554776888,686.629530144688,684.6597686032338,175.0,485.52039692824184,695.0440206991572,0.6985462538615155,base
1783333625431094395,1783333635431094395,1356.6962486557375,1389.1299839999997,118.77938126775042,61.58418104358867,666.5187441233069,881.1552561462886,877.5071851180608,122.0,623.07085689921,833.298161630555,0.7477165864377007,1626.9658751999993,1641.6990719999997,35.63381438032512,50.997456114432616,928.4295427926497,1166.944214622006,1161.0608245789624,100.0,825.1541674256304,1176.2326010829638,0.701522952744131,926.5623039999999,715.6124159999999,25.91550136750918,75.05167837176525,544.355145510218,715.7878165025404,713.8092952358835,177.0,506.13841893965844,681.5841835925571,0.7425912031465536,866.1400661780103,715.6124159999999,83.84426913017676,77.73288431327587,451.2996860713161,534.0623034645389,532.6550222214507,191.0,377.6390763558832,579.6871374290399,0.6514532615485373,931.8268625454544,715.6124159999999,28.507051504260097,74.46618434359243,516.2877986971617,642.8827105757626,641.0985530502944,176.0,454.5867241557104,655.577331272072,0.69341434255153,base
1783333626431094395,1783333636431094395,1345.65497704918,1389.1299839999997,79.18625417850028,61.4442665638528,666.6538012754874,922.9689669252926,919.1582592794801,122.0,652.6376153376167,822.123259027093,0.7938439986601925,1590.2947864615383,1641.6990719999997,61.9718510962176,52.100073622125066,928.089971191864,1174.8672896093615,1169.1519256759364,104.0,830.7566274770389,1173.7221571587195,0.7077966641509843,953.9895266742858,715.6124159999999,16.19718835469324,73.88674210952766,540.2763608128685,655.7958091299656,654.1341789043399,175.0,463.7176637095175,690.1304632374136,0.6719275389383772,888.0221657872341,715.6124159999999,83.84426913017676,76.22651571285977,432.6081863819223,501.39005006318854,500.0476378816494,188.0,354.53630441914316,558.0785699825074,0.6352802696406277,944.5031519999998,715.6124159999999,83.84426913017676,74.17543655599178,536.9816213476554,609.241679517898,607.8755910951623,176.0,430.79892296858696,695.6325663127526,0.6192909070546622,base
1783333627431094395,1783333637431094395,1379.3078527999999,1410.1774079999998,37.50927829507907,61.05512595481066,713.1159409874228,1000.3654117503806,996.1533909577767,120.0,707.3651663131669,875.7202471817858,0.8077524398797291,1577.1536383999996,1599.604224,33.14773430727918,52.79188486794236,927.5218221302783,1179.427955974691,1173.745049367765,105.0,833.9815055906928,1171.6786612472226,0.7117834720169268,931.2893900224717,715.6124159999999,83.84426913017676,74.47771568726408,506.4374113449481,665.2375049937948,663.3556838696749,178.0,470.3939508807321,634.2889473315391,0.7416083046373184,868.1235930471205,715.6124159999999,83.84426913017676,76.86917332183756,405.1069722135651,490.2513084727652,488.973977140452,191.0,346.6600247066702,517.8192073564574,0.6694615027442111,926.3218227486034,715.6124159999999,83.84426913017676,73.74357496743986,434.48261440353133,570.7050047847819,569.2824485439697,179.0,403.54937894042035,544.1729815198986,0.741582902211149,base
1783333628431094395,1783333638431094395,1370.8888832,1389.1299839999997,33.93696607650011,61.33754076690625,709.5992659898033,965.6334254699647,961.5686235177204,120.0,682.8059432902066,879.7444279393424,0.776141253761127,1540.199345046729,1515.4145279999998,31.674501671400108,55.52923394718613,959.2125602655262,1266.4412015967105,1260.453829419779,107.0,895.5091616230735,1199.6704306878876,0.746462644002646,958.5045274482759,715.6124159999999,79.18625417850028,74.06549086874554,565.620694600911,698.3665175761416,696.3452345242549,174.0,493.81970033172394,719.669779901711,0.6861754017226727,868.6447279999999,715.6124159999999,79.18625417850028,77.46539531336823,460.8087642195851,582.7954095084414,581.2678066978852,192.0,412.09858610780975,582.9037759588922,0.7069753244090702,918.3692672,715.6124159999999,44.542267975406396,73.58409022044803,394.67090704286187,542.021326525812,540.5166906357246,180.0,383.2669555341296,487.9379777490889,0.7854829363809348,base
1783333629431094395,1783333639431094395,1456.8477829565213,1473.3196799999998,33.93696607650011,55.61558497403968,698.9029395215933,978.7321216654749,974.4306112882509,115.0,692.0681201947544,858.7499614258492,0.8059017773295268,1522.3659707889904,1473.3196799999998,109.64250578561574,56.2469516609796,978.4895841687102,1288.011090399004,1282.051331378119,109.0,910.761376264615,1224.802265839512,0.7435987029631718,953.9895266742857,715.6124159999999,83.84426913017676,74.03204784415098,545.7339104574617,674.0800171747007,672.1402145423843,175.0,476.6465512065753,694.3018325323824,0.6865120166370069,870.3275117905761,715.6124159999999,83.84426913017676,77.02389980058578,421.7218091161029,541.7314974308333,540.3040074728661,191.0,383.06201541568504,531.3476401953379,0.7209254101041287,917.2976218021977,715.6124159999999,41.92213456508838,73.06822428851804,372.1935905544954,500.15776731941736,498.7898719758042,182.0,353.6649489346834,463.1594645985426,0.7635921879330116,base
1783333630431094395,1783333640431094395,1449.687484631579,1452.2722559999997,34.76469695641476,55.965004148049594,720.3852560942828,983.7674336851118,979.4054447656767,114.0,695.6286234692298,892.1660403205242,0.7797075791175762,1544.1334429906542,1557.5093759999997,41.92213456508838,55.373496935263965,954.4017214510493,1260.2512759692152,1254.3049294310001,107.0,891.1322232368311,1193.6108964700113,0.7465851944484324,916.3724603076922,715.6124159999999,35.63381438032512,75.0094940241846,473.8614851820338,586.4819144235055,584.8840152292955,182.0,414.7053387321292,602.5770948944049,0.6882195527276087,882.4327395555553,715.6124159999999,35.63381438032512,76.64963966714467,456.1189880833775,610.2777642347792,608.6743076259596,189.0,431.5315454977775,568.3127001929116,0.7593206087974027,906.4118900869564,715.6124159999999,49.150088800448444,73.63952060575495,363.2856235176208,483.56466382134886,482.24953887601174,184.0,341.9318529302689,453.3146726998913,0.7542924893512959,base
1783333631431094395,1783333641431094395,1431.5908741565215,1389.1299839999997,45.97911532945177,57.83459659534401,736.1162181841618,1004.1696454078003,999.7672156721418,115.0,710.0551657295465,911.9457243487125,0.7786155982436884,1478.581536,1473.3196799999998,33.93696607650011,58.476228635279156,919.584550493748,1150.669280970119,1145.5427207500782,112.0,813.6460514770198,1166.3025089879147,0.6976286556933496,896.4132385573772,715.6124159999999,83.84426913017676,75.82891557774421,447.5621088520595,528.2907825189599,526.8374351091969,183.0,373.5579947575041,575.1963967520849,0.6494442539397742,864.5801941554404,715.6124159999999,83.84426913017676,77.2991155378618,423.396440541027,555.6199356753162,554.1711198177434,193.0,392.88262427844944,530.4250309852112,0.7406939743184998,896.9615719783782,715.6124159999999,83.84426913017676,74.17361467213267,357.7448077436999,477.4671808902986,476.1679480578416,185.0,337.62028140155405,446.059376908861,0.7568953795820254,base
1783333632431094395,1783333642431094395,1436.981392410256,1389.1299839999997,27.410626446403935,55.32790437518697,685.4306957135508,957.6003838004991,953.4914841227086,117.0,677.1257250521735,842.8409419866887,0.8033849464598833,1525.7468997818178,1473.3196799999998,95.02350501420032,55.82242035069014,956.7241989110462,1196.2812227585546,1190.8337159555201,110.0,845.8985648187088,1213.6186363857432,0.6970052530981765,909.8435353043477,715.6124159999999,64.78875341877296,75.96449065528212,500.4159264583453,596.2908102231735,594.6600803921061,184.0,421.6412754680267,641.8267027143511,0.6569394412617338,854.1388290612244,715.6124159999999,41.92213456508838,78.34070660688526,439.31170822030737,572.6211225745525,571.1614195040974,196.0,404.9042788231193,551.3762929744565,0.7343519915207475,900.0602714838707,715.6124159999999,83.84426913017676,74.03744901232172,360.09633221843944,485.9273717850749,484.6123284164294,186.0,343.6025397533831,447.55712964029277,0.7677288931349183,base
1783333633431094395,1783333643431094395,1416.9553919999998,1452.2722559999997,83.84426913017676,56.158699048690295,671.9466311243303,941.3494471577435,937.3513735155951,118.0,665.634577551448,825.5239879874033,0.8063176688229743,1474.064721557522,1473.3196799999998,33.14773430727918,57.20387142995606,915.0181461340319,1172.2445574684446,1167.1632320503854,113.0,828.9020757949606,1153.679803879969,0.7184853830389156,925.3889513370165,715.6124159999999,79.18625417850028,74.47132479594903,468.1489474387084,533.7528879485305,532.2682274407767,181.0,377.4202865463094,605.8909453256352,0.6229178525575513,867.8518144663211,715.6124159999999,79.18625417850028,77.3812980816701,441.2187518935716,584.6733497542082,583.1488164053344,193.0,413.4264903902547,551.2596870503415,0.7499668488410621,925.3889513370165,715.6124159999999,27.410626446403935,72.71368378571518,381.8939622360641,518.7912155892371,517.4128671914598,181.0,366.8407865631617,473.70868204159103,0.7744016533160216,base
1783333634431094395,1783333644431094395,1443.562977103448,1473.3196799999998,49.150088800448444,56.12604661517674,702.9805037288771,961.175527854226,957.1694436753328,116.0,679.6537336562825,870.2864921445979,0.7809540189247912,1405.7556802689078,1473.3196799999998,54.82125289280787,58.19454972237369,703.3834882457809,988.5654775706112,984.3935843102288,119.0,699.021352837097,863.2388065955461,0.8097659042854058,942.0208640000001,715.6124159999999,83.84426913017676,73.5297331588472,478.5227422775316,562.8342084455994,561.247698162486,177.0,397.98388547564616,615.4449148416711,0.646660449827636,855.0650919384616,715.6124159999999,41.92213456508838,77.7325591472862,397.7415811216899,546.8009182261926,545.4022908605731,195.0,386.6466372367716,491.57798940057495,0.7865418012475385,951.4392349090908,715.6124159999999,83.84426913017676,71.38910820993004,400.5640110534476,546.8979491503369,545.3331449441207,176.0,386.7152484612189,496.11360816474473,0.7794892986140427,base
1783333635431094395,1783333645431094395,1511.6221993513511,1515.4145279999998,35.63381438032512,51.53830184368198,670.0056794258043,970.6413026221069,966.2495359552831,111.0,686.3470471838356,813.8053123055182,0.8433799052495834,1445.3774102068962,1515.4145279999998,39.59312708925014,57.85410040493198,758.8846788689525,1065.390734467213,1060.7712863048055,116.0,753.3450129550828,931.6906983392715,0.8085784416415362,934.5526589497206,715.6124159999999,83.84426913017676,73.96314194206315,477.90521915385597,579.6796752183399,578.0630483967949,179.0,409.8954292629036,610.5568487239171,0.6713468698608456,875.8373086492146,715.6124159999999,83.84426913017676,77.02786202342637,431.3852642529343,584.5315510811779,583.0034469279497,191.0,413.3262235869917,535.506497511287,0.7718416592662911,950.4825338181818,715.6124159999999,83.84426913017676,71.3104662806097,394.3058538908404,551.819618371012,550.2407846840816,176.0,390.1953941419153,484.5905385171972,0.8052063817339017,base
1783333636431094395,1783333646431094395,1478.1624501238932,1557.5093759999997,30.9859255481088,52.903282327208466,622.8135685719549,870.4249339573746,866.5303957021011,113.0,615.4833733151123,765.7568745894426,0.8037582080410328,1451.723192765217,1557.5093759999997,15.4929627740544,56.508086204709116,720.5556109484951,977.1969556973476,973.0498263558408,115.0,690.9825939284447,894.2439848177214,0.7727002984194424,906.0743512131148,715.6124159999999,83.84426913017676,75.26844558285006,453.6076785075438,551.4333579712799,549.957248724422,183.0,389.9222667939609,579.223760675558,0.6731807174815969,871.0564119999999,715.6124159999999,83.84426913017676,77.72726884845122,441.58767347820975,596.1094841364406,594.546940206088,192.0,421.51305856249184,548.7829420330434,0.7680870272697209,957.0529809655172,715.6124159999999,83.84426913017676,71.13254573610405,406.9162371274064,554.9351177853811,553.3289346256454,174.0,392.3983849045984,504.1561284344232,0.7783271149021421,base
1783333637431094395,1783333647431094395,1504.699475781818,1578.5567999999998,21.92850115712315,51.723013542969774,622.6058558227808,846.5872042259431,842.7075714144834,110.0,598.6275529739249,772.0742385417739,0.7753497307520066,1420.5227519999996,1515.4145279999998,41.92213456508838,58.769362994096646,698.9895873476738,989.2128919637075,984.9770061033404,118.0,699.4791439446932,855.8839582759699,0.8172593225764774,892.9960535614973,715.6124159999999,83.84426913017676,75.20753931295567,401.50520724359353,496.38737566012173,495.0512543736142,187.0,350.99887942466626,510.6983025316966,0.6872920424537371,884.4396255319147,715.6124159999999,27.410626446403935,77.08806383076822,458.4465459576425,606.4553812900672,604.8800920687319,188.0,428.8287125972798,573.0614614743042,0.7483119026954638,965.261630150289,715.6124159999999,41.92213456508838,70.58447125179325,406.64743510697855,531.7273297688128,530.1938180115194,173.0,375.9880006217431,509.94194243305844,0.7373153085384816,base
1783333638431094395,1783333648431094395,1465.934618947368,1536.4619519999997,33.14773430727918,52.59380020722851,600.2491832289902,814.6488207192865,811.0554185662161,114.0,576.0437054162314,744.7717695101693,0.7734499735336249,1408.3937279999996,1515.4145279999998,109.64250578561574,57.94317153980115,653.8386557115676,882.5014907275156,878.7680571477046,118.0,624.0227885006633,812.5932285721731,0.7679399317628435,879.5373267301587,715.6124159999999,83.84426913017676,75.71187810864126,371.1611903142796,488.7763032261678,487.4764842333964,189.0,345.61703849451544,464.53814670290114,0.7440014150561405,900.8297471999999,715.6124159999999,83.84426913017676,76.5059360107596,484.7110347831995,638.2894687090038,636.5645043631434,185.0,451.3388116840953,606.6598824835828,0.7439733938502341,956.3949465599999,715.6124159999999,83.84426913017676,71.12169624757578,405.9891525491615,536.2467403505601,534.7049492832775,175.0,379.1837064910628,507.7048772082285,0.746858506808367,base
1783333639431094395,1783333649431094395,1466.9868267610616,1557.5093759999997,24.158518223949233,52.51976948738236,587.2630364160062,786.9894806905495,783.6759376265245,113.0,556.4855985187671,731.3806376994811,0.7608700173813228,1430.8650469743588,1515.4145279999998,29.694845316937606,58.2398907523377,706.6008229774612,968.8479844452704,964.66458277516,117.0,685.0789797401694,874.0153555996229,0.7838294548843107,878.2314603789472,715.6124159999999,83.84426913017676,75.39743399717692,357.8480266535901,460.3690556200294,459.14953280062923,190.0,325.5300810773697,450.6944680341857,0.7222855041847948,892.320735144385,715.6124159999999,83.84426913017676,76.71366735906237,472.0866703997536,621.6462577168032,619.9729134764013,187.0,439.57028433079176,590.8643087079508,0.743944553516872,964.5316616878613,715.6124159999999,83.84426913017676,70.62033130161007,409.0286375366264,534.5213115755354,532.9652054743242,173.0,377.9636441037885,513.0113005753675,0.7367550065269198,base
1783333640431094395,1783333650431094395,1486.3579072566372,1599.604224,79.18625417850028,51.897693141586046,591.5005477208598,817.0201450885804,813.4145724140775,113.0,577.7204849581522,729.9762438175732,0.7914236796759774,1421.5106363076923,1515.4145279999998,41.92213456508838,59.848318668293395,752.6581028955145,1072.7548900442614,1068.125931130217,117.0,758.5522573013264,919.3952774406016,0.8250556381070093,886.4548044255318,715.6124159999999,83.84426913017676,74.94606098824387,363.18952932796316,468.3158466399564,467.0776636204604,188.0,331.1493108962324,457.1469516177594,0.7243826295337978,896.9615719783784,715.6124159999999,83.84426913017676,76.05977896087515,453.39065857421895,600.3482557801475,598.7146520560896,185.0,424.51032273565824,566.5877438757051,0.7492402144667375,972.0973038139535,715.6124159999999,47.51175250710016,69.9771258113214,398.70420180781247,536.4411070764704,534.8798393933828,172.0,379.3211445209911,495.97158763184444,0.7648041822963415,base
1783333641431094395,1783333651431094395,1489.626693189189,1599.604224,35.63381438032512,51.5579256654886,589.5511830730229,846.9550025385289,843.1110949080238,111.0,598.8876256548633,718.1977449451801,0.8338756698554884,1401.7224598974356,1515.4145279999998,33.93696607650011,60.52219902800652,712.901962272991,1042.5247359229995,1038.0265062247975,117.0,737.1763103258677,862.9854919826475,0.8542163421916372,900.1471280432432,715.6124159999999,49.150088800448444,73.75035889159085,359.199721188635,483.42489133818964,482.11726339714704,185.0,341.8330188596038,446.79298675410195,0.7650814336701659,925.1512149333333,715.6124159999999,83.84426913017676,74.9160516567891,495.3616659365188,637.9320003849257,636.1475717136325,180.0,451.0860434080802,623.7203306611292,0.7232184381899807,996.244736,715.6124159999999,83.84426913017676,69.14193189045831,437.4954231315466,596.3510223738535,594.5300989707379,165.0,421.6838518880824,542.1216238543865,0.7778399409527085,base
1783333642431094395,1783333652431094395,1508.9675692972971,1641.6990719999997,25.91550136750918,51.275349102407674,593.256337647348,838.7461505621828,834.9320673122443,111.0,593.0830907566325,726.6583709328396,0.8161787085659918,1434.1279249655172,1557.5093759999997,178.16907190162559,60.94868363514781,746.4125145459413,1088.3504822965006,1083.6566610895932,116.0,769.5800063395052,904.5090329360087,0.8508262254070277,916.3724603076922,715.6124159999999,27.410626446403935,73.11529061073011,382.829169803976,513.4328399985747,512.0772519780996,182.0,363.05184284685976,476.6686755056939,0.7616440129230246,936.9650998651684,715.6124159999999,83.84426913017676,73.8337002264138,487.3253369995382,632.1398385956793,630.3516035035897,178.0,446.9903665291744,612.4310363448966,0.7298623681727445,1018.7986218404908,715.6124159999999,79.18625417850028,68.58758994048807,483.3651172574153,667.7653749126667,665.7012309653272,163.0,472.1814248423239,596.4947813514265,0.7915935555589328,base
1783333643431094395,1783333653431094395,1486.4743199999996,1578.5567999999998,59.38969063387521,54.49173637260749,766.8387610710765,1101.608256042623,1096.6371905357119,112.0,778.9546680588253,934.183163794301,0.8338350531763001,1499.7246301090909,1578.5567999999998,178.16907190162559,59.04990099623499,839.3996014247957,1220.1373655076359,1214.529043820935,110.0,862.7674051295384,1018.3317652254757,0.847236072360472,905.039232,715.6124159999999,83.84426913017676,73.46113657005446,363.794296394064,505.0996261334196,503.71768202214116,184.0,357.1593708137309,448.2311592221966,0.7968195951247564,946.1773789090909,715.6124159999999,83.84426913017676,73.08931656423083,487.3029296248253,635.4420013229005,633.6238516698961,176.0,449.32534818617404,611.5403961968184,0.7347435279509532,1021.6393784539875,715.6124159999999,83.84426913017676,68.0591088924165,474.04027184347126,646.7073635701759,644.7082633820304,163.0,457.2911622237454,587.2569753820659,0.7786900477874009,base
1783333644431094395,1783333654431094395,1508.9675692972971,1557.5093759999997,33.93696607650011,54.33146042930676,796.0105947374649,1165.6937701160664,1160.3846422701147,111.0,824.269969635983,963.0966942351806,0.8558538042647489,1506.3129392432434,1557.5093759999997,33.93696607650011,57.69631288149588,825.5197761677632,1190.2804536036615,1184.8579826010277,111.0,841.6553802569489,1004.3773753576954,0.8379871957561815,903.4377975652172,715.6124159999999,36.54750192853859,73.78218869863524,370.7509927599522,511.58621231699334,510.2116185696802,184.0,361.74607989088685,457.6925650551562,0.7903691418874002,958.5045274482758,715.6124159999999,16.968483038250056,73.18661130692078,530.8904267468718,680.4503625223297,678.6081097172865,174.0,481.1510656003839,669.2802973782799,0.7189081577407251,1021.7095205925924,715.6124159999999,18.04243766092411,68.43667107484032,500.2563503125719,651.9297128083352,650.110641022705,162.0,460.98392078377225,627.9010626249328,0.7341664924990484,base
1783333645431094395,1783333655431094395,1490.984482285714,1557.5093759999997,28.507051504260097,55.6003578732158,826.0405416027785,1243.2616992951123,1237.7371196474785,112.0,879.1187783610842,989.0707960046543,0.8888330157075504,1499.7246301090906,1557.5093759999997,64.78875341877296,58.1769114289484,833.5887514903762,1211.998223367655,1206.4307950050495,110.0,857.0121625293169,1011.1901353657385,0.8475282071648605,886.4417726984126,715.6124159999999,89.08453595081279,74.4863062582178,342.3982832502,470.25195096224485,468.9996667658368,189.0,332.5183433916071,423.3071513681514,0.7855249842032908,916.6037506813186,715.6124159999999,89.08453595081279,74.54068824257568,460.44356792421155,588.2326762480889,586.605519575716,182.0,415.94331429053466,580.9579486796431,0.715961138385074,1000.8937653975904,715.6124159999999,83.84426913017676,69.8938961591269,516.9145224200842,703.8291007744577,701.6930439492022,166.0,497.682329954049,640.7475292213945,0.7767214187447723,base
1783333646431094395,1783333656431094395,1510.439682327272,1557.5093759999997,36.54750192853859,54.90656043577599,845.5142085905549,1272.795247301896,1266.964532290974,110.0,900.0021504291796,1012.3174494537031,0.8890513059069223,1538.0210204444447,1557.5093759999997,31.674501671400108,56.7206837550142,856.434341535639,1246.4616448528232,1240.6722870540689,108.0,881.3814815643693,1038.5292026230488,0.8486824244693687,900.5129042580644,715.6124159999999,95.02350501420032,73.93434296577303,367.26592827832343,511.57890537965176,510.1945891415166,186.0,361.7409131059429,452.0401310071005,0.8002407049569251,919.7724288000001,715.6124159999999,38.52304257332446,73.9439662190505,445.74491212234193,580.0761038954035,578.4603937794448,180.0,410.1757466687121,559.6918632500306,0.7328599424099091,1013.8480360727273,715.6124159999999,95.02350501420032,69.10110223074457,521.5430238943926,716.248635695481,714.078265398391,165.0,506.46426731588764,644.7954904556208,0.785464964958135,base
1783333647431094395,1783333657431094395,1522.7521620550453,1557.5093759999997,129.5775068375459,55.96158297563451,888.1736583750916,1340.8902565722526,1334.750173450041,109.0,948.1525932492094,1062.1714667699314,0.8926549271112941,1561.0834668679242,1599.604224,30.326650536446913,55.486989410456594,852.6945622539857,1237.096403729055,1231.1916363320533,106.0,874.7592560583058,1035.1686601540796,0.8450403202199942,896.8918420645163,715.6124159999999,95.02350501420032,74.28418212649017,368.6609359213133,510.7310925786158,509.34907116820585,186.0,361.14141892515363,454.5439572990941,0.794513738717506,892.0956290053474,715.6124159999999,95.02350501420032,75.32634519497383,421.59377376232237,553.8008263203625,552.3102935399871,187.0,391.59631971784177,528.0234666584747,0.741626735258579,981.3051919058823,715.6124159999999,95.02350501420032,70.89466312627867,508.59766502502936,706.7283793550743,704.6345408358757,170.0,499.73242949895183,626.4797835456158,0.7976832495227117,base
1783333648431094395,1783333658431094395,1426.1878416410254,1473.3196799999998,37.50927829507907,59.93003110320911,864.8304378155997,1287.8606388888063,1282.297551318268,117.0,910.6549909815144,1039.8159048816633,0.8757848256659931,1562.23029353271,1557.5093759999997,109.64250578561574,55.701887846496,859.9768950924143,1246.5434736004881,1240.6498722424972,107.0,881.4393432267393,1044.3432684187637,0.8440130461714216,899.833955096774,715.6124159999999,44.542267975406396,74.26513973225646,376.42706200572553,511.94560069292027,510.56054541520666,186.0,362.0002058485844,466.7682417467109,0.7755459208062869,871.7141439999999,715.6124159999999,44.542267975406396,76.13523477286158,388.91518991565914,523.4440909689259,522.0724388897125,192.0,370.1308662961556,483.74747627423864,0.7651323974790656,961.8914692413791,715.6124159999999,95.02350501420032,72.06388373396767,499.5935943883497,686.3876172369847,684.409440656098,174.0,485.3493386707483,617.5803824877174,0.7858885295476513,base
1783333649431094395,1783333659431094395,1369.9959621818182,1304.9402879999998,118.77938126775042,63.50157279109936,880.510457454583,1304.4169928404392,1299.0541023652884,121.0,922.3621011324389,1060.7645396463035,0.8695257681219124,1610.5326941538458,1641.6990719999997,33.93696607650011,54.02040198402945,842.6321788490718,1197.3594995048938,1191.5609331316368,104.0,846.661021618041,1030.359420251116,0.8217142532764881,912.1325627403313,715.6124159999999,83.84426913017676,73.50325103878086,381.54787278093704,517.0500230666808,515.6117726504477,181.0,365.6095775231107,473.62683291701546,0.7719359464314165,884.6599801904762,715.6124159999999,95.02350501420032,75.53464156315053,404.3072571910742,546.5657725039334,545.1103858952315,189.0,386.4803641019951,502.2401621898964,0.7695130600803433,943.5464509090908,715.6124159999999,25.00618553005272,73.07554901406338,472.11390499583797,639.2791954621104,637.5190924712363,176.0,452.0386541827386,586.1856413655725,0.7711527241262234,base
1783333650431094395,1783333660431094395,1385.3031796363637,1347.035136,38.52304257332446,63.132339747596525,894.2389718771191,1326.8264052610145,1321.2910526605624,121.0,938.2079486174337,1076.665965015718,0.8714011393531298,1611.3422104615381,1683.7939199999996,54.82125289280787,52.883512328409815,812.9433127278546,1099.3349692393838,1094.0101088966746,104.0,777.3472115446729,1009.7620094704187,0.7698321032619969,943.6856319999998,715.6124159999999,59.38969063387521,72.6120304688715,445.32116786493106,555.7861122907464,554.2074541424491,177.0,393.00012889009474,565.1524877794989,0.6953877712441895,874.0741736544503,715.6124159999999,64.78875341877296,75.89397476307455,366.03792996620984,506.2030519696078,504.8703965603927,191.0,357.93961070503605,451.56079312985037,0.7926720303241812,965.0183073294797,715.6124159999999,64.78875341877296,72.88032211284647,562.8798350161428,767.8745702082048,765.6401006392015,173.0,542.9693156949272,697.3231520912607,0.778648054444444,base
1783333651431094395,1783333661431094395,1384.607397024793,1304.9402879999998,32.39437670938648,64.01279695881959,914.4986911071105,1314.0021309607673,1308.5168435480598,121.0,929.1398172959324,1113.9862261405558,0.8340675993050378,1609.412732271844,1641.6990719999997,37.50927829507907,52.162044171302114,816.5729086356386,1131.2971798795288,1125.7488394138202,103.0,799.9479074300323,1006.7891054905641,0.794553599226973,940.3560959999999,715.6124159999999,95.02350501420032,73.07515043997566,449.8939863802834,559.492394844895,557.9191710229074,177.0,395.6208664171266,571.4466405448248,0.6923146245814594,885.3352605957446,715.6124159999999,95.02350501420032,75.67920764750569,391.99221863506017,527.0311502725018,525.6202799084314,188.0,372.66730025423243,487.72465654453487,0.7640936238379484,945.6990283636362,715.6124159999999,95.02350501420032,73.30194021968273,498.70069847822907,638.7028127503335,636.8755148466454,176.0,451.6310900586825,628.8238645054354,0.7182155696554019,base
1783333652431094395,1783333662431094395,1350.861940363636,1347.035136,30.9859255481088,63.67282386993058,791.2263907396912,1135.8387239823053,1131.097521519647,121.0,803.1592640621633,964.1296598909707,0.8330407179393164,1528.0036414205606,1599.604224,28.507051504260097,54.30946371397065,715.3604321776352,991.4645640059415,986.7882688982694,107.0,701.071316514765,881.8903562409972,0.7949642623409988,940.5124185168537,715.6124159999999,89.08453595081279,73.38184182108559,467.70173639772133,590.7424047233794,589.0730054603807,178.0,417.71796031434957,591.8155804592313,0.7058245407973424,875.3965249005236,715.6124159999999,89.08453595081279,76.07171867279092,369.14131947232437,484.26255542203256,482.986549853826,191.0,342.4253368136455,462.49656413595983,0.7403846068637667,928.8929791999999,715.6124159999999,89.08453595081279,74.3051675480828,487.59991078499365,633.3132902778539,631.5559670981894,180.0,447.8201221710349,612.5650292698949,0.7310572768164443,base
1783333653431094395,1783333663431094395,1392.637888,1347.035136,44.542267975406396,62.14702926154556,825.4931984301803,1160.655152603794,1155.7690279645833,120.0,820.70712902525,1012.9649280663887,0.8102029066217203,1508.209103567567,1599.604224,18.754639147539535,56.55347345568221,743.7571493281423,1034.9713470497802,1030.3119098875493,111.0,731.8352578326753,915.7281103307574,0.7991840040471612,964.5316616878613,715.6124159999999,83.84426913017676,73.04975057106775,529.7826876906565,678.3772531660178,676.4023515863913,173.0,479.68515591639454,668.0497496071708,0.7180380745572629,867.986996,715.6124159999999,83.84426913017676,76.50072511867016,365.3940257496229,477.5785999540188,476.3267535021787,192.0,337.6990665770641,458.2633067609952,0.7369105525029288,925.8540877790055,715.6124159999999,83.84426913017676,74.58369524253371,487.596076549479,634.8234798318681,633.0576252851699,181.0,448.8879874455554,612.1679958119587,0.733275817286341,base
1783333654431094395,1783333664431094395,1349.750932645161,1347.035136,40.72435929180014,63.76157649529689,765.5333354882631,1030.5699032249863,1026.3756967049026,124.0,728.7229670571519,952.136541746656,0.7653555294919561,1495.1187977142856,1578.5567999999998,43.19250227918197,57.16696587133116,757.8964805835291,1065.7291927316458,1060.9373378603211,112.0,753.5843390890118,929.9835872216713,0.8103200416045483,941.7830399999998,715.6124159999999,83.84426913017676,74.01607605310906,505.57039835682235,649.3920935314546,647.5446016127873,177.0,459.1895529850203,637.004970627436,0.7208570955619524,867.4155984248705,715.6124159999999,83.84426913017676,76.32411596378357,359.65946966359036,459.8163658011108,458.6173641102617,193.0,325.1392703585195,453.70926337551776,0.7166247123533253,951.2000596363633,715.6124159999999,40.72435929180014,73.11141549330227,474.01498945220686,580.729960966817,579.0845421803689,176.0,410.6380934378353,604.2090685843943,0.6796291462488674,base
1783333655431094395,1783333665431094395,1351.4841849756097,1431.2248319999999,26.39541805950009,63.54497706348239,747.1252430269137,998.230567508981,994.1463692256148,123.0,705.8556034732962,931.2766458248183,0.7579440616683027,1472.9471592212387,1599.604224,29.088828065571533,57.997462921907996,741.4229704572592,1046.1604745972668,1041.4829666722446,113.0,739.7471657970643,908.7370948689929,0.8140387026939944,944.503152,715.6124159999999,83.84426913017676,74.02390217358764,524.6396507654987,684.8531060022378,682.893579508168,176.0,484.26427537085186,658.207856311713,0.7357315333251123,865.7945559999998,715.6124159999999,83.84426913017676,76.25569921060816,353.572581485165,442.54943697081467,441.3894102391121,192.0,312.92970789235164,448.4023190343367,0.6978770952083074,940.4371723636363,715.6124159999999,83.84426913017676,73.92602605922704,488.2125706039391,612.0527567824192,610.3027143604068,176.0,432.7866547647693,618.9110468558246,0.6992711746920669,base
1783333656431094395,1783333666431094395,1337.2691312640002,1347.035136,27.410626446403935,63.747009327495455,744.621356632969,981.9694448059587,978.0278575721743,125.0,694.3572533402826,931.5878551563001,0.7453481166559268,1413.744768,1515.4145279999998,27.948089710058916,60.87099591530769,735.8926105174353,1032.038604173529,1027.6293624130515,118.0,729.7614954574015,903.7698536144143,0.8074638610027681,947.6124305454545,715.6124159999999,83.84426913017676,74.30217285695727,540.7834377696444,705.9195626987898,703.8998011962719,176.0,499.1605097565565,678.4635921563491,0.7357218803297658,868.6447279999999,715.6124159999999,83.84426913017676,76.13566042951574,356.8810405868044,446.8799302760243,445.70860678642816,192.0,315.99182907434835,452.5513630956872,0.6982452266032292,926.5543765333332,715.6124159999999,83.84426913017676,74.71781630858995,479.68667654209906,603.424518414735,601.7366603107682,180.0,426.6855689052858,607.592238222309,0.7022564510594815,base
1783333657431094395,1783333667431094395,1344.3193393548386,1452.2722559999997,33.93696607650011,64.46610657749325,745.0673424405794,968.7339709952616,964.8501457537515,124.0,684.9983600565217,935.7560114169041,0.7320266732984275,1422.5899913846154,1515.4145279999998,37.50927829507907,59.35712652026586,724.0064570022738,1028.5631087596382,1024.1223653328968,117.0,727.3039490822565,885.372905834964,0.8214662367563211,943.3072756363636,715.6124159999999,41.92213456508838,74.74664504417015,545.0038909891922,714.368616125836,712.3363760829984,176.0,505.13489272942826,682.9918392340667,0.739591403165089,863.9258700932643,715.6124159999999,83.84426913017676,76.61899574864255,362.16639267401166,451.7969993781989,450.6189087175257,193.0,319.46872198005883,459.6725571569688,0.6949919393838575,916.1411699340659,715.6124159999999,83.84426913017676,75.33283526739476,475.45512209685137,594.7981996115566,593.1528349115207,182.0,420.5858403828814,603.0496842640549,0.6974314908997136,base
1783333658431094395,1783333668431094395,1409.8145213793102,1557.5093759999997,118.77938126775042,61.533127713744896,745.7675746980607,1010.3142131071872,1005.9125509831725,116.0,714.4000312172428,925.8265758987783,0.7716348286110865,1436.668131310345,1536.4619519999997,52.79083611900018,60.01179485915498,748.4906006127908,1066.02246822592,1061.3957093834624,116.0,753.7917161797689,914.5356104169875,0.8242344066143836,960.8818193757226,715.6124159999999,41.92213456508838,73.94950911459522,561.0904202280188,742.3658254045268,740.2104655039973,173.0,524.9319092646896,701.3331338680453,0.7484772698097774,879.5373267301586,715.6124159999999,64.78875341877296,76.30475553868393,403.05730550864627,533.4313538297907,532.0108089352935,189.0,377.1929275905656,503.75900064972495,0.7487567013275787,926.086656,715.6124159999999,83.84426913017676,74.72177268752556,481.12177268675714,604.2239660689264,602.515452060218,178.0,427.2508637627683,609.6594705353797,0.7008024715626461,base
1783333659431094395,1783333669431094395,1458.9188109473682,1557.5093759999997,33.14773430727918,59.63803581764445,757.8899623266357,1019.4042827725812,1014.8990034131594,114.0,720.827681119101,942.8669667864964,0.7645062416131139,1433.0550427826083,1515.4145279999998,34.76469695641476,59.68608057140153,749.8795154293856,1077.0916392919194,1072.3574019236207,115.0,761.6188021026509,913.5682653546378,0.833674757525644,939.2412959999998,715.6124159999999,41.92213456508838,74.39027610719162,523.194981988157,708.8979468428697,706.9141907414893,176.0,501.2665453818139,649.4858763635024,0.7717897549803939,870.3275117905758,715.6124159999999,83.84426913017676,76.75608040497129,395.61466102894366,526.8037767660637,525.4362211870913,191.0,372.50652290596787,493.60041049248,0.7546722307915159,927.4976564916199,715.6124159999999,83.84426913017676,74.41088711937823,471.54124926322703,621.1085745652452,619.3729881665424,179.0,439.19008492819535,590.134166240044,0.7442207383558769,base
1783333660431094395,1783333670431094395,1387.7150311260502,1557.5093759999997,71.26762876065024,60.92358332325977,673.0253772685627,919.0161384726513,915.1415294986118,119.0,649.8425435338869,833.5338332675443,0.7796234748941535,1457.6738072920355,1599.604224,24.158518223949233,59.66307716740032,773.110645841079,1107.208624290087,1102.294693975944,113.0,782.9147264237489,942.8268170772582,0.8303908122286624,950.9055837225435,715.6124159999999,83.84426913017676,73.72696158036872,523.6229421423795,712.2354982793817,710.1715164955184,173.0,503.62655063513034,649.262750990201,0.7756898880569407,868.4831797894736,715.6124159999999,83.84426913017676,76.67625701529393,387.6023171107052,527.2839050321928,525.9784258357861,190.0,372.8460248587871,480.5871755807428,0.7758135127268825,935.1239679999999,715.6124159999999,49.150088800448444,74.35511012170483,509.5816608862699,705.1984407029579,703.2013340190593,177.0,498.650599503241,628.5067446183438,0.7933894166975773,base
1783333661431094395,1783333671431094395,1413.0312959999999,1557.5093759999997,33.93696607650011,60.31039489269813,747.656141087561,1093.5090260926625,1088.8264173887123,118.0,773.227647638819,905.0076867493199,0.8543879338927616,1475.5548046725662,1599.604224,31.674501671400108,59.573521691845045,787.2580821040802,1103.2115458305075,1098.2757087558327,113.0,780.0883651400455,967.0996055024297,0.8066267018429527,959.421882450867,715.6124159999999,79.18625417850028,72.90812813373319,512.5936277189663,672.8633198955747,670.904515196065,173.0,475.78621630985407,642.1200764194784,0.7409614397401846,874.4146732698412,715.6124159999999,79.18625417850028,76.52483199862883,410.8088723291785,589.8822942872324,588.3114092226198,189.0,417.1097703923807,500.53729020958093,0.8333240670594829,928.2150471910113,715.6124159999999,83.84426913017676,74.56574379089561,502.2018792243569,687.4108714609198,685.4662823558239,178.0,486.0728886713706,621.5143026852124,0.7820783633961826,base
1783333662431094395,1783333672431094395,1385.6510709421486,1515.4145279999998,50.90544911475017,60.96917006129497,677.5306422181769,963.4248569303385,959.4332272666016,121.0,681.2442494991217,828.2805554589216,0.8224800703206993,1482.6326994690264,1599.604224,54.82125289280787,58.92340983181475,784.9414295510451,1100.5685924608679,1095.6652098767702,113.0,778.2195148900134,964.0815779660207,0.8072133444680777,953.6660391724138,715.6124159999999,95.02350501420032,72.651193745044,484.21832463051356,637.7800156031541,635.9565793175012,174.0,450.97857393825234,606.0065467800434,0.7441810263180867,900.8297471999999,715.6124159999999,95.02350501420032,75.39886878644117,440.6691888404596,620.2080143017978,618.5408477938273,185.0,438.5532926590445,540.5683793338013,0.8112818089721033,954.3121032138729,715.6124159999999,95.02350501420032,73.38308887844204,524.5896415425892,717.1794784526093,715.1083671844793,173.0,507.12247254167147,649.4628418540782,0.7808336980356639,base
1783333663431094395,1783333673431094395,1315.2154083779526,1473.3196799999998,109.64250578561574,64.20744897058948,636.4743080323462,915.3241296174818,911.6849002952168,127.0,647.2318990361958,775.0771084256764,0.8350548506726542,1507.0714049729727,1641.6990719999997,101.81089822950034,57.56077346996373,774.8159401399503,1071.976942146743,1067.093263533961,111.0,758.0021650675815,955.7174483425212,0.7931237065747488,918.4119047071821,715.6124159999999,52.79083611900018,73.85942035686945,423.80339331069797,542.3491073615787,540.8455398881571,181.0,383.4987315858432,534.4932121171877,0.7174997228996821,911.8250135081967,715.6124159999999,29.694845316937606,75.422003005226,474.0460266453522,658.1803626613727,656.4088446230005,183.0,465.4037976816777,584.0709916681601,0.796827447897116,928.9245109213483,715.6124159999999,79.18625417850028,74.74670196544488,508.8031361549778,693.7817949923967,691.8191834366776,178.0,490.5778119028988,630.418882931471,0.7781775343113042,base
1783333664431094395,1783333674431094395,1368.7726394754095,1473.3196799999998,109.64250578561574,60.86129535976161,678.3756052871995,949.8822996352825,946.0104977229864,122.0,671.6682154011803,833.5573333055413,0.8057852634294798,1480.39757479646,1599.604224,52.79083611900018,57.0428014949175,732.7600967050537,998.5130917343264,994.0710992177127,113.0,706.0553782688874,908.0845886012979,0.77752159559982,935.2581591955307,715.6124159999999,67.87393215300023,72.8018540225933,430.1941619320113,556.0430954684473,554.4797836760673,179.0,393.181843437698,541.1451311027735,0.7265737430482868,908.6996535652174,715.6124159999999,89.08453595081279,75.46594745622865,465.39625789184316,662.5650557642307,660.7523289160637,184.0,468.50424390813055,568.7171884509008,0.8237912505937527,939.3299789662922,715.6124159999999,89.08453595081279,74.39509727228202,521.9268413272225,722.9261247916943,720.8811072376674,178.0,511.18596513711935,643.5524142748898,0.7943190854362473,base
1783333665431094395,1783333675431094395,1367.047440786885,1473.3196799999998,35.63381438032512,61.13639813519877,740.6070378017981,1083.8223406334519,1079.348797020724,122.0,766.37812666339,896.2867021043347,0.8550591288078462,1520.389373672727,1641.6990719999997,36.54750192853859,56.778209464131265,782.4015395060898,1065.1736637015345,1060.3275587113794,110.0,753.1915207446741,969.8740147989125,0.776586968257765,924.691246674033,715.6124159999999,95.02350501420032,72.96236973278965,388.21960863816116,477.03782309844536,475.71110241262124,181.0,337.31667959537936,494.50749023215826,0.6821265324758136,909.6147589565217,715.6124159999999,95.02350501420032,75.7952674757239,477.7695184351129,685.183279360386,683.3087842627252,184.0,484.49774319136554,582.3730710744412,0.8319370644962997,929.8284202666665,715.6124159999999,95.02350501420032,74.56860064480864,495.64802053217886,679.8579522630723,677.9564111195677,180.0,480.7321682888185,613.0107761704519,0.7842148735002786,base
1783333666431094395,1783333676431094395,1368.0825599999998,1494.367104,54.82125289280787,61.42576835105913,743.2132901938652,1095.798263015834,1091.2701481913762,122.0,774.8463825909362,896.960718835809,0.8638576543202823,1530.2256782222219,1641.6990719999997,44.542267975406396,56.249244662486745,785.2336673177916,1066.8213259360675,1061.8256433444776,108.0,754.3565938838174,973.9901894838055,0.7745012239636733,944.1612799999999,715.6124159999999,101.81089822950034,71.97324881756921,401.45102023231806,502.5955508362294,501.16620226481166,177.0,355.38872219048596,509.09259605797143,0.698082676790721,923.2958373480662,715.6124159999999,101.81089822950034,75.18120744073016,488.1026697807428,703.9383442296662,701.9805871491166,181.0,497.7595767420271,593.8064788927254,0.8382521822096021,948.6976029257142,715.6124159999999,41.92213456508838,73.47532340053075,503.8817168736384,696.2888894887674,694.2973573728383,175.0,492.35059542235797,621.7628284102193,0.7918623837343984,base
1783333667431094395,1783333677431094395,1363.252003672131,1473.3196799999998,31.674501671400108,59.37170270576599,654.0241916235717,938.5907661238637,934.7043099635173,122.0,663.6838954852609,797.0301938411666,0.8326960516849891,1525.841692183486,1641.6990719999997,50.90544911475017,57.806966219308805,806.6075395991013,1110.045254351476,1105.0213121251882,109.0,784.9205267758746,996.5848329164826,0.7876103477100115,964.7551791627906,715.6124159999999,64.78875341877296,70.3998101819486,391.60211448479686,513.0150984889987,511.5187783340727,172.0,362.7564549926555,490.8241124053592,0.7390762715688755,933.4177812134831,715.6124159999999,83.84426913017676,73.76273436418258,449.95756509561676,642.5253574580455,640.7088466585158,178.0,454.3340373428944,549.2849097047953,0.8271373003621549,986.1154037396449,715.6124159999999,41.92213456508838,71.47882124531178,520.9004631841376,719.916306658893,717.7831398202077,169.0,509.0577023252772,642.7322249137295,0.7920214400228731,base
1783333668431094395,1783333678431094395,1368.256505652892,1473.3196799999998,30.9859255481088,59.75067843555814,687.9454765515917,979.8445978087213,975.7624507626973,121.0,692.8547596195522,840.5439301142205,0.8242933352994423,1551.608229084112,1641.6990719999997,142.53525752130048,57.093929747028625,810.111991878747,1151.0793552450698,1145.6947525987487,107.0,813.9360177776277,990.6144347089086,0.8216476453997991,995.9941714285712,715.6124159999999,44.542267975406396,69.20109822775731,438.1369970952252,550.2836411171463,548.646639856928,168.0,389.1092942099586,555.1801824875927,0.700870287672155,948.4570609371427,715.6124159999999,40.72435929180014,72.60521341955825,457.0619003534723,645.8661267083975,644.0222376926122,175.0,456.6963179341978,559.9333872007704,0.8156261590638891,995.9941714285712,715.6124159999999,28.507051504260097,70.96135926344195,525.2360788027136,722.5632342752479,720.4446446053826,168.0,510.9293627921118,649.0157702787537,0.7872372077687211,base
1783333669431094395,1783333679431094395,1371.8779971147542,1494.367104,178.16907190162559,60.451594724481154,704.0436917465944,990.1012324414587,986.0019691267289,122.0,700.1072955205136,863.8749487951502,0.8104266670736963,1481.887657911504,1557.5093759999997,75.01855659015814,58.94987227658701,777.4159143694454,1088.8349564285083,1083.96422977057,113.0,769.9225812835573,955.175699672366,0.8060533591334534,988.9783634285714,715.6124159999999,83.84426913017676,70.82917849373949,510.7573160651393,679.2463778069506,677.2096524489791,168.0,480.2997198436944,637.4967932367688,0.7534151150864051,960.3951737341039,715.6124159999999,50.90544911475017,72.06361566526554,465.6621882098118,631.3512984128985,629.5190558468479,173.0,446.43278441869205,577.9545237774225,0.7724358337069075,1002.622743272727,715.6124159999999,36.54750192853859,71.26863244697064,576.4500457108201,784.8522240507444,782.477993613197,165.0,554.9743298556249,714.5565456985634,0.7766695766716012,base
1783333670431094395,1783333680431094395,1406.816894924369,1515.4145279999998,142.53525752130048,59.60296851843617,730.7190784700136,1041.4053239517953,1036.9832620500822,119.0,736.3847665300877,892.6194492006915,0.8249705596147313,1475.927325451327,1557.5093759999997,39.59312708925014,59.97792772688513,777.9473809102075,1085.260893575373,1080.4116531624736,113.0,767.3953372037184,957.0561389746678,0.8018289690151923,996.4953005714285,715.6124159999999,95.02350501420032,70.6151146904241,518.0285072872088,684.12375680263,682.0728257732378,168.0,483.74854760595616,647.8431446492209,0.7467062846947082,952.3057327542856,715.6124159999999,95.02350501420032,72.89819177070184,469.82374495925774,638.8007740037855,636.9626783542456,175.0,451.7003591252919,582.6251757675122,0.775284656263354,991.9851382857142,715.6124159999999,95.02350501420032,72.14680871926352,595.0907058406889,796.3779192186181,793.9901340994558,168.0,563.1242270667175,741.4252820083725,0.7595158146500303,base
1783333671431094395,1783333681431094395,1387.7268224,1473.3196799999998,142.53525752130048,60.33905352801428,727.6308424563749,1019.9655592850803,1015.6711947820843,120.0,721.2245635472098,893.7621888710755,0.8069535414763959,1473.692200778761,1557.5093759999997,23.36643565922959,59.621483237483616,767.2829599133944,1057.9899079651595,1053.4305549446253,113.0,748.1118383490956,947.423147177589,0.7896279931282556,983.5337426823528,715.6124159999999,89.08453595081279,71.27209180104927,520.5474451465548,698.9549807320018,696.8915212390762,170.0,494.2358066197111,647.9234283653375,0.7627997151864553,950.0041832727271,715.6124159999999,89.08453595081279,73.18001525291129,475.9849354290711,636.761654393598,634.9807349368208,176.0,450.2584838212778,593.0910270644093,0.7591726451332402,976.3528568470587,715.6124159999999,89.08453595081279,72.61117100642115,578.0521833122181,787.4487889291235,785.1156417150977,170.0,556.8103784889175,716.4284712848579,0.7772030297600011,base
1783333672431094395,1783333682431094395,1393.7675519999996,1473.3196799999998,31.674501671400108,59.61853375318881,716.9716183722255,1003.2125874226838,998.9167371648679,118.0,709.3784235382818,881.1854113702448,0.8050274259933528,1456.5562449557517,1557.5093759999997,30.9859255481088,60.6340048231481,771.0480567741606,1061.2296361168865,1056.4824509353116,113.0,750.4026720943828,952.616463518883,0.7877280110428283,964.5316616878613,715.6124159999999,95.02350501420032,72.29107207010682,505.6039763100444,690.6242646852586,688.6138833925677,173.0,488.34510081091946,626.1232250747789,0.7799504654257085,958.988376275862,715.6124159999999,95.02350501420032,72.6017411363402,479.16165694991935,646.3544415767492,644.4838415247266,174.0,457.0416086889635,595.6074805989987,0.7673537078972206,988.9783634285714,715.6124159999999,95.02350501420032,72.07965975726518,594.0977494999674,810.2639146627679,807.8344895393499,168.0,572.9431086088013,736.0518793337151,0.7784004425441284,base
1783333673431094395,1783333683431094395,1369.995962181818,1473.3196799999998,30.326650536446913,62.96336816207183,734.3309193824552,1009.4358741222642,1005.221092147695,121.0,713.7789517648232,907.6032185547377,0.7864438304895401,1456.3340395789469,1578.5567999999998,33.93696607650011,60.73334861810607,777.1339314477002,1084.831745510626,1080.0215162164525,114.0,767.0918836970026,955.8552797352797,0.8025188540146428,978.8290243764704,715.6124159999999,95.02350501420032,71.58520408852539,513.7629392456611,705.4040797253535,703.3536839396847,170.0,498.7960082504535,635.2212107300797,0.7852319787577173,945.4598530909091,715.6124159999999,95.02350501420032,72.65359709933638,443.984168798838,604.6707562459496,602.950054767628,176.0,427.56679212670895,550.3064631850402,0.7769612402006986,991.7345737142857,715.6124159999999,95.02350501420032,71.96080439018688,595.3413914034433,803.2757664006701,800.915729164998,168.0,568.0017415847349,739.9660501771211,0.7676051373556608,base
1783333674431094395,1783333684431094395,1322.114985984,1389.1299839999997,118.77938126775042,65.58364892061022,701.6800643977367,984.8429128660866,980.9238870286774,125.0,696.389102091122,861.5282553641432,0.8083183549177716,1430.8619453793103,1557.5093759999997,41.92213456508838,61.95777033921317,758.5709503049113,1099.6365913111317,1094.8461027137644,116.0,777.5604905569613,921.172956102925,0.8440982612499563,957.2949053793102,715.6124159999999,95.02350501420032,72.76887633525344,503.73064114548146,684.3516638193462,682.371075846945,174.0,483.9097022029561,624.8238293427987,0.774473826825621,935.7826603146066,715.6124159999999,95.02350501420032,72.83901903945647,419.5138136474913,546.4180154147804,544.9322711203345,178.0,386.3758840622867,526.6312920722308,0.7336743749919303,974.0895528421053,715.6124159999999,44.542267975406396,72.58622574702355,579.1822740471985,772.3445818571,770.0697889363378,171.0,546.1300912438439,722.3400687072285,0.7560567590016881,base
1783333675431094395,1783333685431094395,1290.4701839999998,1262.8454399999998,158.37250835700056,66.37739545064161,695.6802478952418,948.7955997427756,945.0565217271538,128.0,670.8998025380739,861.9099385088658,0.778387361095701,1410.5341439999995,1473.3196799999998,158.37250835700056,64.22942759851738,805.7871017846297,1173.7159611346835,1168.765130702798,118.0,829.942515305221,976.8231249562881,0.8496343852858317,957.5368297931035,715.6124159999999,95.02350501420032,72.74613739934841,503.44092146082824,683.8547034317262,681.8755539687297,174.0,483.558298142889,624.4927613281295,0.774321702487775,936.019148224719,715.6124159999999,95.02350501420032,72.9792806282139,426.10255888850276,549.8391403919288,548.2839287688641,178.0,388.794984732915,536.2331687856749,0.7250483695616208,968.6709789767442,715.6124159999999,95.02350501420032,72.73482674000155,568.6562028133987,749.9778027041547,747.7818318006265,172.0,530.3143900314944,711.4232761577797,0.7454273817066974,base
1783333676431094395,1783333686431094395,1321.9786788571423,1325.9877119999999,31.674501671400108,65.704596292499,707.6178470283157,975.744739804024,971.842325385193,126.0,689.9557222225287,873.74286008652,0.7896553479752701,1441.563917473684,1515.4145279999998,33.14773430727918,61.15994490903053,773.104828361142,1113.3140838717554,1108.4536522325855,114.0,787.231938296207,941.0181129679811,0.8365746922907458,948.3299563636363,715.6124159999999,67.87393215300023,72.90149348495214,491.81132524410606,665.4937846119293,663.5896933054573,176.0,470.57516793659494,610.7669481377086,0.7704660007739894,931.2603244692735,715.6124159999999,37.50927829507907,73.16753712149628,422.73367937552234,538.0666283475065,536.5783002557635,179.0,380.4705616347037,533.8807013007872,0.7126508988013549,959.421882450867,715.6124159999999,89.08453595081279,72.94648325162964,559.0828250926294,746.5960296547574,744.4225688256703,173.0,527.9231153758317,696.9905327571167,0.7574322613644442,base
1783333677431094395,1783333687431094395,1311.9008534173224,1304.9402879999998,75.01855659015814,67.28739263020306,734.3848046027805,966.2553683329435,962.748253881991,127.0,683.2457233061295,919.3637600291139,0.743172347020175,1426.4662839652174,1515.4145279999998,38.52304257332446,61.21117199703816,792.6526143140686,1129.5991056716841,1124.6343564092617,115.0,798.7471876427073,968.2963384596102,0.8248995229222638,932.4718295730336,715.6124159999999,89.08453595081279,74.00605957494078,487.189652971496,671.4556633912443,669.5670219517505,178.0,474.79085285006073,601.6596537494677,0.7891352692360598,903.3140333114756,715.6124159999999,83.84426913017676,74.81095315897069,410.6153025690246,520.0919127417903,518.6611207249056,183.0,367.76051834000214,519.2166734445743,0.7082987453007132,931.2603244692735,715.6124159999999,89.08453595081279,74.37917499128667,544.2533145540713,722.8088394838941,720.7756567009737,179.0,511.10303190064025,679.5661749948803,0.7521019301828712,base
1783333678431094395,1783333688431094395,1258.6997352727271,1220.7505919999999,95.02350501420032,68.51726432339356,680.269109451723,921.9560455101782,918.4306129155799,132.0,651.9213717361803,844.4118574992236,0.7720419436871535,1421.2549995789473,1494.367104,32.39437670938648,61.10618168326222,789.0999946675774,1125.6086911429265,1120.658909210227,114.0,795.9255384696776,963.6435397877259,0.8259543136095805,923.499821765363,715.6124159999999,27.948089710058916,74.18318547030783,473.90534935847876,663.5445152082688,661.7003566842449,179.0,469.19682632290704,582.3227021037558,0.8057333582012874,893.5484761945944,715.6124159999999,41.92213456508838,75.09308975718959,393.5956967180903,516.2471080505385,514.8441812789553,185.0,365.0418308704801,493.1605983930202,0.7402088327007079,932.9448053932584,715.6124159999999,41.92213456508838,73.68899278074078,497.39186623192717,638.7196793130084,636.9241975528425,178.0,451.64301651952525,626.7428739139605,0.7206193086792512,base
1783333679431094395,1783333689431094395,1262.5289373834587,1262.8454399999998,34.76469695641476,66.22362437865279,633.3649451987354,854.0995793694465,850.8582030486237,133.0,603.9396043807135,787.3568344425721,0.7670468813651523,1472.9504269473682,1536.4619519999997,30.9859255481088,59.044967461397384,853.4679501052462,1230.8970063624697,1225.4430424696952,114.0,870.3756201411232,1038.2861954421235,0.8382810288356954,915.6785891868132,715.6124159999999,95.02350501420032,73.86192481901094,410.8010116998752,566.7798373122696,565.2121699938909,182.0,400.77386640331406,507.15391789017195,0.7902410930208069,899.833955096774,715.6124159999999,95.02350501420032,74.79811964501167,398.6224652450903,546.1935538561474,544.7155448856698,186.0,386.21716577206166,493.17125831463903,0.7831299153399942,946.8949047272727,715.6124159999999,95.02350501420032,72.86306368630869,486.7216615308665,619.4383803261196,617.6662081645989,176.0,438.00907925581083,614.7112939026524,0.7125443823798938,base
1783333680431094395,1783333690431094395,1277.305502290076,1262.8454399999998,83.84426913017676,64.75743642674156,629.6234835026924,825.9832036427969,822.8025059767551,131.0,584.0583244420108,788.8532175133253,0.7403891008812991,1501.003679135135,1557.5093759999997,27.948089710058916,56.42761829345193,825.6776279764755,1192.7970442904245,1187.4112075682403,111.0,843.4348785970298,1003.8903792071746,0.8401663130422018,938.9291519999999,715.6124159999999,28.507051504260097,72.43066290021996,418.7125363093085,579.9182781681766,578.3256116255018,177.0,410.0641470267442,516.2984348095222,0.7942386019009122,902.1949855135134,715.6124159999999,25.91550136750918,74.28141836690091,377.0113849041046,503.89212081048686,502.59617543935764,185.0,356.3055356115663,469.8918506857714,0.758271366254949,953.7489846857142,715.6124159999999,43.19250227918197,71.86026988637273,445.3920161864836,564.3491608957825,562.738443920717,175.0,399.05511862634575,563.1390612578551,0.7086262454161795,base
1783333681431094395,1783333691431094395,1295.0743079999997,1283.892864,52.79083611900018,64.19226341808157,642.354169366488,839.2048410222834,835.9261611603661,128.0,593.4074338914352,805.7118383803308,0.7365008252631894,1502.8998434594596,1557.5093759999997,47.51175250710016,56.27549254027193,847.3439127023612,1206.529158541604,1201.0619211583137,111.0,853.1449497040672,1035.401014189534,0.8239753853939107,941.0695679999999,715.6124159999999,44.542267975406396,72.29469026302544,417.7140793854536,600.102911154635,598.4063993526214,177.0,424.3368378872306,508.8607159524177,0.8338958473007951,901.8363631304347,715.6124159999999,41.92213456508838,73.63544495565866,343.34973975847777,467.00018106383226,465.72270362188976,184.0,330.21899484558134,425.7414653354965,0.7756326825843926,934.6969658181818,715.6124159999999,83.84426913017676,72.24512896201458,405.2944326160463,493.489412485223,492.09065074314634,176.0,348.9497100120665,517.3434102802249,0.6745030536352128,base
1783333682431094395,1783333692431094395,1289.0737683692307,1283.892864,30.9859255481088,64.08438462010044,631.1782698769433,826.6137045750647,823.4038007788832,130.0,584.5041559267617,791.169680019321,0.7387848279429611,1568.9182600373827,1641.6990719999997,25.91550136750918,52.80062642617647,845.1781358101737,1207.181074159448,1201.4749709970934,107.0,853.6059236582062,1031.6640083142045,0.8274069045532033,974.3357215438597,715.6124159999999,95.02350501420032,71.29181881033725,473.87200596598035,671.7871559860264,669.8085802575831,171.0,475.02525351174427,579.9007331772359,0.8191492549235346,905.4967846956522,715.6124159999999,95.02350501420032,74.1363072325051,397.7430115625961,562.2042447812829,560.6662521380655,184.0,397.53843389670686,487.21720339212544,0.8159367754852394,968.6709789767439,715.6124159999999,95.02350501420032,71.59875988998891,482.81784985412946,608.1810246287929,606.4003099100325,172.0,430.04892670400216,611.3551444094483,0.7034355245663586,base
1783333683431094395,1783333693431094395,1327.6581424761903,1304.9402879999998,64.78875341877296,61.462892876397724,707.5471710205776,921.7042244558148,918.146438686056,126.0,651.7433073609943,888.1786583191026,0.7337975319002065,1545.8163626666662,1641.6990719999997,59.38969063387521,53.261663283420056,816.3068692346164,1111.4372301911822,1106.265263941478,108.0,785.9048023313787,1011.8748096259144,0.7766818531849056,966.9434202352941,715.6124159999999,83.84426913017676,71.83375896517471,475.0679037483373,665.5436665639871,663.5821992992131,170.0,470.6104398031538,583.6453831889875,0.8063294139872732,912.2092335824177,715.6124159999999,36.54750192853859,73.81166156297915,404.658397899156,577.5227118162385,575.9274364672877,182.0,408.3702258145065,494.07865498797634,0.8265287757157702,971.8525663255814,715.6124159999999,83.84426913017676,71.44720289648157,488.2782918575553,646.1526115085848,644.2652090691844,172.0,456.8988932791171,610.2893422458096,0.7486594663406221,base
1783333684431094395,1783333694431094395,1351.1419504390242,1304.9402879999998,35.63381438032512,59.63608052286745,716.6349238525324,943.0210776527055,939.1762363591959,123.0,666.8165988100739,897.1114980569207,0.7432928908550953,1598.7947076923074,1683.7939199999998,34.76469695641476,50.98409951753908,818.6691885150883,1123.587212872811,1118.1494785359482,104.0,794.4961374768576,1012.3371099663805,0.7848138032826265,1000.9499485508981,715.6124159999999,52.79083611900018,70.45061957270883,512.0309077904577,728.9524086097455,726.757876224083,167.0,515.447191290218,625.706318939607,0.8237845386694407,918.3692671999999,715.6124159999999,83.84426913017676,73.37406639824444,406.0936911038229,582.5318897811812,580.9024267577854,180.0,411.9122495216877,494.9629493766637,0.8322082492041745,989.1043870295856,715.6124159999999,52.79083611900018,70.64204656590177,517.904407515734,691.3774947884491,689.3213064737024,169.0,488.87771492467925,645.716068077494,0.7571094155674748,base
1783333685431094395,1783333695431094395,1352.8062038709675,1389.1299839999997,129.5775068375459,61.63870982883307,750.7610449346228,1013.3979260935938,1009.2705373624666,124.0,716.580545581164,933.0275740994765,0.7680164718312649,1597.1756750769227,1725.8887679999996,178.16907190162559,51.901862042429215,817.4462202977664,1118.7008188609973,1113.3542043620048,104.0,791.0409351355548,1011.7132823226858,0.7818825243842676,990.598878674556,715.6124159999999,89.08453595081279,70.7698621490479,496.69532793459035,723.977996036153,721.8274332670597,169.0,511.92975042701113,601.977128218315,0.8504139549988899,935.2581591955307,715.6124159999999,43.19250227918197,72.5513189911506,416.81928339200635,607.7755104596395,606.0666095425347,179.0,429.76218488512654,505.1028234292821,0.8508409871228847,967.6948583583816,715.6124159999999,89.08453595081279,71.61537139902693,484.84541172887157,641.7836166961689,639.923156235494,173.0,453.80954742028905,605.952633366812,0.748919176898067,base
1783333686431094395,1783333696431094395,1365.9778175999998,1368.0825599999998,44.542267975406396,60.86161101874545,762.6601158839676,1032.8888681032718,1028.5641744607517,120.0,730.362722847921,946.8822795138683,0.7713342393765051,1588.2709956923075,1662.7464959999998,38.52304257332446,51.46793344794511,813.7634422188726,1127.6962047405602,1122.2193155891741,104.0,797.4016334903835,1003.2433389947081,0.7948237506260578,950.9608843636362,715.6124159999999,95.02350501420032,73.10335398561833,485.22723860223624,695.959987209549,693.9688480572855,176.0,492.118026390375,591.4396589796157,0.8320680206657162,914.585331409836,715.6124159999999,95.02350501420032,73.67676345034961,404.2215786278724,596.8218967710034,595.1801975021295,183.0,422.0168103673941,487.5869923823686,0.8655210597505973,967.4515355375721,715.6124159999999,95.02350501420032,72.1360111519272,497.39973241734873,664.2531161047543,662.3195137840553,173.0,469.69788282196686,620.0846208816835,0.7574738463181279,base
1783333687431094395,1783333697431094395,1385.6510709421486,1389.1299839999997,29.694845316937606,60.055011115792254,759.2761435296959,1048.1944011435469,1043.8546268953821,121.0,741.1853690503743,937.1886942443793,0.790860339654401,1628.2123731262132,1725.8887679999996,15.326371776483924,50.940046652709604,844.0240574349583,1149.6627762553178,1144.3676394312995,103.0,812.9343451678877,1046.0985107919657,0.7771106992136358,935.2581591955304,715.6124159999999,89.08453595081279,73.68116609819451,467.264773324401,659.7995600697608,657.943622635183,179.0,466.54874314922864,572.5721543288194,0.8148296064032777,904.9254621405405,715.6124159999999,89.08453595081279,74.27525236223326,400.3132267891838,584.2701873907812,582.6803785057218,185.0,413.14141154915626,484.93138289486103,0.8519584958244089,962.1333936551723,715.6124159999999,43.19250227918197,72.76529158084425,521.5926235973963,699.3212381389494,697.3080173870031,174.0,494.49478971582363,649.5037963356195,0.7613424163271592,base
1783333688431094395,1783333698431094395,1418.0255999999995,1515.4145279999998,83.84426913017676,60.752471598710244,796.3520802989041,1109.2161374764282,1104.4940877853264,118.0,784.3342526111321,980.1852690605243,0.80018979816223,1546.9856639999998,1683.7939199999998,29.088828065571533,53.927184227283156,745.1257061278645,1015.7603901352468,1011.0137262693952,108.0,718.2510599253261,923.2997039548807,0.7779175676638419,905.8356210162161,715.6124159999999,44.542267975406396,75.32797817925342,450.41512786007735,621.1939930947448,619.5131706331782,185.0,439.2504849496434,556.1268565230159,0.7898386488577441,911.8250135081967,715.6124159999999,44.542267975406396,74.28875594796106,424.8277844884894,624.491069567916,622.7827351234014,183.0,441.5818700819134,513.2835658330362,0.8603078288026733,915.6785891868132,715.6124159999999,44.542267975406396,75.24839853253219,496.2206455361545,655.168316542353,653.3679148840182,182.0,463.2739594456723,620.6113738583919,0.7464799695265977,base
1783333689431094395,1783333699431094395,1417.5530010256412,1473.3196799999998,95.02350501420032,60.90513135335816,796.7179138904586,1090.995767958265,1086.2985381562805,117.0,771.4505057691143,985.8757159004462,0.7825027975909851,1558.3111826285713,1683.7939199999998,95.02350501420032,54.0957538523084,761.7883995187409,1031.649728432985,1026.6958452806891,105.0,729.4865187842239,945.8159655761192,0.7712774422663463,900.602207481081,715.6124159999999,95.02350501420032,75.79863358999543,442.6729403347672,614.9309766006322,613.2715177010699,185.0,434.8218635159732,545.3289261661304,0.7973570493920726,881.5418433015874,715.6124159999999,95.02350501420032,75.95003115576209,403.6704112225575,587.5426215616516,585.9917849603424,189.0,415.4553719423653,489.4875062300291,0.8487558245197104,910.4448545573771,715.6124159999999,95.02350501420032,75.43998195555383,489.62250654153837,654.0210296404061,652.2350807937643,183.0,462.46270509733915,610.3478688592787,0.7577034813960564,base
1783333690431094395,1783333700431094395,1364.429701289256,1389.1299839999997,50.90544911475017,63.29965956771842,785.3946110073109,1071.6152406237784,1067.1410665667877,121.0,757.7464034679275,972.9334941373746,0.7788265159272403,1530.0897961100918,1641.6990719999997,19.26152128666223,56.17990334170321,779.1522784627058,1095.4482211144061,1090.373336590516,109.0,774.5988655887371,956.1144517167244,0.8101528684122784,909.2947220983605,715.6124159999999,89.08453595081279,76.00659156715423,513.5097457722635,726.5282333080345,724.5295642834967,183.0,513.7330404955933,628.8272414246745,0.8169700780323652,910.3589105934064,715.6124159999999,89.08453595081279,75.2635648090941,511.42293324496654,746.8348639780739,744.7733205158906,182.0,528.0919967454289,619.4079873431436,0.8525753744484297,909.2947220983607,715.6124159999999,89.08453595081279,75.64584353236992,485.21953864619024,663.1096279909782,661.2854294172839,183.0,468.8893146225096,600.7889868202146,0.7804559086613618,base
1783333691431094395,1783333701431094395,1515.797208436364,1599.604224,118.77938126775042,57.70188440755148,856.1711437971264,1173.499591151831,1168.1542116932274,110.0,829.7895186231007,1059.142451388566,0.7834541213367691,1514.2664866909088,1662.7464959999998,158.37250835700056,56.28746155940309,748.4781367999873,1053.0422436886777,1048.2928414218554,110.0,744.6133113881608,918.2671456536708,0.8108896358892443,882.6483554042553,715.6124159999999,95.02350501420032,77.06457145518279,476.3663006450354,673.8781254122132,672.073934637977,188.0,476.5037921722547,583.3710421363087,0.816810842079673,901.8363631304346,715.6124159999999,95.02350501420032,76.11955807695168,516.0513521221158,755.1523024305435,753.0862535182048,184.0,533.9733138772718,624.5432299589758,0.8549821505748239,893.2707798709677,715.6124159999999,71.26762876065024,76.69838965366125,480.11436261055906,662.2847313713721,660.4929743146025,186.0,468.3060246290082,592.759931184602,0.7900433210678078,base
1783333692431094395,1783333702431094395,1458.4188488495572,1599.604224,41.92213456508838,58.43188984264105,768.2396328675608,1033.7199443020988,1029.2045837625437,113.0,730.9503824637944,955.6359328766292,0.7648837358632042,1493.6017431272726,1578.5567999999998,71.26762876065024,58.627628068975824,806.2848253759106,1162.7386915396098,1157.3958953133779,110.0,822.1804135356314,980.918000172346,0.838174458406488,890.8179995675675,715.6124159999999,36.54750192853859,77.09303955460129,518.4522742277228,711.5083748794046,709.5918035424914,185.0,503.1123967482472,641.1119086578512,0.7847497292656723,904.2341392786885,715.6124159999999,43.19250227918197,76.36190356899168,527.7761673682128,763.2134152206485,761.123943173655,183.0,539.6733813950648,641.4605883377153,0.8413196246297493,879.4410136216217,715.6124159999999,64.78875341877296,76.89761867747374,414.3054490645749,585.0309551313825,583.4401525517787,185.0,413.67935557744335,507.6738181487338,0.8148526490610694,base
1783333693431094395,1783333703431094395,1469.2219514336282,1599.604224,158.37250835700056,58.721537662825405,762.4316428656164,1024.7143242824004,1020.1799220512954,113.0,724.5824474790762,948.7329226332042,0.7637370119590672,1553.9686878504665,1641.6990719999997,35.63381438032512,58.29743978911005,879.8619622598721,1298.4054646336308,1292.2669464820033,107.0,918.1113087721103,1061.5318919448284,0.8648928173886912,880.650947047619,715.6124159999999,95.02350501420032,77.46842342517974,499.82797244843397,684.1264079289643,682.3046437752394,189.0,483.75042223536497,618.5861044166592,0.7820260086371528,909.5247485901638,715.6124159999999,95.02350501420032,76.39735054261237,540.4450031919697,784.2960436597292,782.1385531352363,183.0,554.581050929575,656.0347032934008,0.8453532231534217,880.650947047619,715.6124159999999,95.02350501420032,76.64458476108531,404.22398975393827,539.6039736000066,538.1671294743937,189.0,381.55762888777144,503.9850748821385,0.757081207170673,base
1783333694431094395,1783333704431094395,1493.615410285714,1620.6516479999998,25.91550136750918,57.25964509182729,716.2920832575381,1018.0582904312165,1013.4632022579193,112.0,719.8759208070969,875.8070714466257,0.8219571915742042,1530.0897961100914,1599.604224,41.92213456508838,60.108410468291986,890.0104108246146,1297.6032737300998,1291.5821155847393,109.0,917.5440741444173,1078.560846106343,0.8507114619048114,879.3146026666666,715.6124159999999,43.19250227918197,77.34720209159136,491.79486367208204,669.6618789536902,667.8893356118876,189.0,473.5224557102793,609.6003755227983,0.7767752034341884,913.134395076923,715.6124159999999,28.507051504260097,76.3491337390639,546.2998913198549,778.0590122573835,775.9446568770686,182.0,550.170803730503,667.490214065672,0.8242380069955207,874.6866310736841,715.6124159999999,43.19250227918197,77.08075089104493,402.13921583830574,551.3567459507462,549.9077424428202,190.0,389.8680939147212,497.4267106858517,0.7837699213561959,base
1783333695431094395,1783333705431094395,1449.8929819826083,1599.604224,47.51175250710016,58.83276420747934,712.2855605903268,996.4822391624067,992.1119713924038,115.0,704.6193486436929,875.4754287867942,0.8048419469866012,1437.3939045517238,1515.4145279999998,54.82125289280787,63.184071756903265,849.69876713249,1203.359510621459,1198.1304034374052,116.0,850.903670165759,1040.1718424290132,0.8180414384018755,862.7274002474226,715.6124159999999,83.84426913017676,78.06483615009053,446.4832341087427,608.3154628238143,606.7374693413327,194.0,430.14398886335226,553.337718850583,0.7773624934820383,914.585331409836,715.6124159999999,83.84426913017676,75.86707332941045,534.8190511087901,751.0889265111854,749.0226531973831,183.0,531.1000732101836,656.5281341845771,0.8089524965595298,895.0220088128341,715.6124159999999,83.84426913017676,75.55221392534288,403.1002891665828,541.0634245529857,539.6069927737722,187.0,382.5896165534321,501.7890781046497,0.7624510640975765,base
1783333696431094395,1783333706431094395,1511.938806605504,1641.6990719999997,30.326650536446913,55.647966650445625,721.8928574500261,984.5212222926475,979.9554441553842,109.0,696.1616325051993,894.3925793456559,0.7783624871021585,1479.3874058378378,1557.5093759999997,33.93696607650011,62.47529951490487,917.8370129597603,1241.8196460928536,1236.1650264128205,111.0,878.0990927629354,1139.8774304118162,0.7703451874169442,884.214532063492,715.6124159999999,83.84426913017676,76.97468947574067,462.1773623519367,635.5288115515675,633.8363216983581,189.0,449.38673228754084,571.1756393292259,0.7867750326594621,933.6119919553072,715.6124159999999,83.84426913017676,75.22334640674258,558.2932994855761,788.386452387323,786.1687645838282,179.0,557.4734066786812,684.1012475679423,0.8148989768116378,909.3859826086956,715.6124159999999,64.78875341877296,74.40559615273702,398.49770863912624,549.3006203352602,547.7989504275489,184.0,388.4141935490397,492.10573529079346,0.7892901173352903,base
1783333697431094395,1783333707431094395,1435.9423580689656,1599.604224,32.39437670938648,59.845727902710465,732.325628373896,959.867558755425,955.7759545620831,116.0,678.7288598369378,917.7500854582737,0.739557392139079,1422.9497764102557,1515.4145279999998,40.72435929180014,64.86196857922617,865.9085785718944,1197.1758558569618,1192.0389686340957,117.0,846.5311659492666,1068.310734490244,0.7924016286826867,891.007616,715.6124159999999,83.84426913017676,76.69119582272714,469.1960133138027,647.1496962831609,645.3982730547808,186.0,457.60393868463774,579.3005398489504,0.7899249305100865,973.0762537674417,715.6124159999999,37.50927829507907,74.05656796961676,633.9505261832403,899.8831039877964,897.261516367311,172.0,636.3134451049699,775.4605980224505,0.8205619301969329,931.9988537528088,715.6124159999999,67.87393215300023,73.55227458327589,433.964192499957,599.1034606481301,597.4094382509442,178.0,423.6301196566207,535.6478335661762,0.7908743265817458,base
1783333698431094395,1783333708431094395,1436.6216073846151,1557.5093759999997,79.18625417850028,58.716240812887925,725.6923969032966,933.2788093641105,929.272927472935,117.0,659.9277748390697,914.0604880665617,0.7219738556197322,1421.3416937739128,1515.4145279999998,101.81089822950034,66.48620458816028,947.4963781710742,1335.936122489121,1330.1163325976493,115.0,944.6494914441197,1161.601240724109,0.8132304428800818,920.737586917127,715.6124159999999,95.02350501420032,75.43354846061854,505.8594838560881,692.1109635066974,690.185795048521,181.0,489.3963556291409,626.1255771510644,0.7816265194850281,984.5242096941175,715.6124159999999,44.542267975406396,73.36917433205227,636.742095648955,900.6095316258109,897.9488260495385,170.0,636.8271070138513,779.8119072116239,0.8166419377859415,961.8914692413791,715.6124159999999,83.84426913017676,72.28582651874396,466.713080053664,644.622888312783,642.7571623275951,174.0,455.81721563402726,575.9839677909247,0.7913713594880535,base
1783333699431094395,1783333709431094395,1455.7496564869564,1599.604224,33.93696607650011,57.29756190689749,714.2640803969065,948.4553167480921,944.2865509912542,115.0,670.6591861250107,891.8825489511196,0.7519590857716926,1453.187361391304,1515.4145279999998,18.754639147539535,65.37847984608686,971.088584717845,1385.3389522411112,1379.3326071823108,115.0,979.5825673715565,1185.8478298624532,0.8260609352257098,913.665225442623,715.6124159999999,83.84426913017676,75.42745374056818,494.91643285489823,678.4105620383068,676.5752248259026,183.0,479.7087088458638,612.2289835905772,0.7835445914900769,985.1190759763311,715.6124159999999,83.84426913017676,73.98778760298052,667.3871607370647,951.4626734386665,948.6307168534997,169.0,672.7857084343626,815.163136983388,0.8253387302621281,966.4782442543353,715.6124159999999,83.84426913017676,72.28960832089848,475.3255235257551,654.7427848533341,652.8726524885229,173.0,462.9730631027573,587.1087446552738,0.7885644138627098,base
1783333700431094395,1783333710431094395,1472.2021176637165,1599.604224,29.694845316937606,58.16042583531091,754.1798776954596,1049.1503086495513,1044.4561679012293,113.0,741.861297730057,928.6525094493712,0.7988577968415022,1443.3042231652173,1473.3196799999998,30.9859255481088,66.96320669963157,1002.9379542547232,1456.5662591229502,1450.1649143562984,115.0,1029.9478790733601,1217.1165775575657,0.8462195800012813,886.4548044255318,715.6124159999999,83.84426913017676,75.97910545045916,399.374747783614,529.771809677027,528.3534087122356,188.0,374.60523910409484,498.83447730918977,0.7509610023845753,941.545216,715.6124159999999,83.84426913017676,74.77284363995503,562.413667194847,785.2563124463929,783.0222928059045,177.0,555.2600635003868,691.7090407359769,0.8027364553593102,946.8949047272727,715.6124159999999,95.02350501420032,73.1068747967186,460.99412458741637,637.61766765142,635.7934749133962,176.0,450.86377660066944,568.6757364992176,0.7928310417747,base
1783333701431094395,1783333711431094395,1449.1608976695652,1557.5093759999997,178.16907190162559,58.83609178925234,736.6558493040255,1000.8337673781297,996.5281364142294,115.0,707.6963437535551,913.7322491554052,0.774511728580997,1490.2327885714283,1473.3196799999998,20.96106728254419,65.61742677640453,1030.6825155426714,1455.9970272466942,1449.4844170720196,112.0,1029.545371353592,1262.7870207809926,0.8152961302348923,907.0982191304347,715.6124159999999,43.19250227918197,74.60326987557386,407.9296213415253,534.8238260479585,533.3617970885534,184.0,378.177554138646,511.17904955948285,0.7398142675537013,959.230300689655,715.6124159999999,83.84426913017676,73.39939699873662,553.6170025908016,769.994080049863,767.7654383855765,174.0,544.4680354767554,681.7337092203146,0.7986520662143182,947.0151679999998,715.6124159999999,43.19250227918197,73.2496787093305,498.90355236747297,685.6204320501188,683.6805821823875,177.0,484.8068568226895,616.6771156112571,0.7861599604553894,base
1783333702431094395,1783333712431094395,1494.556720432432,1599.604224,27.410626446403935,56.11018301291592,738.8242470418346,1013.3629225375036,1008.7604379624433,111.0,716.5557943292869,913.7813922598938,0.7841654474459764,1495.4946445714284,1494.367104,129.5775068375459,63.56104180265423,1015.1780518641184,1432.339991131309,1425.900089827854,112.0,1012.817320693628,1244.2963840760542,0.8139679047976099,891.1952044491978,715.6124159999999,89.08453595081279,75.15436745291329,380.2156710773216,524.661101911179,523.2488707641317,187.0,370.991422986201,469.37255469498086,0.7903986274342089,963.3150475838149,715.6124159999999,89.08453595081279,73.08951626822709,546.9287859023196,765.9433042633217,763.713518354985,173.0,541.6037044490258,672.008115546767,0.8059481603259507,935.0229924469272,715.6124159999999,89.08453595081279,73.66257820217784,485.870731655158,692.563987178772,690.615883199022,179.0,489.7166917397028,593.4892725854424,0.825148346163578,base
1783333703431094395,1783333713431094395,1435.5794714482756,1536.4619519999997,29.088828065571533,59.7405154050678,743.4889517978814,1014.4095518336051,1010.1009415720782,116.0,717.2958730019487,921.0292927905231,0.7787981105668145,1484.5950857142852,1536.4619519999997,32.39437670938648,62.41116068695798,920.5710466405993,1338.901677266857,1332.857806777295,112.0,946.7464553374369,1116.574081052814,0.8479029483155769,885.3281523809524,715.6124159999999,95.02350501420032,75.29985064194722,368.15151137362227,499.08914898321734,497.78902134937556,189.0,352.90932166265605,456.9448281742191,0.7723237027821278,952.0651907657143,715.6124159999999,95.02350501420032,73.48913706152106,535.9447945872606,759.1926255107854,757.0080486296365,175.0,536.8302537254955,656.0337529676899,0.8182966978406898,942.5897498181816,715.6124159999999,95.02350501420032,73.3214835384821,493.6412190133418,710.4779659391305,708.4451615045815,176.0,502.38378759918413,600.973020356742,0.835950650997553,base
1783333704431094395,1783333714431094395,1372.4312013223134,1389.1299839999997,57.014103008520195,62.46107948088187,750.2155285511635,1003.5411659333911,999.3648490852361,121.0,709.6107636313551,934.8117246953345,0.7590948475348072,1534.513116444444,1557.5093759999997,18.754639147539535,60.772000164024455,960.2273400725551,1428.327324221737,1421.7574697002185,108.0,1009.9799367112267,1155.00794497961,0.8744354886052809,882.0452254335258,715.6124159999999,89.08453595081279,75.38556945852012,365.02695827512025,501.6695887932858,500.209180969552,173.0,354.7339681507992,451.1887259841126,0.786220815639995,953.7113999999999,715.6124159999999,89.08453595081279,73.2768800503369,538.6644280343678,780.803378550965,778.3556757367863,160.0,552.1113637467543,654.1446728897475,0.8440202704819849,953.7113999999998,715.6124159999999,89.08453595081279,73.00768035100789,511.9328222425393,743.0981263064186,740.7577012638126,160.0,525.4497241982862,621.3708414854975,0.8456298382816051,base
