window_start_ns,window_end_ns,red_Mean_NN,red_Median_NN,red_Heart_Rate,red_Mean_HR,red_SDNN,red_SDSD,red_RMSSD,red_NN_Count,red_SD1,red_SD2,red_SD1_SD2,infrared_Mean_NN,infrared_Median_NN,infrared_Heart_Rate,infrared_Mean_HR,infrared_SDNN,infrared_SDSD,infrared_RMSSD,infrared_NN_Count,infrared_SD1,infrared_SD2,infrared_SD1_SD2,ppg0_Mean_NN,ppg0_Median_NN,ppg0_Heart_Rate,ppg0_Mean_HR,ppg0_SDNN,ppg0_SDSD,ppg0_RMSSD,ppg0_NN_Count,ppg0_SD1,ppg0_SD2,ppg0_SD1_SD2,ppg1_Mean_NN,ppg1_Median_NN,ppg1_Heart_Rate,ppg1_Mean_HR,ppg1_SDNN,ppg1_SDSD,ppg1_RMSSD,ppg1_NN_Count,ppg1_SD1,ppg1_SD2,ppg1_SD1_SD2,ppg2_Mean_NN,ppg2_Median_NN,ppg2_Heart_Rate,ppg2_Mean_HR,ppg2_SDNN,ppg2_SDSD,ppg2_RMSSD,ppg2_NN_Count,ppg2_SD1,ppg2_SD2,ppg2_SD1_SD2,label
1783776157865269144,1783776167865269144,1932.1210046511628,1682.6572800000001,33.17012570044691,42.902026566759716,957.9329075338106,1376.6939325359294,1368.5725788908514,86.0,973.469615314531,1166.8116234860063,0.8342988668609247,2003.4771770602408,1724.723712,39.61987236442269,40.30955947880565,941.5446322558727,1445.6306907921014,1436.7921269518542,83.0,1022.215264550488,1118.280182029388,0.9140958419699728,986.4453847100593,715.1293440000001,37.53461592418993,70.43453971330658,489.1536175669176,699.8174668547958,697.7513818836713,169.0,494.84567640581815,596.7465135456082,0.829239325531473,1014.6933294545455,715.1293440000001,43.22167894300657,68.0530626233718,449.47769968668666,646.6099558412748,644.6486336512714,165.0,457.2222845580994,547.2972650059626,0.8354185445328658,1029.0695680000001,715.1293440000001,43.22167894300657,68.70526747428119,536.2621130328098,738.4965889871496,736.2129484114585,162.0,522.1959459559481,662.4272071423504,0.7883069118019065,base
1783776158865269144,1783776168865269144,1946.4385536,1724.723712,21.288289628645032,40.23115241815466,891.735321093293,1293.6468966281077,1286.2403469959127,85.0,914.7464930666675,1082.5909626825053,0.8449604001866566,2063.3584896,1766.790144,22.286178204987767,40.24855330366864,1019.3955738426138,1562.66110191969,1552.827084243364,80.0,1104.9682618638556,1211.5515845710443,0.9120274166907015,962.1784475375723,715.1293440000001,83.90090618348336,70.55994877158004,414.44537465944785,559.2232079910931,557.6501110807094,173.0,395.430522567397,515.1187125937649,0.7676493066545673,1038.432362264151,757.1957760000001,44.572356409975534,66.98594661080722,477.7157380507903,679.2702309140151,677.1274887820662,159.0,480.3165865374521,584.0142473530315,0.8224398440867231,1028.8098986666666,715.1293440000001,83.90090618348336,68.71023827754455,532.5592328624535,744.4092788270938,742.094031767003,162.0,526.3768490368254,654.753678426568,0.8039311062776408,base
1783776159865269144,1783776169865269144,1888.6871912727272,1682.6572800000001,40.75186871769192,41.653804587787725,831.3338523269449,1156.3100704790884,1150.1017581387684,88.0,817.6346919900581,1023.7034254493236,0.7987027020361703,2052.9457493333334,1766.790144,35.65788512798043,41.336854613345444,1024.6958827766043,1548.8536341788522,1539.5107240829632,81.0,1095.2049077932945,1224.853627716957,0.89415166270494,950.9931534797689,715.1293440000001,38.54906500322208,71.00629817311298,401.79129649058814,546.0367480480188,544.4690905693049,173.0,386.1062873218044,498.33067266270245,0.774799362155944,1048.9983675949368,799.2622080000001,44.572356409975534,66.3457306521275,476.34595905028465,664.8109868982826,662.7009888509428,158.0,470.0923570430967,585.9330450929558,0.8022970559179138,1048.9983675949368,757.1957760000001,29.108477655494227,67.04367843431906,505.45953120516765,674.1822584722655,672.0322320940437,158.0,476.71884672140067,630.3556503773125,0.7562696494210065,base
1783776160865269144,1783776170865269144,1894.4235229090912,1682.6572800000001,37.53461592418993,42.55917613502422,899.5704361668494,1306.9422852332086,1299.410853314475,88.0,924.1477525078449,1091.526181554149,0.8466565146353288,2062.8326592,1766.790144,21.943313924911035,40.54025745527046,983.9635713010122,1508.3745239068758,1498.8474831358756,80.0,1066.5818544235822,1169.4315684135008,0.9120515327549702,961.9352889710982,715.1293440000001,83.90090618348336,70.70706957522947,418.23533490081047,587.363888006968,585.6541501094856,173.0,415.3289882338229,513.4126084208691,0.808957515693416,1027.2518826666667,757.1957760000001,83.90090618348336,67.11516914357846,455.40986969529376,611.2128724545114,609.3119632469511,162.0,432.19276686109333,566.9223976597195,0.7623490774843329,1020.9497238773006,757.1957760000001,43.22167894300657,67.39170056462939,435.69201422901335,580.944122538163,579.1671702890209,163.0,410.7895285372037,543.3976850778447,0.755964811440733,base
1783776161865269144,1783776171865269144,1825.9605098901102,1682.6572800000001,41.95045309174168,46.199057760082994,854.798409518917,1219.3608388457758,1212.619576989043,91.0,862.218317861165,1043.8632228431422,0.825987829624617,2051.9070719999995,1766.790144,39.61987236442269,41.20741995137246,1009.1779997424857,1514.707220720327,1505.2128262761576,81.0,1071.0597472835718,1209.6677143756935,0.8854164945919409,953.7475531034482,715.1293440000001,79.23974472884538,71.36233265152089,421.30003469131873,593.6272591609279,591.9098860579201,174.0,419.7578604498762,516.6131122581809,0.81251878918648,1010.6203785365853,715.1293440000001,83.90090618348336,68.15525989389324,453.834300651235,599.1721180918665,597.3313391853259,164.0,423.67866780066566,567.6084373232288,0.7464277130880609,1022.8375040000002,841.3286400000001,95.08769367461446,66.95858994996571,420.0491312454777,573.1020081573752,571.3194756906402,162.0,405.2443162797081,520.3566732364035,0.7787818185539082,base
1783776162865269144,1783776172865269144,1863.6847345617978,1682.6572800000001,15.84794894576908,44.95628667312104,877.3513521277898,1218.9974022896201,1212.2871336261155,89.0,861.9613294077762,1080.7414692995321,0.7975647774175305,2152.490156883117,1808.8565760000001,43.22167894300657,38.46276359549399,1055.7797297979134,1595.8944600335512,1585.3682146270462,77.0,1128.4677947477678,1261.9912415753388,0.8941962175102783,957.1322085517241,715.1293440000001,83.90090618348336,72.0905752587429,438.153157191085,613.0588977884815,611.284531726341,174.0,433.49810389298585,538.5128366841633,0.8049912172237254,1028.0308906666667,715.1293440000001,83.90090618348336,67.9754734740003,488.6202613991431,640.8316790967928,638.838472088365,162.0,453.13642588850365,612.2362366489182,0.7401332994739921,1056.2157639745224,925.461504,89.14471281995107,65.38733421383382,438.4000293434082,580.2984234879808,578.4355023932237,157.0,410.33295036021417,547.9074797636399,0.7489091963796998,base
1783776163865269144,1783776173865269144,1963.1001600000004,1724.723712,34.78818061266384,43.55488282170753,1045.7005484813867,1493.5994977756736,1484.6688548234197,84.0,1056.1343332540005,1276.4283799922382,0.8274137035878367,2382.5451631304345,1850.923008,37.53461592418993,35.07544009520193,1358.1731857860175,2051.3953137297817,2036.2895810503173,69.0,1450.555537232634,1623.9498520207305,0.8932268046501949,985.2008157159765,715.1293440000001,18.52357668985996,71.10121419257676,477.88391175685666,647.0489055657866,645.3070585907369,169.0,457.5326688849018,593.3616053332064,0.7710857338468523,1049.2493484840766,715.1293440000001,34.78818061266384,66.9422725437246,496.6699719824827,661.2940547288023,659.1755825187469,157.0,467.605510457084,619.7053053131345,0.7545610896792385,1099.2989448476822,925.461504,54.85828481227758,63.04648489353943,457.18233608236767,639.7885641282144,637.654589423487,151.0,452.3988322206647,561.8710040161811,0.8051649381921766,base
1783776164865269144,1783776174865269144,1836.5926850109888,1682.6572800000001,52.82649648589693,45.928847912458686,900.9425525822393,1278.5153967417175,1271.407212678705,91.0,904.0469068874776,1102.1545087601803,0.8202542381325871,2213.035402378379,1829.889792,29.71490427331702,37.692399314186495,1210.7378051302392,1814.5136543972696,1802.0426223942986,74.0,1283.0549095798929,1452.1215909987168,0.8835726412534463,1000.5261551137727,715.1293440000001,83.90090618348336,70.33269119839214,490.79453508545595,677.7852028189185,675.836811471222,167.0,479.2665131011567,605.7312572828209,0.7912197155732764,1050.867093735849,715.1293440000001,83.90090618348336,67.40012884788317,545.3351217143011,751.7353891606552,749.352750942806,159.0,531.5571913334076,673.4272537707193,0.7893312727648917,1077.9862445419353,925.461504,83.90090618348336,64.05768506553011,442.6823687704884,640.1980953340333,638.1311118053325,155.0,452.68841451340677,538.0259835018848,0.8413876437100012,base
1783776165865269144,1783776175865269144,1936.5233056744185,1724.723712,22.639927065384395,43.837981144842466,952.9792802624734,1352.9800711467078,1345.0273181822292,86.0,956.7013831180947,1165.6329821127772,0.8207569602088799,2196.864060631579,1892.98944,22.286178204987767,36.957230032460174,1157.8304034058553,1714.3793438194562,1703.1520298220996,76.0,1212.2492595408812,1395.1230599747191,0.8689192332344132,973.9240016842105,715.1293440000001,38.54906500322208,70.87554853099563,438.9262060287489,616.9203135724922,615.1081431442565,171.0,436.2285371788405,538.6694351390172,0.8098260430652813,1051.3945567594938,715.1293440000001,62.01371326605292,67.17764616301491,538.2840317304986,754.0610414691988,751.6679622627724,158.0,533.2016758514609,661.3224509017349,0.8062658013869375,1115.04089088,925.461504,21.610839471503287,63.576072486862735,528.2667919587075,754.8076138126203,752.2704381840879,150.0,533.7295822181405,644.7464412505999,0.8278131495892828,base
1783776166865269144,1783776176865269144,1936.5405696,1724.723712,57.05261620476868,44.00359475333352,1001.0751746990804,1401.507322245418,1393.1458001610479,85.0,991.015331442335,1230.141177759979,0.8056110545351556,2246.0063896216216,1892.98944,34.78818061266384,35.980859598218046,1208.332826689435,1785.7402930964565,1773.473010220867,74.0,1262.7090706865574,1457.0241389604723,0.866635656144619,1019.5979707317074,715.1293440000001,64.83251841450988,69.1359748993344,498.62721528019864,706.8002839114504,704.6305507411897,164.0,499.78327369836364,610.2184357276043,0.8190235568717923,1070.536763076923,799.2622080000001,83.90090618348336,66.01935017752515,537.4888738873528,746.914542525442,744.5072274979108,156.0,528.148337986588,662.0560743973216,0.7977395849246884,1107.3779284768214,925.461504,64.83251841450988,63.615667795834,504.9735907499016,733.8537419879189,731.431913510299,151.0,518.9129573587804,612.6673861503324,0.8469733644863102,base
1783776167865269144,1783776177865269144,1992.3270384578313,1724.723712,31.00685663302646,42.86529733977632,1055.6869217191675,1576.7621418205822,1567.1183301722408,83.0,1114.9392027995584,1267.834784350124,0.8794041751828587,2329.0583689014093,1935.0558720000001,33.9598905980766,34.30854158708804,1264.3592706670124,1880.3085533105452,1866.8411689023094,71.0,1329.5789287689533,1520.9597847182024,0.8741709952674999,1009.5943680000001,715.1293440000001,83.90090618348336,69.61456143869985,489.6940956508194,694.21538027435,692.095633706779,165.0,490.8844029959907,599.2636031649032,0.8191460325697619,1051.6608,757.1957760000001,83.90090618348336,66.98612060940236,531.4500524009969,736.9301952104094,734.6052916682773,159.0,521.0883382944066,655.0662472153728,0.7954742600607281,1077.0645543896103,925.461504,79.23974472884538,64.98361660795405,484.8217960628893,716.7310356522472,714.3849904963905,154.0,506.8053755965612,584.5327223590702,0.8670265259935914,base
1783776168865269144,1783776178865269144,2054.4193728,1724.723712,27.96696872782779,41.62666844312982,1082.4550568467073,1590.9700133954884,1580.8688730723302,80.0,1124.9856851364023,1307.9072995839983,0.8601417588954681,2306.058432,1892.98944,36.57218987485172,34.69251828965163,1249.216049705498,1848.5935379210725,1835.5352288071954,72.0,1307.1530263216216,1505.5752922297615,0.8682083407371305,1018.6270374478529,715.1293440000001,20.088949367876296,70.08171009662846,530.3910301142616,728.476196313476,726.3596916523119,163.0,515.1104583462416,655.713273849552,0.7855727173588214,1041.9329376,757.1957760000001,29.108477655494227,66.99763894914307,504.31680447757,697.610122626305,695.467724293544,160.0,493.2848483334393,622.0979888725433,0.7929375390321419,1097.048266105263,925.461504,41.95045309174168,63.927923774773404,497.4900740525601,728.0538558762729,725.6545315795711,152.0,514.811818559126,602.0607471821811,0.8550828483148828,base
1783776169865269144,1783776179865269144,2162.3238682597403,1724.723712,20.97522654587084,36.4387089742359,1043.7772211037495,1564.9826619342448,1554.669282436693,77.0,1106.6098526930787,1251.6585363234785,0.8841148129293679,2317.1592960000003,1871.956224,19.809936182211345,35.84895493791432,1290.171945428381,1859.5188948892712,1846.4807728945218,72.0,1314.8784203207185,1569.9154969068725,0.8375472583787847,1000.5261551137727,715.1293440000001,83.90090618348336,70.40023924994382,492.767108025484,694.2255214003982,692.1313219942878,167.0,490.8915738549882,604.2777315628008,0.8123608536515652,1037.8128441242238,757.1957760000001,83.90090618348336,67.68775064823744,517.7072307423553,735.8166495732977,733.513618416925,161.0,520.3009426232444,632.996854714554,0.8219644991093531,1064.2539356942675,925.461504,83.90090618348336,65.8615698383064,485.75217503663845,740.5634728160668,738.1860558532164,157.0,523.6574535273003,578.620589668482,0.9050100581925842,base
1783776170865269144,1783776180865269144,2091.0744109367092,1724.723712,37.53461592418993,38.29629839488796,1114.5447404798367,1674.6681224229349,1663.8992274205548,79.0,1184.1691856022005,1335.3994260136717,0.8867528040932954,2397.786624,1808.8565760000001,33.17012570044691,35.824039633991255,1417.2447668246218,2091.9193691445657,2076.569193138699,69.0,1479.210371617607,1709.7174609955305,0.8651782562694866,989.6812640946746,715.1293440000001,83.90090618348336,70.875838493327,484.8093843813679,671.6654974572157,669.6976351880535,169.0,474.939227941033,597.7429575075474,0.7945542845396655,1051.925368754717,757.1957760000001,83.90090618348336,67.46603420548193,545.1507683523819,742.0498850238196,739.7026899880748,159.0,524.7085056790407,675.8100417309724,0.7764141893113768,1100.3693002105265,925.461504,83.90090618348336,64.92831362633521,548.3745757653033,839.0071402590079,836.2289964942227,152.0,593.2676383410773,652.2622979600716,0.9095537795094119,base
1783776171865269144,1783776181865269144,2013.106842216868,1724.723712,31.69589789153816,41.236243995954354,977.9578263813244,1400.7083958042613,1392.150743722766,83.0,990.4504051381238,1192.6051391142973,0.8304931554074082,2344.4629778028175,1808.8565760000001,22.639927065384395,34.53391569447497,1260.6893840998425,1836.1574887570773,1823.305497940502,71.0,1298.3594116265913,1528.3346706413508,0.8495255892361241,995.8226194285717,715.1293440000001,50.9398358971149,69.71512226471597,477.02810601020974,669.8263051918185,667.8235742192378,168.0,473.63872261826475,585.6148974075412,0.8087887188577616,1054.3232324050634,736.1625600000001,64.83251841450988,67.88947470419969,562.3734208642906,740.3478349079577,737.9880238377915,158.0,523.5049745001954,703.9168983807562,0.7437028088179608,1103.1991438410598,883.395072,16.026015787856373,65.53928569524048,591.6913890789889,846.3608097219958,843.6810713859601,151.0,598.4674678849605,721.8834703483166,0.8290361152004124,base
1783776172865269144,1783776182865269144,2074.400928,1724.723712,36.57218987485172,40.923214717405635,1139.5954424247175,1706.8066701157595,1695.9700271751947,80.0,1206.894570613284,1367.135067395487,0.8827910273068518,2371.344866742858,1808.8565760000001,32.41625920725494,34.57877014280714,1315.1955630887026,1933.7979451545634,1919.733870251132,70.0,1367.401640463403,1588.8943058509008,0.8605994970389917,985.2008157159765,715.1293440000001,83.90090618348336,70.12500486266194,465.6259583663172,651.2347367309728,649.2938383959091,169.0,460.4924984867069,572.3533835209134,0.804559755817152,1047.1631311698115,757.1957760000001,83.90090618348336,67.94164851750712,549.1646706298394,731.7915522544631,729.4722746742851,159.0,517.4547690141607,685.0430292676591,0.7553609728243529,1092.9024,757.1957760000001,83.90090618348336,66.15804257604988,592.054416482028,882.7647129080545,879.8560898017329,153.0,624.2089146894812,711.5043777538122,0.8773086072359542,base
1783776173865269144,1783776183865269144,2002.9703525783132,1724.723712,129.66503682901975,42.39628982511938,974.5469599864653,1396.7565171155425,1388.293298814921,83.0,987.6560049189042,1188.1714364566828,0.8312403198853628,2303.1371520000002,1829.889792,37.53461592418993,34.84383600057069,1138.341782588079,1612.894408059914,1602.1453873337032,72.0,1140.4885732770276,1393.3007338991379,0.8185516202847192,985.2008157159763,715.1293440000001,52.82649648589693,70.09571325636762,466.3041149729413,657.8745152657366,655.9194161494481,169.0,465.18753091421524,571.5586897444252,0.8138928499577632,1029.9743785341618,715.1293440000001,41.95045309174168,68.65356608736477,538.1401973325353,732.8703410630064,730.5902034704798,161.0,518.2175878961497,667.0194972920569,0.7769152026289963,1096.771513263158,757.1957760000001,36.57218987485172,66.16227523687012,599.9524562571997,878.7210404648723,875.8208903690803,152.0,621.3496064840099,725.8431185863632,0.8560384338893194,base
1783776174865269144,1783776184865269144,1982.1905488192776,1724.723712,35.65788512798043,42.77452284523254,1067.4939749779576,1575.7899340509884,1566.1540852001228,83.0,1114.2517480929564,1287.7531961382879,0.8652680897507168,2283.1123778630135,1850.923008,29.108477655494227,32.956088865201174,1065.4582955835147,1530.851449179272,1520.1905503981723,73.0,1082.4754407039168,1297.8929922732023,0.8340251832379562,953.264030896552,715.1293440000001,36.57218987485172,71.02381601008169,402.6622168275506,572.9866881429031,571.3334316201866,174.0,405.1627727154683,492.1334021621695,0.8232783447240138,1015.2374259512195,715.1293440000001,83.90090618348336,68.51955575704382,473.4005898346587,620.4314099290209,618.5374321258827,164.0,438.71125722194137,593.2810913091512,0.7394661040921908,1069.997449846154,757.1957760000001,64.83251841450988,66.85680427147616,562.9459801720408,816.2823761762719,813.6453537851316,156.0,577.1988035573102,683.5474553896929,0.8444165785508586,base
1783776175865269144,1783776185865269144,1914.7650047999998,1724.723712,33.17012570044691,44.27865573496625,1000.1312220594864,1473.4310990024285,1464.7220846879109,85.0,1041.8731217157645,1207.383585195495,0.862918077147014,2255.2281600000006,1829.889792,36.57218987485172,34.15856168501445,1060.371123221058,1540.803308389547,1529.914102624637,72.0,1089.512467836916,1286.567187960323,0.8468368212966705,947.3360486400001,715.1293440000001,83.90090618348336,71.63679570729468,409.413154294629,571.6992024955418,570.0640695111477,175.0,404.2523828835388,503.5159056926065,0.8028592112248635,991.0651062857144,715.1293440000001,83.90090618348336,69.341827122196,446.3944482110561,578.030442755714,576.3080039506996,168.0,408.7292458048278,561.2541390486264,0.7282427288601537,1055.9478249171977,757.1957760000001,83.90090618348336,67.18277067724561,539.0117803487298,759.776746308765,757.3380813969784,157.0,537.2432895027789,660.8723194774701,0.8129305369115163,base
1783776176865269144,1783776186865269144,1995.3679853493975,1766.790144,12.734958974278724,41.82586930693018,1037.3052297453894,1530.3795620316075,1521.4432068248132,83.0,1082.1417661018484,1251.5945343214219,0.8646104919981566,2153.137111578948,1766.790144,36.57218987485172,35.20602921493511,1018.6612826832237,1445.8065302414595,1436.1359131206932,76.0,1022.3396018175292,1246.0948948428643,0.8204347887537481,941.14729220339,715.1293440000001,36.57218987485172,71.3787875579231,364.93180562854496,516.3631022950708,514.9234174945193,177.0,365.1238511873675,446.86992756916726,0.8170696407644326,968.5062251162792,715.1293440000001,64.83251841450988,70.94761416141813,441.4064188031298,580.8662190864989,579.1671702890209,172.0,410.7344424782541,552.5648034414126,0.7433235702313485,1067.840196923077,757.1957760000001,83.90090618348336,66.54852409490945,540.9646612048365,779.3630244311001,776.8506183081615,156.0,551.0928795812878,658.3569308379226,0.8370731039162682,base
1783776177865269144,1783776187865269144,1929.6752818604652,1766.790144,37.53461592418993,41.24584754443141,851.0173317229688,1228.6146334981631,1221.3677105921101,86.0,868.7617388115759,1034.9335816245923,0.8394371911749474,2103.3215999999998,1766.790144,38.54906500322208,37.136490554743176,997.4542434521246,1380.2991542094098,1372.2812174824037,79.0,976.0188920075299,1230.2534278690296,0.7933478337858653,950.3628976551724,715.1293440000001,89.14471281995107,70.82323172355702,377.90869962344834,535.2932975905553,533.7440203583615,174.0,378.5095206499903,462.59619744527595,0.8182287765017071,984.3044297142859,715.1293440000001,89.14471281995107,70.01181007171492,449.83353219480495,591.4316518604168,589.6582934199665,168.0,418.2053316388621,563.251776444712,0.7424838218506933,1066.8589947870971,715.1293440000001,89.14471281995107,67.35540870367352,573.8675270024556,825.879238722094,823.1934907881232,155.0,583.9848101415761,698.6621127968668,0.8358615694842569,base
1783776178865269144,1783776188865269144,1919.0996391724143,1766.790144,34.78818061266384,41.24328921909631,838.2227425693916,1218.592209639493,1211.4891238157559,87.0,861.6748149371845,1016.8544581072501,0.8473924739840217,2060.735829333333,1766.790144,30.347136279132275,37.425040784329546,917.5761592059763,1301.8739367159696,1293.7223233841714,81.0,920.5638889018884,1122.5743089485427,0.820047173326221,955.5089554285715,715.1293440000001,41.95045309174168,70.4624195128561,380.5232436615566,526.4028525914737,524.9060601516217,175.0,372.22302670337365,469.38351816964615,0.7930040410341881,1007.3136578313253,715.1293440000001,41.95045309174168,68.76178988118951,464.737154944193,611.1564825246974,609.3189600445352,166.0,432.15289315933126,581.8790121994911,0.742685135739476,1057.287520203822,715.1293440000001,57.05261620476868,67.4681307304104,563.8192779874809,809.0644813919167,806.4678782474543,157.0,572.0949812094017,687.1230040525172,0.832594714243734,base
1783776179865269144,1783776189865269144,1894.9015505454545,1766.790144,29.108477655494227,41.95695076755735,840.4556492771939,1222.310015245228,1215.2658077826193,88.0,864.303700492133,1019.4218721715273,0.8478371163952285,2029.0561706666665,1808.8565760000001,20.37593435884596,36.5797888979147,838.517893134726,1206.1527360230639,1198.662662444777,81.0,852.8787787886163,1021.0403559900162,0.8353036917543304,955.0547497674419,715.1293440000001,83.90090618348336,70.5353224752753,383.41726168522865,537.2151242296061,535.6501510885657,172.0,379.868457298728,471.02820583393986,0.8064664760917735,996.5920162909091,715.1293440000001,25.933007365803945,69.08443966572375,447.11482963882065,576.9281523641928,575.1747716315881,165.0,407.9498087941464,562.6826979020351,0.7250086244257893,1062.5166534193552,757.1957760000001,50.9398358971149,66.70614627809107,540.2220647751752,754.5042877267799,752.0566113081253,155.0,533.515098285932,664.3497410930356,0.8030636053355795,base
1783776180865269144,1783776190865269144,1892.0333847272732,1745.756928,142.6315405119217,41.962558634602196,852.5913010481368,1215.4061190561142,1208.4009348570346,88.0,859.4219086802027,1041.4033054903118,0.8252536785213785,2002.9703525783132,1808.8565760000001,37.53461592418993,36.59845779188863,783.2205071267642,1141.0759843149403,1134.1109001610375,83.0,806.8625663582088,949.3972430298784,0.849868242489531,976.6300294736842,715.1293440000001,83.90090618348336,69.41911899863176,396.89319155137224,544.3619417949044,542.7653410678334,171.0,384.92202046305357,490.88280687042686,0.7841423962617158,1006.046596626506,715.1293440000001,18.28609493742586,68.63897226812773,461.4753915595086,621.3192285436198,619.5647329680423,166.0,439.33903978478793,573.9422253942411,0.7654760711899282,1070.536763076923,757.1957760000001,83.90090618348336,66.39637148933366,546.5669801831465,764.2665514604197,761.8030357439138,156.0,540.4180611717203,671.8966343365231,0.8043172618439535,base
1783776181865269144,1783776191865269144,1975.1191405714285,1787.82336,39.61987236442269,37.305944975425476,827.7348747174533,1270.2557865076442,1262.5841167708027,84.0,898.2064804810066,983.3120587372036,0.9134500817924556,1921.848968930232,1766.790144,62.01371326605292,39.49057672478093,783.7107344557462,1155.6403344638331,1148.860819257122,86.0,817.1611171120663,945.7953716012837,0.8639935673702521,988.1877813017751,715.1293440000001,83.90090618348336,69.43167950042691,444.41060475749435,622.6197529337114,620.7641542269911,169.0,440.2586494001202,545.9741129907486,0.8063727545404341,1038.59669068323,715.1293440000001,52.82649648589693,66.94195418170894,476.35094115280316,641.8721612786844,639.8645171739292,161.0,453.872157895023,592.3009964690084,0.766286331781938,1074.729488516129,757.1957760000001,43.22167894300657,65.81220469775785,519.4310935449147,742.1457213177241,739.7322833399033,155.0,524.7762721723444,633.9733858491069,0.827757574506838,base
1783776182865269144,1783776192865269144,1944.3496186046514,1787.82336,31.00685663302646,38.44330341000584,812.3070797443954,1234.2823089317314,1227.005234359844,86.0,872.7693905442164,968.9284695323353,0.900757298384956,1878.8097438202246,1766.790144,33.17012570044691,41.30155719940696,713.607704679954,1055.3278567094358,1049.4404077883141,89.0,746.2294838543071,860.2573400270715,0.8674491331057099,991.8162925714288,715.1293440000001,83.90090618348336,69.3649001654441,451.3939400786651,636.8150286729281,634.9055340335557,168.0,450.29622513613316,553.2898273902724,0.813852347982008,1066.665387210191,757.1957760000001,41.95045309174168,65.71442271466739,492.8358070787774,659.2404169098572,657.1245677726679,157.0,466.1533692292068,614.1048637294034,0.7590778004888278,1079.0718298838713,757.1957760000001,41.95045309174168,65.84994465663674,534.077260582252,778.613254175582,776.0813641349127,155.0,550.562711949279,647.2382796525659,0.8506337298912823,base
1783776183865269144,1783776193865269144,1988.7792670843373,1808.8565760000001,39.61987236442269,35.88434966375838,793.2812264135655,1224.144595204448,1216.6583754541318,83.0,865.6009444219264,940.1902524852912,0.9206657292327846,1901.7940420465115,1766.790144,41.95045309174168,40.77731785218711,770.9855718516596,1124.8573761195137,1118.2263577480699,86.0,795.394278521815,934.0832269419262,0.8515239922740484,989.9301778934913,715.1293440000001,83.90090618348336,69.25496571010264,440.6000487315464,617.5188625169424,615.6783166057519,169.0,436.65177519633323,541.224925048198,0.8067843053559439,1067.840196923077,757.1957760000001,83.90090618348336,65.84445379025375,494.8488601737588,648.5879946935894,646.5370495589749,156.0,458.6209692440216,620.1485242386485,0.7395340814638992,1093.4522880000002,757.1957760000001,83.90090618348336,65.36072574989757,553.4762788921757,801.1806321178934,798.5408685097625,153.0,566.5202579258871,672.4577170889276,0.8424622746220474,base
1783776184865269144,1783776194865269144,1986.1365394285715,1808.8565760000001,129.66503682901975,36.97792888389607,815.203485090077,1225.1873951667717,1217.906295644863,84.0,866.3383153467066,976.6485580223473,0.8870522648402696,1919.4032461395352,1703.6904960000002,19.809936182211345,41.40213908877935,828.8398737220068,1196.0765817986749,1189.0745040859672,86.0,845.7538618082692,1008.117689142108,0.8389435786291898,983.8596096000002,715.1293440000001,64.83251841450988,69.67692695519021,441.4619114526923,627.6213883552324,625.7641911346104,170.0,443.7953397237005,539.7222311028999,0.8222661846202319,1047.9568374339624,715.1293440000001,64.83251841450988,66.97039194549963,490.53777977679994,640.9025049251717,638.8725000382957,159.0,453.18650731203354,615.2768657863422,0.7365570404355243,1107.6565141192054,757.1957760000001,36.57218987485172,65.15518628278231,575.1620628809118,847.5601911708517,844.7570797818375,151.0,599.3155586406758,694.2861281492372,0.8632111954163263,base
1783776185865269144,1783776195865269144,2001.44987913253,1766.790144,36.57218987485172,37.25830946888004,873.917651013876,1312.9292857147068,1305.0023188500923,83.0,928.3812011472793,1047.1476945423644,0.8865809531796852,1869.829269573034,1682.6572800000001,35.65788512798043,42.710868895874334,800.0923181413004,1139.9120094788036,1133.5074532535145,89.0,806.039511858446,977.4689702281802,0.8246190277224701,990.6769192899411,715.1293440000001,41.95045309174168,68.99322169285892,436.65877037925713,631.7103778441858,629.843607841862,169.0,446.68669191953995,530.6385428229263,0.8417908912971649,1052.983643773585,757.1957760000001,79.23974472884538,66.66413248405196,495.80733529867535,640.7541711243739,638.7234714266061,159.0,453.0816194756103,623.7053394982485,0.7264353706513085,1138.9414922448982,883.395072,17.18452295324358,64.16733015532486,612.5971799152305,863.3095347689399,860.5644644398502,147.0,610.4520262981209,751.1489675653197,0.8126910275557774,base
1783776186865269144,1783776196865269144,1939.9473175813953,1766.790144,21.610839471503287,37.654929922375786,711.888229079307,1062.3399994595784,1056.1449249158277,86.0,751.1878175435811,855.2357176769453,0.8783400903601327,1917.6490725517242,1766.790144,38.54906500322208,41.9974705958919,812.6543076787649,1170.0101940930824,1163.190490249068,87.0,827.3221423006073,989.2335841484924,0.8363263798941335,971.2396800000001,715.1293440000001,43.22167894300657,69.8716201297043,422.27514901175084,606.9205820819952,605.1354006181507,170.0,429.15765923186547,514.3388520295796,0.834387014588555,1056.7194215696204,715.1293440000001,49.183289831697145,67.24738187648899,548.3632057322869,737.3461837248374,735.0037684769513,158.0,521.3824865938544,682.2642905345299,0.7641943068504577,1120.5481114630875,841.3286400000001,49.183289831697145,64.33661487461181,583.8982363460769,851.407829906952,848.5456186549661,149.0,602.0362500825283,707.5665888164887,0.8508545479649122,base
1783776187865269144,1783776197865269144,1875.3024174545455,1766.790144,24.591644915848573,39.69986579516931,680.328555884489,1017.2575980494391,1011.4361165125916,88.0,719.3097457942977,816.6949447048268,0.880756946590717,1920.870679813954,1766.790144,24.591644915848573,41.606909255802854,812.1073871645224,1166.9259814680274,1160.0684272700935,86.0,825.1412746388097,989.2460538299332,0.8341112622529241,968.9953696744186,715.1293440000001,38.54906500322208,69.93419444719872,416.2847023153186,608.0996049124802,606.3409366531845,172.0,429.99135427047514,504.1226283255179,0.8529499175601867,1054.3401905732485,715.1293440000001,54.85828481227758,67.69212275062243,563.2674648688602,762.5287613265876,760.0815949479182,157.0,539.1892579838085,699.4125720896218,0.7709173090396172,1111.11469056,799.2622080000001,38.54906500322208,64.62627531447164,562.7827877194619,821.3954703872463,818.6559383912144,150.0,580.8143071467358,681.74504223603,0.8519523739281546,base
1783776188865269144,1783776198865269144,1883.5863551999996,1724.723712,23.00508717934221,41.24320269018174,747.3207925194575,1073.8655557504978,1067.4572975945568,85.0,759.3376165538375,910.3185848410374,0.8341449127795577,1932.5217495903612,1766.790144,23.382219756052738,40.143873571137085,780.8892827323225,1123.384901362309,1116.5158669267453,83.0,794.3530816358694,950.8300240422582,0.8354312143603131,979.9004160000001,715.1293440000001,41.95045309174168,69.7851945073381,436.31959893973215,635.8592189532892,633.9764091142753,170.0,449.6203656018525,528.838678857632,0.8502032539924982,1049.7970973164556,715.1293440000001,83.90090618348336,68.03369305593492,570.0110032826846,759.2833572780446,756.8682240828307,158.0,536.8944107733935,711.1239579474246,0.7549941255292197,1097.65343232,757.1957760000001,83.90090618348336,65.33482163745789,560.0572769787567,819.7194684877271,816.9641011336864,150.0,579.6291948383043,677.7487036057458,0.8552273014386779,base
1783776189865269144,1783776199865269144,1970.1112319999997,1745.756928,38.54906500322208,40.92691672545463,975.9384552509172,1341.910107219936,1333.8026814524014,84.0,948.8737365579839,1206.1223208739393,0.7867143490640678,1993.8475119036145,1766.790144,36.57218987485172,40.68282308030722,1007.1533543505733,1470.2240087453106,1461.2317286186085,83.0,1039.6053664470792,1219.9697124873387,0.8521567017655519,1003.2590619759038,715.1293440000001,29.108477655494227,69.40291604069628,520.41788689752,764.0309055895774,761.7217416074924,166.0,540.2514343784891,629.0737220960294,0.858804644674092,1054.8760686878982,715.1293440000001,83.90090618348336,68.0650737540537,584.105417165219,760.6707219746263,758.2287550886692,157.0,537.8754257583252,733.2825443893774,0.7335172913548997,1105.5058329600004,799.2622080000001,64.83251841450988,64.8764963874419,557.033095808999,809.2307152835892,806.5177200702337,150.0,572.2125263214663,675.9128287090854,0.8465774017254938,base
1783776190865269144,1783776200865269144,2025.857804487805,1808.8565760000001,26.91161141734372,39.20573194082473,1015.8819302870461,1431.7580652819518,1422.9002818738647,82.0,1012.4058369793996,1245.6120596688563,0.8127778059956692,2024.8317939512194,1766.790144,25.02307728279328,41.45986440733141,1155.3460473121313,1728.4884501898366,1717.9590432248783,82.0,1222.2259043318595,1386.6257236434117,0.881438937336612,993.2776913454546,715.1293440000001,83.90090618348336,69.64542316846779,496.7078520736045,731.0874908446687,728.8562857885996,165.0,516.9569224169232,599.8459392258642,0.8618161574688428,1037.7262944000001,715.1293440000001,83.90090618348336,68.37337862479117,549.2035413358611,736.6074321382649,734.287402967182,160.0,520.8601103373767,683.813887224711,0.7616986435465803,1102.1405184,757.1957760000001,83.90090618348336,65.06861528154849,556.1343374293363,796.6249651780735,793.947226626231,150.0,563.2989149399131,678.1725213761554,0.8306130036010019,base
1783776191865269144,1783776201865269144,2149.7585703896107,1808.8565760000001,16.9799452990383,37.52135967849944,1181.0105570056778,1651.1801034917996,1640.4702077101279,77.0,1167.5606481393568,1451.885993449873,0.8041682703785015,2103.3216000000007,1766.790144,29.108477655494227,39.74370411601186,1227.9723049101776,1902.4196364627517,1890.0309445236192,78.0,1345.2138256052583,1452.9390369017763,0.9258570328413576,1004.4954065454547,715.1293440000001,79.23974472884538,68.9205794274517,496.84251848973867,731.1107155932254,728.8784917840587,165.0,516.973344794119,600.0618774298556,0.8615333922034578,1012.6912832392638,715.1293440000001,40.75186871769192,68.9732445776282,513.6044691604952,677.0925079178413,674.9995311941507,163.0,478.7767038393117,642.623945565095,0.7450340236206056,1078.880256,757.1957760000001,79.23974472884538,66.06515071722794,542.1055594881022,774.0861893743518,771.5357009749778,153.0,547.3615937294581,661.7813219718357,0.8271034185409556,base
1783776192865269144,1783776202865269144,2180.2588901052636,1808.8565760000001,35.65788512798043,37.04909606807522,1190.6190132603497,1656.3230283034043,1645.2439157644133,76.0,1171.197245148775,1466.0476717869913,0.7988807374327617,2130.826574769231,1766.790144,52.82649648589693,38.34316095433555,1256.2952460898384,1924.7353633790044,1912.760006425848,78.0,1360.9934274348477,1493.4536939374545,0.9113060772889593,1008.574575709091,715.1293440000001,83.90090618348336,68.72328929526331,497.93075277889824,726.126834877008,723.909693969171,165.0,513.4492089430568,603.3697241690166,0.850969460972206,1040.0925312,715.1293440000001,83.90090618348336,67.57571439455191,525.7473188476118,710.186714262455,707.9499495936653,160.0,502.1778415635749,653.2451257163573,0.7687433427274026,1080.615616831169,757.1957760000001,83.90090618348336,65.60375059004572,527.3764902326734,730.9171455130032,728.5246634941809,154.0,516.836470077759,650.1476420775876,0.7949524640682778,base
1783776193865269144,1783776203865269144,2197.4175663157894,1787.82336,22.639927065384395,37.357094384344464,1303.4326491496095,1809.7549687411351,1797.6957359913754,76.0,1279.690010682905,1605.9483428857639,0.7968438190131334,2165.601772051948,1808.8565760000001,24.174837374901987,37.42774670392632,1267.049443699929,1828.7773527832794,1816.7365224102546,77.0,1293.14086743344,1541.0132815934276,0.8391497223802742,1003.7658864578316,715.1293440000001,71.31577025596086,69.099415907605,500.0563994179787,733.5330980627341,731.3080033261705,166.0,518.686227864936,604.6446094271972,0.8578365204583683,1047.9568374339622,757.1957760000001,67.9197811961532,66.9264818686871,526.0994210491737,709.6929396199412,707.4453146030331,159.0,501.8286901654754,653.9458574835941,0.7673856855619964,1034.9387400745345,715.1293440000001,83.90090618348336,67.68512412942985,490.4907977575413,677.3975960172247,675.2776152762749,161.0,478.99243370324507,605.3474783933437,0.7912685702012696,base
1783776194865269144,1783776204865269144,2030.094848,1808.8565760000001,30.347136279132275,36.258190106117915,783.3786717505951,1025.9768513921754,1019.5578910040622,81.0,725.47518895983,981.9405082841336,0.7388178640552703,2175.277338947368,1829.889792,11.787730620819977,38.01843636686226,1263.2415431706956,1909.7690992286311,1897.5520443713824,76.0,1350.4106805650897,1509.885389588371,0.8943795932307433,1014.724420682927,715.1293440000001,41.95045309174168,68.41179819629959,500.8629754251375,729.4119992348088,727.1876291039963,164.0,515.7721709377702,607.2206964082446,0.8493982072557815,1059.480841846154,925.461504,83.90090618348336,65.93306533558261,521.8733048515704,685.9055111025895,683.6906790763741,156.0,485.00843815386577,653.518859783843,0.742149106935164,1022.8375040000002,715.1293440000001,83.90090618348336,68.38626290114367,481.1748266414402,652.0944865489456,650.1199607428093,162.0,461.10043341311933,597.2868847881701,0.7719915590924957,base
1783776195865269144,1783776205865269144,2049.3103786666666,1808.8565760000001,25.02307728279328,35.99596919447816,784.3228027748388,1007.682262047322,1001.3666516021993,81.0,712.5389607750609,988.1642740931061,0.72107338775124,2246.0063896216216,1871.956224,23.382219756052738,35.43532559069134,1252.754811345481,1974.933410358062,1961.3720138940052,74.0,1396.4888068560604,1470.9516446373657,0.9493777799883676,987.1757305868264,715.1293440000001,83.90090618348336,69.87030176054556,487.802465734357,704.926119257524,702.7996404479825,167.0,498.45803916251214,593.019630998982,0.8405422234046882,1108.31026176,925.461504,83.90090618348336,64.61375493548033,581.6246826019328,793.8358372437955,791.1675243117245,150.0,561.3267036639883,720.4378590138491,0.7791465934790606,1001.4851762891567,715.1293440000001,83.90090618348336,69.21955362626558,455.4754291084497,620.5558959353976,618.6726181866914,166.0,438.7992821212132,564.4850113581465,0.7773444348247008,base
1783776196865269144,1783776206865269144,2190.2219924210526,1871.956224,36.57218987485172,35.01244096010866,988.3453790019654,1310.7678758406491,1302.0948120091875,76.0,926.8528535684096,1234.5546040192492,0.7507588976226103,2376.1524589714286,1871.956224,29.71490427331702,33.70992620061503,1411.7186414414925,2230.39173904483,2214.1806487889376,70.0,1577.1251233810558,1655.9701741839951,0.9523873968069555,996.3234102857144,715.1293440000001,83.90090618348336,69.99069976308908,511.10012329066234,729.9273811926273,727.7388628443955,168.0,516.1366010150448,623.8975689981319,0.8272777883136618,1101.1995587368422,925.461504,41.95045309174168,64.0941732189778,525.969161328258,695.1076136366638,692.8223293019481,152.0,491.51530725688366,657.6423562262302,0.7473899796803865,1037.200464,715.1293440000001,44.572356409975534,67.722056644945,488.9168242927679,654.3588777778941,652.3134056021021,160.0,462.7015998063682,609.1247301836992,0.7596171635763782,base
1783776197865269144,1783776207865269144,2330.2433388169015,1935.0558720000001,24.591644915848573,31.271469346532594,1035.929985085228,1449.0343488111814,1438.6473739370417,71.0,1024.6220142166194,1273.3329226831058,0.8046772340242214,2405.712183652174,1808.8565760000001,22.639927065384395,34.649100964341805,1502.4059741916542,2347.1507105016244,2330.01754716493,69.0,1659.6861838625216,1771.2053263587136,0.9370377105146496,1000.0223655089823,715.1293440000001,49.183289831697145,69.69494031716465,512.0866787492176,736.2844291331501,734.0707471465131,167.0,520.6317127221164,623.648012069971,0.8348165995014885,1086.853632,925.461504,83.90090618348336,64.97905887113765,524.4216679241483,670.8856894316767,668.6898482741105,153.0,474.3878203981507,661.4486144105507,0.717195274225347,1039.3037856,715.1293440000001,83.90090618348336,67.71789963143026,494.3172343005149,650.6424752926612,648.651962717706,160.0,460.0737064074414,618.760978560607,0.7435402721705046,base
1783776198865269144,1783776208865269144,2286.193728,1871.956224,64.83251841450988,32.16426896105018,1065.1694307632758,1471.1188585142534,1460.785691368292,72.0,1040.2381207868418,1314.5813624481568,0.7913075223047411,2416.6223398208954,1850.923008,22.286178204987767,33.038816621818775,1431.9127116829754,2222.3228119371624,2205.4596132869356,67.0,1571.419530306324,1692.9466493792738,0.9282156238547102,996.073014857143,715.1293440000001,83.90090618348336,69.3394488886797,468.89142398887816,670.4125136637801,668.4024665723595,168.0,474.0532346039779,572.1495437046059,0.8285477805934003,1100.922805894737,925.461504,27.96696872782779,64.35103550240561,524.8243298712185,688.6179171292398,686.40720893164,152.0,486.92639884864144,657.5199582535073,0.7405499905158873,1045.8766656,757.1957760000001,83.90090618348336,67.53375610498696,508.8702680519201,678.8947883027176,676.7567385487879,160.0,480.05110852105724,634.5654938761783,0.7565036440741747,base
1783776199865269144,1783776209865269144,2204.2810368,1808.8565760000001,36.57218987485172,34.867894019880374,1149.1061628056607,1610.1731155977027,1599.2647454123037,75.0,1138.5643289234063,1411.6393240652853,0.8065546981537262,2454.0814080000005,1829.889792,32.41625920725494,32.028477507374255,1446.6115579900038,2195.755078743652,2179.307334009044,68.0,1552.6333060044378,1726.2777609537225,0.8994110572024339,977.6140395789475,715.1293440000001,64.83251841450988,69.9115363769882,427.11254883794624,598.8019783749519,597.0400445149811,171.0,423.41693949684884,524.6039519706794,0.8071173270927131,1065.6829440000001,904.4282880000001,83.90090618348336,65.37726888037335,481.08882411085034,645.9254887448449,643.8385437572541,156.0,456.7382932327148,598.8221598405946,0.7627277743934822,1040.6183616000003,757.1957760000001,64.83251841450988,67.57887470913512,497.8817760862354,674.6566008658424,672.5335663325836,160.0,477.05425744450315,618.0470399934015,0.7718737030915904,base
1783776200865269144,1783776210865269144,2163.3363763200005,1766.790144,22.286178204987767,36.128293750314356,1112.697548670655,1480.5824241910436,1470.7975922300352,75.0,1046.9298722511044,1388.5822233233118,0.753955980903654,2516.3374778181824,1892.98944,11.885961709326807,30.684434363612823,1412.8870936343144,2033.245795582644,2017.6578543759717,66.0,1437.7218898755243,1720.1679459876048,0.8358032093488877,973.1530984186046,715.1293440000001,79.23974472884538,70.29709233020354,431.615556437154,607.795913527999,606.0165760247385,172.0,429.77661203312056,529.3675556659799,0.811868062999125,1086.8982657662339,925.461504,41.95045309174168,64.37651064431516,490.3027915827363,653.2484168090472,651.1310741828576,154.0,461.91638532505345,611.6455520575349,0.7552027212021692,1039.6418194285716,715.1293440000001,41.95045309174168,67.72972565505592,511.29382932359124,700.9966842279443,698.8204905497688,161.0,495.6795090068644,632.4505292780774,0.783744318425454,base
1783776201865269144,1783776211865269144,2060.2035072,1787.82336,36.57218987485172,36.43179036675308,915.6792184464472,1208.0221508447994,1200.3520913880427,80.0,854.200654685916,1145.4726024468978,0.7457189747369058,2458.688771820896,1850.923008,38.54906500322208,30.98453656555777,1329.1944356173672,1936.1665811190417,1921.4430900477987,67.0,1369.076519016048,1611.3132649772958,0.8496650209326856,988.1877813017755,715.1293440000001,49.183289831697145,69.45827141547292,439.0693488326875,621.8948111697817,620.0510808171746,169.0,439.7460381628801,537.4713919165799,0.818175710887199,1098.4320303157895,904.4282880000001,32.41625920725494,64.4261557914243,514.148796557802,699.567679838293,697.2567881875806,152.0,494.6690503125966,637.4552810472975,0.7760058862480324,1058.316881012658,757.1957760000001,49.183289831697145,67.14785061400828,545.7912649441042,764.1996468281511,761.7667143656668,158.0,540.3707524525504,670.6533640603789,0.8057377796197871,base
1783776202865269144,1783776212865269144,2089.47695149367,1808.8565760000001,95.08769367461446,36.328006320849234,958.5932076609944,1308.1269306189308,1299.790089215359,79.0,924.9854232933905,1187.4354125151237,0.7789774614639172,2690.2161754838717,1829.889792,32.41625920725494,30.36865529085022,1683.1300716396775,2596.1711126955856,2574.8045634478567,62.0,1835.7701989076731,1995.201133850122,0.9200928005514931,957.2559002790699,715.1293440000001,67.9197811961532,70.91009377213562,418.6637961171503,590.4649434589259,588.7367285716854,172.0,417.5217655727378,513.221722060707,0.8135309703889556,1086.0787898181818,778.2289920000001,41.95045309174168,65.32678720791782,517.277824437424,696.6724000778727,694.3939201182536,154.0,492.62177836057117,643.2842194954443,0.7657917968933791,1030.235660720497,715.1293440000001,49.183289831697145,68.05173778638502,502.1196975992857,687.8089990689199,685.6634856065566,161.0,486.354407402765,621.2713389770599,0.7828373480153787,base
1783776203865269144,1783776213865269144,2140.4064808421053,1808.8565760000001,38.54906500322208,36.05190682313304,1004.7208264756879,1413.9120710734094,1404.4561510715725,76.0,999.7868134575235,1232.5343979484728,0.8111634167140871,2757.846762305085,1808.8565760000001,37.53461592418993,27.70349028229264,1683.2966985803323,2637.1662032564964,2614.334775367634,59.0,1864.7581054386499,1981.9975163968597,0.9408478517312456,964.1237160693643,715.1293440000001,41.95045309174168,70.74812752836746,428.4535778563171,607.0390433136864,605.273057855983,173.0,429.241423972102,524.4242907503041,0.8185002707597276,1092.9024,841.3286400000001,41.95045309174168,64.79836853205302,506.2818688691463,683.5630809936791,681.3234547138619,153.0,483.3520899393997,629.1486629302157,0.768263716381787,1056.4837030318472,757.1957760000001,41.95045309174168,66.5279521742683,506.9938844080117,702.4866414073134,700.2464670460389,157.0,496.7330678320738,625.0709778219725,0.7946826607802436,base
1783776204865269144,1783776214865269144,2158.672168421053,1829.889792,20.671237755350973,35.8727127223047,1011.5138230829589,1418.06653287477,1408.6749429915435,76.0,1002.7244615694461,1242.4138825934533,0.807077637828972,2672.5754136774194,1787.82336,35.65788512798043,28.895160289390173,1642.9271116692926,2550.8010482750988,2529.8064439434324,62.0,1803.6887186930765,1942.1051700527632,0.9287286530646915,945.187570983051,715.1293440000001,83.90090618348336,71.84257175146371,418.98883182589,599.3037338580812,597.5987889153299,177.0,423.77173420146715,511.18689442863104,0.828995693786574,1079.343226219355,757.1957760000001,83.90090618348336,65.4053864702259,500.07307865699346,652.4090878199079,650.5079244592656,155.0,461.3228901051867,627.4844727381436,0.7351941126003001,1065.5936309808917,883.395072,83.90090618348336,65.83944279424038,502.440920318497,681.8345616884956,679.645734537005,157.0,482.1298422172926,623.4333680857649,0.7733462257524956,base
1783776205865269144,1783776215865269144,2054.865330227848,1766.790144,41.95045309174168,39.7001011272646,978.4191176925724,1396.854308113119,1387.8817075857412,79.0,987.7251535964295,1194.49045630724,0.8269008332222058,2605.489632,1787.82336,35.65788512798043,29.258274761771794,1600.1204392069692,2468.21949597739,2448.9367252501875,64.0,1745.294743062455,1896.7719867857306,0.9201394554650878,950.0799272727273,715.1293440000001,64.83251841450988,71.65643400332023,424.23945683257676,599.4641485845133,597.8425060116022,176.0,423.88516454232945,519.7296577141434,0.8155877930973695,1052.459529721519,736.1625600000001,83.90090618348336,66.53810768159241,469.9806920447683,630.2801952502066,628.3113764144817,158.0,445.6754001090023,585.1926355129557,0.7615875065111536,1065.0577528662423,883.395072,64.83251841450988,65.54834367364681,492.92845189205696,676.5201532688972,674.350975187333,157.0,478.37198798579965,609.5383810102993,0.7848102808438516,base
1783776206865269144,1783776216865269144,1964.9585164337348,1766.790144,31.69589789153816,43.36698991255181,946.4555055319321,1391.643219210903,1383.2009132903283,83.0,984.0403572963066,1143.410834087857,0.8606183604000164,2515.9732662857145,1850.923008,39.61987236442269,29.22193455884306,1402.9553746912734,2129.6258253587503,2112.434345975294,63.0,1505.8728625011706,1674.1388914129936,0.8994909981633576,951.4225020342859,715.1293440000001,64.83251841450988,71.3091297367754,409.1108402664353,588.3118952016619,586.6201532707137,175.0,415.99933054980465,498.2124423758148,0.8349838245027317,1074.1866958451615,757.1957760000001,41.95045309174168,65.5309097456034,485.87402792436876,644.8647355850718,642.7690600003148,155.0,455.9882274802742,606.7820945138374,0.7514859644064128,1040.6183616000003,757.1957760000001,21.610839471503287,66.48902361791295,470.6478879093896,652.7755229388507,650.7931580924458,160.0,461.58199886265606,580.077493055985,0.7957247167631575,base
1783776207865269144,1783776217865269144,1947.9232511999996,1766.790144,31.69589789153816,43.38125327341702,919.8452458740629,1347.750151663886,1339.709800549139,85.0,953.0032715867318,1112.709726247921,0.8564706941137986,2494.8630055384615,1808.8565760000001,35.65788512798043,32.65522935664406,1492.338229821278,2319.818931338385,2301.623992132871,65.0,1640.359697474302,1763.1667010873418,0.9303486144915821,957.0721176416184,715.1293440000001,31.69589789153816,71.23042570089443,418.6332840211695,589.5316704753172,587.8284424564823,173.0,416.86184191732997,513.4401185701638,0.8118996292658498,1081.1619341298704,799.2622080000001,83.90090618348336,64.65177669012637,463.2960382610069,619.7790250767732,617.7798959237056,154.0,438.2499514689736,577.282364320451,0.759160470777347,1032.848482583851,757.1957760000001,31.69589789153816,66.61876331784285,465.1837173713514,647.3981753936752,645.3719386083254,161.0,457.7796399486656,572.7221686289904,0.799304907376853,base
1783776208865269144,1783776218865269144,2018.6757307317077,1808.8565760000001,24.174837374901987,41.086457861354035,898.4997226758503,1372.2343445114664,1363.7731535786215,82.0,970.316210381135,1069.5077041484817,0.9072549983673837,2469.362344119403,1808.8565760000001,26.413248242948466,33.724251327211505,1481.728442316286,2288.5157948448173,2271.144666687761,67.0,1618.2250373872919,1755.4806229988822,0.9218131013163124,952.8647797028573,715.1293440000001,64.83251841450988,71.27576970907263,410.35671568439216,575.0351101889867,573.3816036685283,175.0,406.61122583498604,504.10209653109666,0.8066049092694129,1060.7707279490446,757.1957760000001,83.90090618348336,65.61304205797772,457.437725357687,602.1195453677252,600.186572336558,157.0,425.7628136144795,572.5919650434944,0.7435710586370844,1043.5104288000002,757.1957760000001,36.57218987485172,66.36842996762614,478.876316462621,667.0535661036496,664.978078555318,160.0,471.6781000065596,589.4106700126132,0.8002537517626985,base
1783776209865269144,1783776219865269144,2044.5364578461538,1829.889792,39.61987236442269,40.752752348109695,941.1308257096742,1465.0161067091724,1455.4802312446843,78.0,1035.9228236015706,1111.254432599763,0.9322102960507835,2452.410199880597,1808.8565760000001,29.71490427331702,35.78857074226288,1449.5684094224262,2233.2260351667273,2217.087573762597,67.0,1579.12927338874,1719.20694395826,0.9185219260183952,948.7783263085716,715.1293440000001,83.90090618348336,71.36382989410721,399.143903794224,559.2356364228895,557.6276321069156,175.0,395.43931079579977,490.35251361735357,0.8064388369881605,1085.2039680000003,883.395072,83.90090618348336,64.48497310087002,478.2543180151637,642.3699958055682,640.2823989851693,153.0,454.2241800648914,595.2264968249374,0.7631114919913985,1031.94216,757.1957760000001,83.90090618348336,66.8694576115794,449.5657001143903,594.0991066895438,592.2279237528838,160.0,420.0915070370466,562.121161580273,0.747332667313319,base
1783776210865269144,1783776220865269144,2217.74229504,1850.923008,7.203613157167764,38.890603008545476,1343.468468149264,1879.3345755463665,1868.807855555669,75.0,1328.8902224871779,1651.3147604595708,0.8047467716677708,2446.0392959999995,1808.8565760000001,9.383653981047482,35.72114802189816,1451.362690094616,2228.743746890757,2213.166240051383,68.0,1575.9598169535684,1723.6828722451232,0.9142980082530243,961.2058132716762,715.1293440000001,83.90090618348336,70.710577729468,402.6203432204175,556.5888569185114,554.9685074631002,173.0,393.56775505994847,496.7479165918965,0.7922886879126747,1081.1619341298704,883.395072,64.83251841450988,64.55411192280796,472.5894473053329,652.0728733819427,649.9398767684805,154.0,461.08515059616866,583.4224998734402,0.790310882244326,1050.5958270379747,799.2622080000001,64.83251841450988,66.07298505528671,470.78288480486503,619.549087061924,617.5728488943612,158.0,438.0873607394212,589.3324880155224,0.7433619724828108,base
1783776211865269144,1783776221865269144,2215.309263567568,1829.889792,38.54906500322208,38.86227100552471,1273.414025411428,1922.2527952255593,1909.0499764507056,74.0,1359.237986658789,1522.9585050292587,0.8924983721947668,2370.142968685715,1829.889792,31.00685663302646,35.889740636792276,1359.7717953358886,2126.0035738776965,2111.1776190666105,70.0,1503.3115439157543,1602.4936417180527,0.9381076497152501,963.6373989364163,715.1293440000001,21.288289628645032,70.86809175392851,420.548379589824,561.7267049365938,560.199518760886,173.0,397.20076223424036,524.2496126765594,0.75765580484901,1058.132558769231,757.1957760000001,28.52630810238434,65.67397550951941,460.9671106211411,624.2028442671354,622.1869755724034,156.0,441.37806401722196,572.3408568772732,0.7711804228434919,1049.2646108354431,757.1957760000001,83.90090618348336,66.31470992336432,475.05606293479127,623.8110997567325,621.8379494006932,158.0,441.1010588174234,595.0390355407641,0.7412976838007883,base
1783776212865269144,1783776222865269144,2264.672298082192,1850.923008,34.78818061266384,37.86375990783474,1292.7970716708787,1957.0584490907354,1943.4205962556182,73.0,1383.8493005304867,1544.3863162279831,0.8960512573760736,2395.9576486956526,1808.8565760000001,158.47948945769076,37.64505660109967,1465.3878726366638,2302.5067842998374,2285.589230634298,69.0,1628.118160906446,1723.1769675818325,0.9448351455110358,960.7586251034485,715.1293440000001,83.90090618348336,70.76262500820482,399.6598245106762,543.9208307859376,542.3465269607908,174.0,384.6101078773571,495.47298928911636,0.7762483852635023,1027.1435543558284,757.1957760000001,83.90090618348336,66.86353437851757,424.5624861927117,568.8398368751301,567.0835808562922,163.0,402.230506063454,528.7834333261981,0.7606715352886716,1033.8936113291927,757.1957760000001,41.95045309174168,67.0122214284988,467.3597574983604,614.9627393076029,613.0379685791136,161.0,434.844323141461,585.068793539422,0.7432362278473859,base
1783776213865269144,1783776223865269144,2365.335376457144,1892.98944,37.53461592418993,37.3099545392502,1375.3050654912192,2059.343152051965,2044.4772669401204,70.0,1456.1755076060238,1650.0619660654515,0.8824974683091767,2400.225257739131,1808.8565760000001,36.57218987485172,38.801647457762456,1469.7048433214165,2340.049794310025,2322.7801476172076,69.0,1654.6650778708045,1717.878456993469,0.9632026475066828,955.0281962057143,715.1293440000001,64.83251841450988,71.08013750694306,397.4243306376794,534.4895294098504,532.9527977207194,175.0,377.94117071891185,494.4415363856724,0.7643798971292566,1001.7856291257488,715.1293440000001,54.85828481227758,68.07721681137795,403.9259766147009,541.3595548466994,539.731309380137,167.0,382.79901229223185,503.03563219947523,0.7609779263915754,1014.724420682927,757.1957760000001,64.83251841450988,67.77606771220677,453.7584459983348,576.2633629998093,574.4944136347817,164.0,407.4797317265301,573.3878170537678,0.7106529291471149,base
1783776214865269144,1783776224865269144,2337.353158309859,1892.98944,22.286178204987767,37.327820252149614,1342.0959196558852,1985.8083679791662,1971.8601939858124,71.0,1404.1785631350592,1617.5859162745987,0.8680704678543258,2437.9971840000007,1850.923008,22.286178204987767,38.7611299866316,1513.4744951090458,2383.192680854524,2365.392879200522,68.0,1685.1717055063816,1778.006821182506,0.9477869743973298,976.4888327573965,715.1293440000001,83.90090618348336,70.49687054772188,426.5368105770161,583.8704177423788,582.1301145636038,169.0,412.8587317198583,527.8646941932768,0.7821298455105443,1013.7235883190186,715.1293440000001,64.83251841450988,67.39905366101458,404.0879996602517,522.9861832406933,521.3711462654867,163.0,369.80707663636457,508.1294972481721,0.727781163343386,1037.200464,757.1957760000001,52.82649648589693,67.11939483631605,528.5783724623542,707.0761158769282,704.8540643016325,160.0,499.97831635162095,658.6357363968355,0.7591120382972636,base
1783776215865269144,1783776225865269144,2459.2683323076926,1892.98944,22.639927065384395,31.53694165637823,1329.0320851007116,2026.6065514436573,2010.7220958076382,65.0,1433.0272353228938,1582.9936948281575,0.9052640196892614,2569.9354072615383,1850.923008,8.859101895150417,38.508662473472825,1651.7892716516405,2509.8993403157624,2490.421817567567,65.0,1774.7668436329177,1970.2580849364733,0.900778866079436,980.3953152,715.1293440000001,178.28942563990213,71.01005679879651,444.4370972909837,585.1525830927269,583.4192717425049,170.0,413.76535953369194,556.2803075085868,0.7438073107186254,1019.341468097561,715.1293440000001,62.01371326605292,67.34275386957353,427.15893622626606,551.8000520298833,550.1097132415833,164.0,390.18155864942025,537.4092381424653,0.7260417777671037,1057.7843945316456,757.1957760000001,64.83251841450988,66.67913085513932,572.2899372807138,785.6686617918976,783.1647811487123,158.0,555.5516385188109,707.6105801180894,0.7851092876905513,base
1783776216865269144,1783776226865269144,2573.171286646154,1892.98944,23.00508717934221,29.198600863545096,1536.6230718115285,2390.841270718029,2372.11878975702,65.0,1690.5800752653806,1814.7700775042676,0.9315670873250912,2420.3439860869566,1808.8565760000001,23.00508717934221,40.67960057387158,1521.5845273359319,2394.0269003119997,2376.3975356938267,69.0,1692.8326555536257,1788.1828060357398,0.9466776270522935,990.9258330887574,715.1293440000001,41.95045309174168,69.51919565299681,436.1264692786852,573.2767580780394,571.5759286558019,169.0,405.36788313362155,546.1236435761293,0.742263932173289,1028.030890666667,715.1293440000001,41.95045309174168,67.38093042866858,467.4910877350739,636.1635176327466,634.184777170191,162.0,449.83553726160284,579.5859116056288,0.7761326289236775,1054.056989164557,799.2622080000001,50.9398358971149,66.45179419270848,545.7442095670932,744.9758872658922,742.6013027526136,158.0,526.7775017061774,675.9631768078212,0.7792991094482978,base
1783776217865269144,1783776227865269144,2501.6779636363635,1914.022656,158.47948945769076,31.459173257210253,1529.9911940102907,2318.335165554578,2300.5318298169045,66.0,1639.3105166268792,1827.0403998095737,0.8972491887961203,2438.615808,1829.889792,25.02307728279328,39.295145600962165,1499.7047008983568,2391.7948006263587,2373.897164036598,68.0,1691.2543227296246,1751.5872195575757,0.9655552996994404,993.2212058443114,715.1293440000001,31.00685663302646,69.98164017433777,456.67489476680913,611.8879874338138,610.0724836358092,167.0,432.6701452410387,568.7725307441469,0.7607085818208551,1025.8531730061352,715.1293440000001,31.00685663302646,67.25699565263986,449.5434429168845,601.1860631512486,599.3817351511607,163.0,425.10274200909186,560.1985750671882,0.75884295485419,1065.0577528662423,925.461504,49.183289831697145,65.73611588454915,544.6195803690786,745.4247685064788,743.041335847283,157.0,527.0949086753436,674.0225910657952,0.7820137123918609,base
1783776218865269144,1783776228865269144,2602.777014857143,1935.0558720000001,13.983484363913895,29.976162391389963,1569.4508039363081,2397.7528650867403,2378.341026663016,63.0,1695.4673105123072,1867.899074212718,0.9076867877494467,2457.599832,1850.923008,34.78818061266384,36.81152225317448,1419.471719933992,2215.289551005438,2197.6391831450765,64.0,1566.4462638076475,1674.193232182672,0.9356424537479744,976.8760320000001,715.1293440000001,49.183289831697145,70.8580038054988,450.6684591211819,622.5684426114975,620.7429935389746,171.0,440.2223675233379,556.1530847342253,0.7915489091168334,1059.7504984615387,715.1293440000001,25.933007365803945,66.33972596899275,498.65602054546883,670.4846651814852,668.382010522048,156.0,474.10425343142003,620.4258473754975,0.7641594163701566,1043.5104288000002,757.1957760000001,31.00685663302646,66.74307194532399,532.364273052572,734.823164252882,732.5195049648069,160.0,519.5984424161691,657.1393822964291,0.7906974629954279,base
1783776219865269144,1783776229865269144,2674.6108861935486,1892.98944,36.57218987485172,27.544802870415406,1534.3838238170802,2320.6325734137113,2301.534974917778,62.0,1640.935029303224,1833.6666960998837,0.8948927483895572,2436.141312,1850.923008,38.54906500322208,36.348017687024495,1374.737239701431,2138.6899455831435,2122.6710562990365,68.0,1512.2821633773292,1623.6706210340853,0.931397134237845,967.7710945664741,715.1293440000001,83.90090618348336,71.61700297077655,448.33260908031184,628.4244208464395,626.5951335906894,173.0,444.36316944374613,550.7040435210855,0.8069001393245304,1052.983643773585,715.1293440000001,83.90090618348336,66.75338455977655,494.1782347282946,651.2403077633271,649.1763678417922,159.0,460.49643780146283,618.3815737426437,0.744680076759711,1039.903101614907,757.1957760000001,41.95045309174168,67.03141547349975,534.3474177015335,731.5597452184771,729.287146365021,161.0,517.2908566870882,661.2559341151981,0.7822853905715883,base
1783776220865269144,1783776230865269144,2711.5608299016394,1892.98944,36.57218987485172,27.737550126873828,1712.8421762244288,2658.02180512749,2635.778926768367,61.0,1879.505242947356,2025.1880560020038,0.9280645505374718,2446.0392960000004,1956.0890880000002,31.69589789153816,36.151413289803514,1367.9680545777715,2116.5855932386967,2100.7646670342456,68.0,1496.652025940834,1619.4719983112348,0.9241604840969921,955.5089554285715,715.1293440000001,83.90090618348336,72.56156177982506,460.7673798297747,653.0586115680046,651.1907912135804,175.0,461.78217275200757,563.9075891443645,0.8188968931109526,1047.1631311698115,715.1293440000001,64.83251841450988,67.07150572715948,493.8873696880654,648.9366019845196,646.8863750486818,159.0,458.86747182340935,618.5222627569584,0.7418770502747714,1005.0053026909092,715.1293440000001,64.83251841450988,68.28340583556626,498.4520041882988,694.5503309598032,692.4307493695849,165.0,491.12124889703773,613.4401033512323,0.8006017966775161,base
1783776221865269144,1783776231865269144,2648.805988721311,1850.923008,33.17012570044691,28.46546489169469,1839.8629370499743,2870.596471436791,2846.5746666827754,61.0,2029.8182310031302,2170.2788366484106,0.9352799265820628,2349.7953424225357,1850.923008,34.78818061266384,40.27100159325491,1389.3444304122218,2181.9334375385,2166.377489133654,71.0,1542.8599297811477,1634.119797068984,0.944153502422819,968.5062251162792,715.1293440000001,83.90090618348336,72.13231805138662,476.90380526647283,672.8772992064719,670.906936852865,172.0,475.7961011753858,584.5370082453588,0.8139708768887236,1065.0577528662423,757.1957760000001,83.90090618348336,66.67943794673037,510.74044441731553,677.3405558309952,675.1663176051709,157.0,478.952100200762,637.9765246338094,0.7507362445282365,995.3218285714286,715.1293440000001,83.90090618348336,68.79047791498917,491.9083932172571,680.0818344830911,678.0430251103174,168.0,480.8904769247809,606.8936556240275,0.7923801352484299,base
1783776222865269144,1783776232865269144,2746.9380096000004,1808.8565760000001,11.596060204221278,28.692367368874788,1999.384862594608,3123.274305594018,3097.204985398043,60.0,2208.4884409912356,2357.19516810742,0.9369136976317577,2318.4613522285717,1829.889792,21.943313924911035,38.05287181706238,1329.8050722430182,1993.8703868386467,1979.4233983741888,70.0,1409.879271340652,1594.6420540198023,0.8841352626983611,964.593068651163,715.1293440000001,83.90090618348336,72.19122331193172,469.92257674521585,660.6624817496512,658.7345022031041,172.0,467.1589209207121,576.6591086350969,0.8101127926799553,1066.7615704615387,736.1625600000001,49.183289831697145,66.71860444029429,516.9087949205706,685.0938731091877,682.8803168441893,156.0,484.4345234248628,645.7948596803292,0.7501368525365155,1001.1810816000001,715.1293440000001,83.90090618348336,68.67989893948607,500.52975245129613,702.7106846814745,700.5717600439921,165.0,496.89149035051236,614.4993812743304,0.8086118643766145,base
1783776223865269144,1783776233865269144,2775.6834048000005,1808.8565760000001,27.42914240613879,28.372592577390378,1986.7468765625993,3124.3236765051365,3097.75691737308,60.0,2209.2304582784673,2335.3750649884582,0.945985290071334,2381.5610002285716,1914.022656,35.65788512798043,35.49974416024455,1299.3465322594682,1969.071430626249,1954.8480721892145,70.0,1392.3437612365171,1551.545116025404,0.8973917334761665,970.2339637894738,715.1293440000001,36.57218987485172,71.77378862918694,467.1891507441173,657.0735990044936,655.1393474809393,171.0,464.6211975947278,573.2320442184296,0.8105290035350576,1075.0008848516131,757.1957760000001,41.95045309174168,66.06591940235312,510.1442159651781,685.2224510243996,682.994079428744,155.0,484.52544174061984,634.9108522607572,0.763139328955155,1024.487452621118,715.1293440000001,129.66503682901975,68.23351669750562,535.2407972725243,750.2613044885718,748.0332495465572,161.0,530.5148560657343,657.451455148311,0.8069262786041873,base
1783776224865269144,1783776234865269144,2727.3070080000007,1745.756928,21.610839471503287,28.837566534831627,1950.0660352080895,3054.864327659135,3028.9217378441663,60.0,2160.1152816926574,2296.185111928766,0.9407409143412606,2306.0584320000003,1871.956224,25.02307728279328,35.792035393542655,1221.4135024474774,1860.1973620978192,1847.0543472147665,72.0,1315.3581690846956,1455.5474335909175,0.9036862274145425,974.4160067368422,715.1293440000001,41.95045309174168,71.12456750950474,461.32733023754986,637.881213458863,636.016236722756,171.0,451.05013162826566,569.1420742022793,0.7925088516087417,1089.0531840000003,757.1957760000001,83.90090618348336,65.95518326029935,542.3650284803535,743.0571074861459,740.6088072306554,153.0,525.420719512315,671.0336668085812,0.7830020243413456,1022.2401052269942,757.1957760000001,41.95045309174168,67.43129193441064,459.5360591388067,614.4772047544162,612.585659545001,163.0,434.50099836640237,572.6702546028993,0.758728072348884,base
1783776225865269144,1783776235865269144,2773.532550508475,1724.723712,34.78818061266384,29.13459119557938,2154.52512594489,3422.544036283676,3392.91176030845,59.0,2420.1040969657647,2521.0127164654386,0.9599729827459371,2451.6069119999997,1871.956224,18.767307962094964,34.8621306464884,1418.2018659187763,2140.3751729680407,2124.4558302261116,68.0,1513.4737990890312,1696.2581155963574,0.8922426281550527,941.475429818182,715.1293440000001,83.90090618348336,72.46404045366158,423.34197184814326,618.1916424702043,616.4295992804871,176.0,437.12750246353124,512.7344571525753,0.8525416935914149,1080.6156168311688,757.1957760000001,83.90090618348336,66.06639537598029,521.310569868134,727.2450153821105,724.8720102305492,154.0,514.2398819608054,641.3330588804431,0.8018296809125969,1007.285844292683,736.1625600000001,83.90090618348336,67.85042897244749,412.19817852959204,536.7605842896985,535.1444666666152,164.0,379.54704902489925,517.4811064710211,0.7334510270591953,base
1783776226865269144,1783776236865269144,2554.403186215385,1808.8565760000001,34.78818061266384,29.152383333908908,1661.5825909776593,2582.4844471109313,2562.25666971352,65.0,1826.0922648609317,1963.2643564705184,0.9301306056122827,2333.79824856338,1850.923008,41.95045309174168,33.95834779399264,1227.0726227137,1750.6380224262937,1739.5590471192709,71.0,1237.8880170606394,1498.4095139299523,0.8261346484740141,951.0881809655173,715.1293440000001,52.82649648589693,72.50395979571533,450.2773130414815,649.455991933817,647.5807963080842,174.0,459.2347359786378,547.7691538550049,0.8383727574776833,1090.1294450526316,757.1957760000001,49.183289831697145,65.95535444277469,530.8007038753987,714.9712428275607,712.6012171078296,152.0,505.5610141567419,660.0778779444443,0.7659111614694845,995.1498702650603,736.1625600000001,29.108477655494227,68.6548256462739,403.16034119390736,521.325321003589,519.8071726527202,166.0,368.63266968589147,507.0813532790392,0.7269694838947045,base
1783776227865269144,1783776237865269144,2459.611531636364,1787.82336,43.22167894300657,29.88381698049459,1609.7462225954582,2466.5663599224235,2447.523423005015,66.0,1744.1257993477643,1913.5251240434377,0.9114726414787183,2262.823488,1871.956224,29.71490427331702,34.041232220862724,1082.9164986944807,1585.2890604715285,1574.0926001634973,72.0,1120.9686448002685,1310.3934275540116,0.8554443430723515,973.9240016842105,715.1293440000001,83.90090618348336,71.15577925744847,465.8029518989549,658.1654577367993,656.2268218386774,171.0,465.3932583084389,570.6569350810411,0.8155394768703664,1112.925335194631,757.1957760000001,83.90090618348336,65.22897289227846,556.1960911768822,736.7998602356447,734.3330768348775,149.0,520.9961775499248,694.9745859886309,0.7496622006814617,1009.8508706341464,757.1957760000001,83.90090618348336,67.96448974917708,411.44011227232886,535.9201861169863,534.291743323477,164.0,378.95279777807764,516.4913556889571,0.7337059828863653,base
1783776228865269144,1783776238865269144,2483.803059582089,1808.8565760000001,34.78818061266384,29.7182869075075,1621.0664673572471,2514.0679932648823,2494.9513633340616,67.0,1777.7145264016535,1917.1798336333713,0.9272549685819467,2311.3167359999998,1892.98944,36.57218987485172,33.6385522396568,1120.0247981427763,1651.050565142567,1639.382645314929,72.0,1167.4690506941906,1351.820662937631,0.8636271679389578,975.6937728,715.1293440000001,64.83251841450988,71.36409116908717,492.51948887487055,683.489772934023,681.4657500863732,170.0,483.3002533133012,606.9277769362487,0.7963060378501455,1084.104192,715.1293440000001,19.809936182211345,66.29364700448967,539.1127610043175,716.0096244659597,713.7279270537165,153.0,506.29526085471343,673.1401730497338,0.7521394222556773,1003.5124742168675,757.1957760000001,83.90090618348336,68.31714235306748,410.13748283909405,555.2636884707119,553.5785140579613,166.0,392.630719464295,509.26031528644694,0.7709823594706167,base
1783776229865269144,1783776239865269144,2413.7208785454545,1766.790144,21.943313924911035,29.97632017094967,1455.275294643621,2245.2735470098055,2227.9940149596423,66.0,1587.6481507094059,1724.9171113925033,0.9204199669790034,2342.093037971831,1892.98944,178.28942563990213,35.593861309597585,1260.645607088488,1825.8506266119052,1813.8389885794145,71.0,1291.0713595109853,1531.3464877904782,0.8430955174447967,993.0682697142859,715.1293440000001,83.90090618348336,70.57737250354204,517.2598236636013,724.7097427248175,722.53669512618,168.0,512.4471734726767,635.4639230931461,0.8064142665697205,1114.90161052349,757.1957760000001,83.90090618348336,65.25609125273934,578.0619009206467,780.8175846683405,778.1752163977147,149.0,552.1214089886848,718.2562895374866,0.7686969359422072,1032.9646080000002,841.32864,49.183289831697145,66.78935869390932,421.47351648611135,566.6012816158693,564.8476115426871,162.0,400.64760845956994,524.4240622970597,0.7639764024264458,base
1783776230865269144,1783776240865269144,2536.9294375384616,1808.8565760000001,12.734958974278724,29.25886173386289,1576.788588045826,2425.8981234256316,2407.298433741499,65.0,1715.3690135419843,1871.1705097272932,0.9167358103521973,2336.8207805217394,1850.923008,22.286178204987767,35.81569903118569,1252.7111449823287,1855.8909341066383,1842.2277882709514,69.0,1312.31306464944,1509.1347307981057,0.86957979156402,1011.1333838048781,715.1293440000001,64.83251841450988,70.1546665822726,566.8926055758108,772.0580784753154,769.6882787093697,164.0,545.9275027597512,702.6492961487362,0.7769558807672807,1139.8274314520547,820.2954240000001,83.90090618348336,64.860681522639,627.7549135452757,868.7509505417717,865.8062644135031,146.0,614.2996882903458,774.2547445406228,0.7934077157703685,1017.852808638037,757.1957760000001,64.83251841450988,68.18709822028687,444.81760643922246,629.0435184700897,627.1067623923205,163.0,444.8009375716457,544.7948870578086,0.8164557857248163,base
1783776231865269144,1783776241865269144,2632.156745142857,1808.8565760000001,32.41625920725494,30.471969517954502,1674.3884528256267,2561.527673760364,2540.8971904102273,63.0,1811.2735883129558,1991.6820469270556,0.9094190466332465,2402.0542330434787,1892.98944,38.54906500322208,33.362442864871944,1263.129580670014,1882.4877133740156,1868.6029197872099,69.0,1331.1198276271243,1518.2399933397153,0.8767519189762762,1028.5502293333334,715.1293440000001,29.108477655494227,69.35446649694343,578.0812068336161,804.8994313630707,802.439410207513,162.0,569.1498460900233,711.6108414971426,0.7998049114774605,1133.5043343673472,925.461504,79.23974472884538,64.08001831705683,606.2266907179715,841.5533981275775,838.6664634755507,147.0,595.0681145465925,746.9729383335837,0.7966394550706556,1032.9646080000002,757.1957760000001,83.90090618348336,67.37889030447253,448.50988066390255,636.1809027121412,634.2021081745576,162.0,449.84783036913433,548.7628730721381,0.8197490253864154,base
1783776232865269144,1783776242865269144,2539.103544,1850.923008,23.382219756052738,30.841622540431423,1467.3922640432963,2242.787889922842,2224.974496909549,64.0,1585.8905257275096,1746.1259213905748,0.908233768424068,2465.0929152,1850.923008,40.75186871769192,32.731162713327485,1318.81367269907,1960.2292445338098,1944.861768568067,65.0,1386.09139149004,1586.7937275571205,0.8735170598537322,1040.6869481739132,715.1293440000001,83.90090618348336,68.57762537030494,579.5122754886532,803.4079703763352,800.8933852712987,161.0,568.0952239124275,714.3548580138711,0.7952563316947394,1142.7086939178084,883.395072,83.90090618348336,64.10615053911391,629.7870453047824,868.0065864570016,865.0094981177738,146.0,613.773343398333,777.7561226594569,0.7891591277990823,1033.8936113291927,799.262208,41.95045309174168,66.871417573896,428.7021371567074,596.3943717933187,594.5558542942684,161.0,421.7145045565467,527.8726012294727,0.798894474868231,base
1783776233865269144,1783776243865269144,2580.512688,1850.923008,33.17012570044691,30.45408827346907,1469.0920654453164,2234.0791329718973,2216.278327191291,64.0,1579.732504631791,1751.7664229039372,0.9017940314285953,2579.8554,1829.889792,37.53461592418993,32.663506673597325,1620.4796864533737,2519.061698925441,2498.9895310926067,64.0,1781.2456095374844,1914.5471703950693,0.9303743658454349,1038.074126310559,715.1293440000001,79.23974472884538,68.65671229792946,577.96588048394,808.0034861683752,805.4788084674296,161.0,571.3447442920288,710.543249628121,0.8040956614408133,1142.7086939178084,820.2954240000001,83.90090618348336,64.46412816399722,644.932943588368,879.5538478360486,876.5160883127704,146.0,621.9384902235907,799.0452181449522,0.778352058307127,1031.9259306666668,757.1957760000001,47.54384683730723,66.67354881853677,418.41579983034615,578.125601682043,576.3283315784774,162.0,408.7965333269255,516.3199204614136,0.7917504576650869,base
1783776234865269144,1783776244865269144,2551.8144827076926,1850.923008,22.639927065384395,33.04554284034404,1513.538241655237,2324.5800097898314,2306.406265306249,65.0,1643.726288333081,1797.4086798574858,0.914497802727541,2567.3669280000004,1808.8565760000001,24.591644915848573,32.86324372852424,1629.570140287799,2500.6338374399825,2480.708240535206,64.0,1768.2151437183502,1935.8990900865006,0.9133818765519137,1047.4276999245283,715.1293440000001,36.57218987485172,68.52107189172982,595.1199083964125,831.1451878405394,828.5315113088068,159.0,587.7083984726122,731.8707740591145,0.8030220898329545,1110.27336192,862.361856,41.95045309174168,65.26270175446744,607.4712141209133,815.0169330168593,812.2915519711806,150.0,576.3040001180834,756.2931982340057,0.7620113488575477,1028.0308906666667,757.1957760000001,43.22167894300657,67.04352808496054,426.86177983701145,582.4569004696297,580.6602597318913,162.0,411.8592240709731,528.7796780749716,0.7788862566926764,base
1783776235865269144,1783776245865269144,2453.4627840000003,1766.790144,54.85828481227758,35.21606266499649,1520.8385003247022,2265.1880528564466,2248.2307212634087,68.0,1601.729832837545,1828.4228885678726,0.8760171636727394,2527.8101410909094,1850.923008,22.639927065384395,33.47793621475143,1628.8703994465998,2476.138561818749,2457.0707844484705,66.0,1750.894368219543,1942.5812755339725,0.9013236101219296,1044.7384757468355,715.1293440000001,83.90090618348336,68.57992605472086,587.413488668391,811.1431142341315,808.5717556509426,158.0,573.5647965877288,724.9971899233669,0.7911269237448427,1098.1846022781456,757.1957760000001,83.90090618348336,65.96485176875312,602.6550903585091,819.0826290882178,816.3633951486335,151.0,579.1788813803845,747.4371060842036,0.7748864441781357,1046.6654112,778.2289920000001,83.90090618348336,65.97926780065224,442.0878386912975,602.3926151438944,600.4953108558807,160.0,425.9559031049459,547.8723378146686,0.7774729142266642,base
1783776236865269144,1783776246865269144,2231.20355328,1724.723712,25.933007365803945,39.401185528618925,1401.622995578708,1986.3257279736556,1972.860267988079,75.0,1404.5443918954772,1715.4362620241955,0.8187680434352779,2571.876934892308,1808.8565760000001,25.933007365803945,31.457356381405422,1662.1710526272545,2483.5117998295145,2464.608089581823,65.0,1756.1080348162575,1995.9126988450378,0.8798521277170357,1059.64809721519,715.1293440000001,83.90090618348336,68.05354199360987,604.0683341377281,859.2772604297461,856.537384843045,158.0,607.6007777692726,738.3818470432135,0.8228815215357169,1107.0993428344373,757.1957760000001,36.57218987485172,66.09931023200022,624.7277467030248,863.3550911336608,860.4753531910185,151.0,610.4842395125413,770.8592683847514,0.791952908332726,1054.3401905732485,757.1957760000001,83.90090618348336,66.20128114246205,468.4726798468427,635.8785013948747,633.84839522149,157.0,449.6340003470554,581.2468807586987,0.7735680228686137,base
1783776237865269144,1783776247865269144,2270.4188160000003,1724.723712,19.27453250161104,40.34559900775903,1440.070256202165,2051.3812403662105,2036.9775022537526,72.0,1450.5455858618186,1759.421335912673,0.8244446945446244,2548.0238811428576,1766.790144,34.78818061266384,31.881209501176894,1673.672366116661,2542.160763600865,2521.576127139454,63.0,1797.5791148085432,1996.6754972221079,0.9002860591565534,1050.0428603076923,715.1293440000001,83.90090618348336,68.16113072637202,573.9262031555729,801.3522693504548,798.7764037599014,156.0,566.6416237769354,705.8620321556209,0.8027654101843068,1070.1157508129033,757.1957760000001,83.90090618348336,67.61484297436527,605.6117510676221,852.8866996041628,850.1193964957617,155.0,603.0819688739175,742.7497933166744,0.8119584472463004,1081.7082514285717,757.1957760000001,83.90090618348336,65.74750135442663,528.5637021804029,733.8271028933993,731.4399779426052,154.0,518.8941206744009,651.2554186262694,0.7967597747884144,base
1783776238865269144,1783776248865269144,2261.6549760000003,1724.723712,28.52630810238434,40.771015831841524,1515.4854939770373,2173.83258818675,2158.46994647161,72.0,1537.1317642711547,1847.1614803649338,0.8321588451311099,2678.930611200001,1745.756928,20.088949367876296,31.792041835738548,1956.0602103989788,3025.691047048313,2999.992970917107,60.0,2139.486657143287,2315.9536945641025,0.9238037280991367,1056.4837030318472,715.1293440000001,64.83251841450988,68.32703271392008,593.5914553593748,830.8336901318481,828.167577915777,157.0,587.4881363304726,729.4727387550513,0.805359960857625,1065.5020131096778,757.1957760000001,64.83251841450988,67.32733822747937,570.9814136540751,791.1760441428985,788.6099195342406,155.0,559.4459459257909,703.9528863996586,0.7947207217049095,1077.0645543896105,757.1957760000001,64.83251841450988,66.51077507559782,558.7043498377706,767.2691392861377,764.7647302404388,154.0,542.5412113843936,690.7428016491153,0.7854460590672859,base
1783776239865269144,1783776249865269144,2198.1112934400003,1724.723712,43.22167894300657,40.91928180312208,1392.6139605493747,1953.7604607815254,1941.034059985767,75.0,1381.5172706327703,1710.1030090920608,0.8078561719894608,2819.9015106206894,1766.790144,9.904968091105673,28.900770563442084,2050.162216462437,3143.8395427251808,3117.066986245814,58.0,2223.03025962339,2436.267321132828,0.9124738653842446,1053.2684343439491,715.1293440000001,83.90090618348336,68.0553740381451,571.4091907742587,809.1981174162221,806.6014908161062,157.0,572.1894761483987,699.5116355680561,0.8179842150641823,1049.475530805195,757.1957760000001,83.90090618348336,67.34575250392565,513.3351312711001,700.638299856752,698.3468271018236,154.0,495.426092987723,635.8477861781821,0.7791583202098166,1096.7916740662251,757.1957760000001,83.90090618348336,65.55456029432096,566.5938607883837,778.3578588992114,775.7959469760177,151.0,550.3821202174743,700.4262752343259,0.7857816585098057,base
1783776240865269144,1783776250865269144,2214.9378662400004,1724.723712,30.347136279132275,38.319394809965345,1342.6304352403733,1872.1432386036672,1859.4561569747684,75.0,1323.8051793691977,1651.9936122168124,0.801337952870642,2881.1815882105266,1808.8565760000001,36.57218987485172,28.435826448660567,2075.45005272378,3253.955642885069,3224.7719446536184,57.0,2300.8941007642643,2442.934508175851,0.941856645384387,1028.5502293333336,715.1293440000001,62.01371326605292,68.92900048903849,521.6948137432154,721.1799986636274,718.9385298368995,162.0,509.95126751115623,643.6659147065495,0.7922607922211409,1047.9568374339626,757.1957760000001,62.01371326605292,67.58234266133186,524.7138395505566,717.9197035652156,715.6459824936048,159.0,507.64589073839994,649.4590453908412,0.7816441919488567,1077.3377130389613,757.1957760000001,62.01371326605292,66.91380832369234,562.5394135377439,767.5422100881271,765.0369046592485,154.0,542.7343016002244,696.8650676422488,0.7788226541997497,base
1783776241865269144,1783776251865269144,2048.6352384000006,1703.6904960000002,34.78818061266384,41.25516517622968,1206.8732027789126,1736.5897436949863,1725.5676913873406,80.0,1227.9543839057333,1469.4045973437699,0.8356815992855173,2795.96716137931,1745.756928,20.37593435884596,28.93761454372618,2016.946031077251,3177.1508765125304,3149.2305378628225,58.0,2246.5849296347938,2369.086461386639,0.9482916585154328,1001.7385885301205,715.1293440000001,83.90090618348336,69.63717940121423,477.9647306989235,645.1673040434656,643.209280395797,166.0,456.20217568897766,594.0036658409698,0.768012391039881,1059.1630936050956,715.1293440000001,31.00685663302646,67.53862805962852,547.7652513000528,733.3101559342589,730.9978538321685,157.0,518.5285839740791,682.3910864486276,0.7598701012826249,1101.2490443443712,841.3286400000001,27.96696872782779,65.87346665691578,578.5643208774271,770.090910472361,767.5788738966222,151.0,544.536504925129,721.9510677232075,0.7542568039166632,base
1783776242865269144,1783776252865269144,2101.164347076924,1703.6904960000002,35.65788512798043,37.082202030637276,1152.2739997923757,1558.7451243807116,1548.5903249190342,78.0,1102.1992475910697,1431.1006779747815,0.770175896465121,2686.0451252459025,1724.723712,35.65788512798043,29.684309799902103,1906.6326814138142,2893.4243936112757,2869.211297157636,61.0,2045.9600095731075,2275.4164856755933,0.899158471626192,1024.8208679263805,715.1293440000001,83.90090618348336,68.86467479877416,511.0943166116065,707.0531556438934,704.8675146939072,163.0,499.96208101514446,630.4393386511292,0.793037569776102,1058.583124253165,715.1293440000001,64.83251841450988,67.44401285195313,539.128557746276,723.9955804389401,721.6874222284974,158.0,511.9421844774651,671.0266786286368,0.7629237417560069,1101.527629986755,841.3286400000001,83.90090618348336,66.0521487290175,583.7673818103455,781.4784839285768,778.869199569276,151.0,552.5887353372791,727.2493086422184,0.7598339782116366,base
1783776243865269144,1783776253865269144,2084.6845731645576,1724.723712,29.108477655494227,38.106642026585426,1147.6910586714073,1575.0727091704098,1565.0777035690865,79.0,1113.7445935162634,1419.2166932907878,0.7847600713699221,2384.374138434783,1766.790144,29.71490427331702,35.24564913012138,1639.8212380812586,2401.931741969579,2384.208998741836,69.0,1698.422222693906,1983.8619817049898,0.8561191445557274,1006.0250949818183,715.1293440000001,83.90090618348336,69.78891147638463,500.49107817866104,690.1059831147111,687.9987843540189,165.0,487.97862039782126,617.99763081277,0.7896124452063804,1075.5436775225808,757.1957760000001,83.90090618348336,66.1795920015445,528.8759171056086,723.2586790170972,720.9066120434836,155.0,511.4211164850139,654.7088606359379,0.7811428059615011,1104.034900768212,841.3286400000001,83.90090618348336,66.18575490131231,607.5450542439256,827.4570078153841,824.7667284612694,151.0,585.1004613665882,753.0276959892059,0.7769972664789945,base
1783776244865269144,1783776254865269144,2124.8941292307695,1724.723712,36.57218987485172,35.476297820463124,1124.7374988610607,1574.2781699567304,1564.1024189593352,78.0,1113.1827694503522,1382.20148443991,0.805369392221013,2507.414295272727,1724.723712,36.57218987485172,32.65049679948939,1720.193510374541,2527.10493109611,2507.6511960561857,66.0,1786.9330335480224,2078.837798645388,0.8595827123753588,999.0147862994014,715.1293440000001,49.183289831697145,70.16485731488488,496.89472349745927,696.0063778237155,693.9079631038484,167.0,492.1508295082355,610.4936633466484,0.8061522322939888,1074.4580921806453,757.1957760000001,83.90090618348336,66.33038500904459,529.9008519903132,725.676037122245,723.3173982711147,155.0,513.1304467937202,655.6968797903176,0.7825726530188949,1054.8760686878984,715.1293440000001,83.90090618348336,68.60749466726949,588.2852426885337,801.0385941603963,798.4670350549856,157.0,566.419821922955,729.2073410194099,0.7767609979503458,base
1783776245865269144,1783776255865269144,2308.9797120000003,1787.82336,29.71490427331702,32.218827213079784,1184.0765393140148,1733.21498114279,1720.9696301232311,72.0,1225.568066420181,1432.8523856954898,0.8553344912953503,2598.916752,1724.723712,178.28942563990213,34.0751014361744,1852.7351166342073,2716.124365530914,2694.577234427962,64.0,1920.5899574129185,2240.7413801153984,0.8571225463395548,1017.2894470243905,715.1293440000001,79.23974472884538,69.26797154696463,508.1038404535868,700.7409227715683,698.5881514590882,164.0,495.49865834669475,627.3591994668451,0.7898165178223087,1067.2012653248407,757.1957760000001,79.23974472884538,66.20281657486265,512.2318469873167,684.341561035458,682.1446855152309,157.0,483.90255845595993,638.499872432222,0.7578741662275384,1055.654448607595,715.1293440000001,83.90090618348336,68.37941921857866,586.4326895950152,794.9359937749604,792.4003063137495,158.0,562.1046318075415,727.8913313823299,0.7722370188693622,base
1783776246865269144,1783776256865269144,2324.754624,1829.889792,33.17012570044691,29.75961703430428,1097.6850045729154,1670.0939222678553,1658.2926839618237,72.0,1180.9347376540393,1308.6333754071366,0.9024183242205877,2613.377088,1724.723712,37.53461592418993,34.16955135535092,1880.6483043884145,2761.4431281134216,2739.4393279234614,64.0,1952.6351617499924,2273.1660854734805,0.858993618736519,991.9617318323354,715.1293440000001,49.183289831697145,69.93506770721261,468.7352008051898,646.1940502146564,644.2459884425446,167.0,456.9281948691839,578.8209475429838,0.7894119879537566,1053.2684343439491,715.1293440000001,83.90090618348336,66.52332565867283,489.62307134358576,663.7704193724622,661.6404089076557,157.0,469.35656468930654,607.7118655871207,0.7723340472147162,1044.2991744,715.1293440000001,83.90090618348336,68.50328320978856,561.9407278997027,769.0920159409047,766.682865543001,160.0,543.8301798282461,695.4704386951929,0.7819601661985134,base
1783776247865269144,1783776257865269144,2272.171584,1808.8565760000001,57.05261620476868,31.083044667135823,1166.1744647820722,1810.5037609241663,1797.7304887437604,72.0,1280.2194867132257,1378.566210792709,0.9286601373880102,2539.760832,1745.756928,12.849688334407363,34.106035997089904,1615.661518838051,2286.1719377023715,2268.4505824862795,64.0,1616.5676801077364,1978.4030819637594,0.8171073401802095,979.8280623157896,715.1293440000001,83.90090618348336,70.2255909902928,444.1988866991029,623.6606634565121,621.8236619302077,171.0,440.99468428940094,545.3321429218075,0.8086717242204317,1035.5221059622643,715.1293440000001,44.572356409975534,67.92818973714158,483.9039857116615,671.1643641187114,669.0489743539574,159.0,474.58487315909804,596.4149007692088,0.7957294033851535,1044.7820123773586,715.1293440000001,40.75186871769192,68.2650017883469,546.5127630815554,747.2611378075253,744.9080498722141,159.0,528.3934178608763,676.5741632686864,0.7809837362220357,base
1783776248865269144,1783776258865269144,2258.333520657535,1766.790144,35.65788512798043,33.16618356639262,1216.6356838472718,1876.5453160798445,1863.468552281555,73.0,1326.9179182039113,1442.2375648955122,0.9200411572278278,2461.8280577910446,1766.790144,33.9598905980766,34.137550997297105,1511.8994769734174,2162.236409961462,2145.7941608319825,67.0,1528.9320280122054,1844.685199106945,0.8288308643406457,996.7477330778444,715.1293440000001,41.95045309174168,69.26097863325201,447.42761036923525,628.1943275179538,626.2993176874936,167.0,444.2004688908681,549.2958262721598,0.8086725724924403,1033.2242773333335,715.1293440000001,83.90090618348336,68.39300366291674,502.4388586363835,699.3979203801987,697.2224938960877,162.0,494.5490122486076,618.5468863211801,0.7995335894259329,1046.6339936603774,715.1293440000001,41.95045309174168,67.49796801406531,510.4095598481262,690.969166856031,688.779136205526,159.0,488.5889834747186,633.7793308260269,0.770913407412519,base
1783776249865269144,1783776259865269144,2310.098850253522,1808.8565760000001,21.288289628645032,29.9294267361313,1171.5060890916086,1833.6041878141914,1820.4679366055043,71.0,1296.5539552154667,1379.973533863964,0.9395498706305474,2461.200200597015,1766.790144,79.23974472884538,34.77879228412911,1583.6340792430308,2301.422341547664,2284.1172258202796,67.0,1627.351344082576,1921.3686776192021,0.8469750563952423,1019.5979707317074,715.1293440000001,31.00685663302646,68.12492629619334,466.0355312795168,663.1420757482523,661.117663393714,164.0,468.91225865171236,569.5953648626697,0.8232374902923724,1021.4658764171779,715.1293440000001,36.57218987485172,68.9341038479742,495.46031446107145,692.0682286595054,689.9328672148507,163.0,489.36613752889843,609.280098256747,0.8031874648934987,1051.6608,715.1293440000001,41.95045309174168,67.20644257736369,512.8969932735843,696.0958784654039,693.8903640876567,159.0,492.2141160188939,636.3876832670755,0.7734500980471117,base
1783776250865269144,1783776260865269144,2255.1018343783785,1787.82336,35.65788512798043,32.664940824931776,1171.396929425026,1779.011155294057,1766.790144,74.0,1257.950851714942,1397.5411836033973,0.9001171961683893,2318.327808,1787.82336,34.78818061266384,34.768700909561325,1280.7256712334083,1831.5913006943363,1818.647416406926,72.0,1295.130629083254,1562.6371353317238,0.8288108606917995,1025.3370204662576,715.1293440000001,83.90090618348336,67.85271886128032,468.43396477616824,658.2685139065918,656.233675919382,163.0,465.4661300249423,574.9186025966133,0.8096209235927831,999.0147862994014,715.1293440000001,83.90090618348336,69.35241601437382,443.3589331392071,634.2547816498019,632.3465676199929,167.0,448.48585710456797,540.8923230895983,0.8291592207166096,1075.971919792208,778.2289920000001,83.90090618348336,65.6130836207208,518.5357416380798,687.5594364270851,685.3405942821445,154.0,486.1779399663928,647.7454253465047,0.7505694690260714,base
1783776251865269144,1783776261865269144,2265.8248030684936,1808.8565760000001,21.610839471503287,32.544849849111536,1171.6949814086624,1777.0043972956878,1764.6813906910445,73.0,1256.5318595260946,1398.6786985989452,0.8983706270673609,2266.401055561644,1766.790144,22.639927065384395,34.92536628010284,1211.4545144451167,1720.9294008325567,1708.9766642897605,73.0,1216.880849272003,1481.500786525755,0.8213838698835197,1031.406592,715.1293440000001,83.90090618348336,67.66506450224068,479.1088608138924,675.6540079912039,673.5526379351336,162.0,477.75953078645,587.3359484929617,0.8134348527658275,1008.0738945542171,715.1293440000001,57.05261620476868,68.95134910340798,454.2960203318267,645.2384555954781,643.2843082099572,166.0,456.2524874338976,555.595700157823,0.8211951375870874,1077.4434518709677,841.3286400000001,83.90090618348336,64.77342720109797,489.01190882142066,660.6544398216186,658.5223375743119,155.0,467.15323441886636,607.5765151191533,0.7688796765412366,base
1783776252865269144,1783776262865269144,2190.911978958904,1850.923008,19.809936182211345,34.464114655687446,963.9332513634886,1446.9062794690042,1436.9448199319497,73.0,1023.1172419539306,1155.4004417415913,0.8855087855183231,2486.942345552239,2019.1887360000003,8.80441608098282,31.011253611860763,1326.7764694535958,1850.8090132840503,1837.81776706327,67.0,1308.7196039743349,1632.2677779329367,0.8017799662942956,1055.9478249171975,757.1957760000001,41.95045309174168,66.55710502366395,492.54045878341657,699.5690092524662,697.3244995033987,157.0,494.6699903503735,602.3645137294673,0.8212136988078595,1001.6909777454547,715.1293440000001,64.83251841450988,69.33877888910999,454.3675254773551,631.2974971813978,629.3698667358759,165.0,446.39474120306176,559.7013167127228,0.7975588548278907,1081.2733541052633,925.461504,41.95045309174168,64.0627538020813,457.18503994058517,614.793800245162,612.754740874482,152.0,434.72486518480173,568.8088143532736,0.7642723780205073,base
1783776253865269144,1783776263865269144,2231.2035532800005,1808.8565760000001,25.02307728279328,34.34065299324698,1145.5094992903425,1758.938779798381,1747.026951728682,75.0,1243.7575388874266,1360.484332199077,0.9142020304467792,2424.001936695652,1892.98944,22.286178204987767,31.25222320789792,1231.1192373924036,1807.7796220335158,1794.4993127144025,69.0,1278.2932296307529,1488.0498522883554,0.8590392503752249,1063.7180575796178,757.1957760000001,83.90090618348336,66.00873832627008,482.9555174487593,689.9821504960228,687.7671137991472,157.0,487.8910575134147,589.4685926049144,0.8276794788291951,994.0698514285714,715.1293440000001,83.90090618348336,69.82187560512541,451.6770143067003,630.2019547612955,628.312289473643,168.0,445.62007572872994,555.6398334890964,0.8019944735252221,1056.9856648101265,841.3286400000001,83.90090618348336,65.67681221629125,456.4582706366133,597.5537054755962,595.6476281936012,158.0,422.53427726494306,572.2243423109782,0.7384066807757624,base
1783776254865269144,1783776264865269144,2202.437028821918,1766.790144,25.46991794855745,34.05476208918719,979.8301057847177,1473.995356386239,1463.7533371853854,73.0,1042.2721119381915,1173.4430087320532,0.8882170707756856,2400.925909970149,2019.1887360000003,25.02307728279328,31.22647860499484,1177.2296918592845,1703.5641673306607,1691.3587853685708,67.0,1204.6017749059245,1430.456841969362,0.8421098348185783,1068.4873728,757.1957760000001,47.54384683730723,65.6926306461945,484.8873646716854,690.6766301196159,688.4318761222842,155.0,488.38212876465326,592.4297097446726,0.8243714329842403,997.2515226826349,715.1293440000001,64.83251841450988,69.63238210799437,453.94637900016016,623.4695262896948,621.6352580811914,167.0,440.8595299026077,561.2094684355744,0.7855525515838965,1077.172055535484,925.461504,40.75186871769192,64.20588225379802,452.04092250213165,599.1863376364417,597.2417569135384,155.0,423.6887225370602,564.7352693347684,0.7502430705915456,base
1783776255865269144,1783776265865269144,2219.42495232,1766.790144,37.53461592418993,34.16978833868618,1061.3672329640701,1586.5525729677083,1575.7962628505147,75.0,1121.8620830544314,1274.250187256019,0.8804095885363443,2460.572343402985,2019.1887360000003,40.75186871769192,29.043262348151508,1229.392620379284,1820.471869468316,1806.6318235088074,67.0,1287.2680038603978,1481.3112344152114,0.8690057659412692,1048.465881113924,736.1625600000001,83.90090618348336,66.5864414114257,469.3824982232194,665.5037858166779,663.3809613147075,158.0,470.58223985629263,574.3831796305133,0.819282765485937,1003.9855104000001,715.1293440000001,41.95045309174168,70.0845128710417,496.1415376403618,698.7143111581927,696.5944755762214,165.0,494.0656275320454,608.4919297656857,0.8119509945223057,1075.6987611428572,904.4282880000001,83.90090618348336,64.59338648063725,464.93398554527863,654.4001052055013,652.2580369207095,154.0,462.73075200000005,570.3221435353812,0.8113497910699543,base
1783776256865269144,1783776266865269144,2210.45078016,1766.790144,33.9598905980766,34.259027673236034,1053.4395774097438,1527.6604504481209,1518.3892186468327,75.0,1080.219063862362,1279.0751633663285,0.8445313417073881,2405.552734523077,2019.1887360000003,21.610839471503287,29.17734245143594,1111.1803498697157,1674.6934654115496,1661.615743877904,65.0,1184.1871058013055,1329.7721568374527,0.8905188003165996,1061.9077513846155,799.2622080000001,27.96696872782779,65.8981502565783,474.9036712697395,657.6330004717014,655.5244075024194,156.0,465.01675416559607,585.6165154293383,0.7940635926646881,1008.3118548292686,715.1293440000001,41.95045309174168,69.35327897706782,478.0990998372403,666.6436181557834,664.5980083416921,164.0,471.3882230326899,588.2636059823865,0.8013214114197709,1053.536373401274,883.395072,41.95045309174168,65.24240791753702,436.42299249681844,593.0040504729717,591.1025550238325,157.0,419.31718536052796,541.3100828456999,0.774633982718652,base
1783776257865269144,1783776267865269144,2211.898471783784,1766.790144,33.9598905980766,33.68194347304788,995.6684259524261,1518.0995281043772,1507.6696952696645,74.0,1073.4584708387029,1185.9825818997008,0.9051216157991483,2473.757344477612,2019.1887360000003,35.65788512798043,28.83746673888006,1202.3098649900146,1781.5195859749076,1767.981017876965,67.0,1259.7245800595076,1448.324899358415,0.8697803791245636,1026.9922133333334,715.1293440000001,83.90090618348336,67.61971440088416,461.2830043656125,628.5378147297678,626.5827934627827,162.0,444.4433510275926,571.6634272863828,0.7774563314944101,1016.304351018405,715.1293440000001,41.95045309174168,68.17248256665906,460.9314367896546,632.633606259853,630.693459685472,163.0,447.33951299284234,569.9642610722307,0.7848553734777972,1035.3600576000001,862.361856,41.95045309174168,65.93443662480361,421.48335509639173,568.1777970283989,566.3882562147243,160.0,401.7623731984147,524.0132965752024,0.7667026310672191,base
1783776258865269144,1783776268865269144,2116.265117538462,1766.790144,22.639927065384395,37.53700407096324,954.0566882021373,1433.0212228583398,1424.0025267712488,78.0,1013.2990242673709,1143.2676293483767,0.8863183022551916,2386.2031137391305,1766.790144,22.639927065384395,34.54197737137575,1258.1906138062102,1857.7605691487888,1844.0914771906214,69.0,1313.6350962660886,1517.6523509252995,0.8655704947613178,1041.9329376,841.3286400000001,64.83251841450988,66.56635697402979,454.17883675655787,624.2407148528167,622.2760035436826,160.0,441.4048425651647,561.3712799877557,0.7862975152109535,1033.483946666667,736.1625600000001,83.90090618348336,67.2333532045786,466.52461152734156,651.282928442153,649.2571601493158,162.0,460.5265751724794,573.8014143424773,0.8025887766418278,1032.1856,841.3286400000001,49.183289831697145,66.2683261963295,426.14529631290526,569.7547027876973,567.9911760639844,162.0,402.87741395410666,531.0786399414434,0.7586021798928457,base
1783776259865269144,1783776269865269144,2172.703896935065,1766.790144,44.572356409975534,35.47430771449905,971.2692890176166,1503.8161860948878,1493.91953209167,77.0,1063.3586228457864,1149.5052340843556,0.9250576607359341,2391.0803812173917,1892.98944,40.75186871769192,32.2080466747367,1178.5144005268864,1729.571195328234,1716.8067692659247,69.0,1222.991520761517,1424.7590163151133,0.8583848263157989,1020.4335713374235,757.1957760000001,83.90090618348336,67.45077251641895,432.2569333983677,597.7660203897965,595.9182075595371,163.0,422.6844065805211,533.2551538979798,0.792649454001128,1059.4310326624204,757.1957760000001,83.90090618348336,66.43843525316025,504.25357042638285,716.8587859723547,714.5739529486507,157.0,506.8957087142079,616.4995513535031,0.8222158598515379,1037.5515619378884,841.3286400000001,83.90090618348336,66.61065204750841,466.348285370212,617.0402491830956,615.1271809442026,161.0,436.31334446240396,582.9037478499253,0.7485169654025581,base
1783776260865269144,1783776270865269144,2055.542442666667,1766.790144,23.00508717934221,38.58166182647968,914.9268383566703,1362.1949338434308,1353.671702412504,81.0,963.2172750186504,1100.1311192960084,0.875547703472863,2313.65376,1829.889792,20.088949367876296,34.33243543355627,1172.6218845071983,1701.591733378889,1689.612011723427,72.0,1203.2070534831842,1423.4572565674682,0.8452709401226445,1040.8812768,757.1957760000001,50.9398358971149,66.93922004026342,479.61364388738946,685.8622767704413,683.7021264467776,160.0,484.97786686442373,585.1980255705721,0.8287414613054563,1079.071829883871,883.395072,79.23974472884538,65.46457733948002,517.4451737473282,723.5384223578025,721.1854973785856,155.0,511.6189248982185,636.0990909534464,0.8043069581051514,1034.4161757018633,841.3286400000001,62.01371326605292,66.8394289887193,478.0251731788608,637.2729689880223,635.3023615830463,161.0,450.620037838315,596.2272411880034,0.7557857251547899,base
1783776261865269144,1783776271865269144,2114.2479459740257,1766.790144,30.347136279132275,38.87490323720368,1167.4038753523644,1745.1231934536963,1733.6041909573114,77.0,1233.988444097032,1401.5348287834058,0.8804550687963912,2339.723098140846,1892.98944,11.885961709326807,34.27469396261526,1211.116011710501,1723.7490452277825,1711.9391410275496,71.0,1218.8746389444018,1480.127121200128,0.8234932131748958,1014.3938937986577,757.1957760000001,79.23974472884538,68.08702322251891,456.5272690596479,645.2121396665983,643.0744674459489,149.0,456.2338792621335,559.2491560090482,0.8157971708315854,1049.3237760000002,841.3286400000001,95.08769367461446,66.52669904402812,486.18552734121505,691.9143216513652,689.5550534536569,144.0,489.2573088397703,594.1938882768347,0.8233967371468914,1022.6690698378378,778.2289920000001,43.22167894300657,67.55603520317028,469.5062463330109,642.7512585109873,640.5676910677748,148.0,454.4937735093067,581.0249010258195,0.7822277026455876,base
1783776262865269144,1783776272865269144,2185.793946947368,1766.790144,29.71490427331702,39.412481047810815,1239.6864655079578,1864.610311552505,1852.1463544706362,76.0,1318.4785955691373,1484.7397623961726,0.8880199944543062,2408.150817391305,1892.98944,28.52630810238434,32.34713380339024,1251.8564267165787,1814.891887598291,1801.5044662781952,69.0,1283.322360841205,1520.1417319795148,0.8442123085260439,1000.2462720000002,757.1957760000001,79.23974472884538,68.67409625687242,449.63635433238414,640.7169670692424,638.3415168181482,135.0,453.05531223593914,549.2869416816974,0.8248062676474059,1048.7030040000004,862.361856,95.08769367461446,66.53246231603667,487.53134849850034,693.5693269625849,690.8590701191491,128.0,490.42757431823355,595.9144474769001,0.8229831922932936,985.6441366423358,715.1293440000001,43.22167894300657,69.58339884558622,452.4887187768097,618.0793711377676,615.822714303471,137.0,437.0481146430323,560.3450311942125,0.779962505800384,base
1783776263865269144,1783776273865269144,2107.636105846154,1766.790144,35.65788512798043,38.95317528401178,1182.0201699548481,1719.816179722895,1708.6120462549727,78.0,1216.0936830764012,1433.492741994536,0.8483431045380463,2310.6913352112674,1850.923008,35.65788512798043,34.571970589669384,1201.0752794379093,1741.7132314294645,1729.3345960356992,71.0,1231.577236826109,1458.3457781402828,0.8445028986175319,995.454390857143,757.1957760000001,79.23974472884538,68.73581321674055,446.2080151033415,642.7636357466095,640.0342661527902,119.0,454.5025255365475,543.0625310453462,0.8369248466869392,1060.3772678918922,925.461504,95.08769367461446,65.82126956235695,495.14814444097357,709.0794182003241,705.8573624980297,111.0,501.394865009261,603.8583977704135,0.8303186092311181,1003.1226092307694,757.1957760000001,43.22167894300657,68.6607076789261,471.1147472019446,662.7875456702861,659.9249176869637,117.0,468.66156802944795,577.9934060077104,0.810842413007037,base
1783776264865269144,1783776274865269144,2109.7114377721527,1766.790144,22.639927065384395,38.55134200119836,1118.6679677191337,1652.065319034642,1641.4963677571934,79.0,1168.1865900525124,1349.2613125011978,0.8657971433917293,2282.536125369863,1766.790144,23.00508717934221,34.63762450426275,1163.0146495803408,1672.3633565758419,1660.773346984771,73.0,1182.5394700426739,1416.3355362245777,0.8349288991186955,1004.596376079208,757.1957760000001,79.23974472884538,68.59933440065892,465.14469527402156,671.2677816764967,667.9031421757097,101.0,474.65800041550176,565.7464683088207,0.8389941908685553,1041.582384,925.461504,95.08769367461446,66.46829972772376,468.85903411942724,659.5858463327011,656.1057556360184,96.0,466.397624716521,575.2340528690892,0.8107962704750774,1017.1663257600002,757.1957760000001,43.22167894300657,68.45405712845715,497.1035681970389,706.2236533467176,702.6606622194712,100.0,499.37553431580164,607.894688981455,0.8214836276206322,base
1783776265865269144,1783776275865269144,2052.7353843037977,1766.790144,21.943313924911035,41.8604257171421,1130.9972262544945,1624.9164746979675,1614.7492053826218,79.0,1148.9894581206718,1377.7594362422283,0.833955063486616,2232.931687783784,1808.8565760000001,29.108477655494227,34.78905044249165,1078.3429527792296,1549.5153567685666,1538.8764297933537,74.0,1095.6728163237458,1313.5439038729733,0.8341349026044456,999.6963840000003,757.1957760000001,79.23974472884538,68.48626811660932,462.4414347486099,658.1521348644605,654.2230249410751,85.0,465.3838376150632,565.1664383064902,0.823445636668689,1056.9856648101265,925.461504,95.08769367461446,65.74229897063668,482.24292176455145,679.6538628815936,675.2839145959042,79.0,480.58785530320677,591.2986790544645,0.812766664846447,999.6963840000001,757.1957760000001,43.22167894300657,68.5068655239732,453.09942380214386,593.3114009548591,589.8236394586041,85.0,419.5345149704715,567.9732133418927,0.7386519383581067,base
1783776266865269144,1783776276865269144,2068.0909632000003,1766.790144,22.286178204987767,39.28387878520507,1090.7832019330488,1579.0954441656806,1569.1213827387503,80.0,1116.589096710336,1325.2284262693834,0.8425634966596796,2205.96369408,1850.923008,23.00508717934221,34.71577833515921,981.6181851938201,1409.5934561292308,1400.0876744378127,75.0,996.7330915451614,1195.9975314003914,0.8333905926863314,1014.6172255522388,757.1957760000001,79.23974472884538,67.54308391396307,428.6526317132925,590.614568638495,586.1234844634462,67.0,417.6275665518475,529.4145494576574,0.7888479207450445,1050.346224,925.461504,95.08769367461446,66.75208558343782,508.06781207626733,705.9696568682258,700.3455842238913,64.0,499.19593168346256,625.8334556663382,0.79764980149864,1017.7565115223879,757.1957760000001,43.22167894300657,67.42659174663056,436.7523176326609,627.3220469311548,622.5909453512503,67.0,443.58367337284517,532.0920374084994,0.8336596719869643,base
