window_start_ns,window_end_ns,red_Mean_NN,red_Median_NN,red_Heart_Rate,red_Mean_HR,red_SDNN,red_SDSD,red_RMSSD,red_NN_Count,red_SD1,red_SD2,red_SD1_SD2,infrared_Mean_NN,infrared_Median_NN,infrared_Heart_Rate,infrared_Mean_HR,infrared_SDNN,infrared_SDSD,infrared_RMSSD,infrared_NN_Count,infrared_SD1,infrared_SD2,infrared_SD1_SD2,ppg0_Mean_NN,ppg0_Median_NN,ppg0_Heart_Rate,ppg0_Mean_HR,ppg0_SDNN,ppg0_SDSD,ppg0_RMSSD,ppg0_NN_Count,ppg0_SD1,ppg0_SD2,ppg0_SD1_SD2,ppg1_Mean_NN,ppg1_Median_NN,ppg1_Heart_Rate,ppg1_Mean_HR,ppg1_SDNN,ppg1_SDSD,ppg1_RMSSD,ppg1_NN_Count,ppg1_SD1,ppg1_SD2,ppg1_SD1_SD2,ppg2_Mean_NN,ppg2_Median_NN,ppg2_Heart_Rate,ppg2_Mean_HR,ppg2_SDNN,ppg2_SDSD,ppg2_RMSSD,ppg2_NN_Count,ppg2_SD1,ppg2_SD2,ppg2_SD1_SD2,label
1783419167961510601,1783419177961510601,1269.9914666666666,1179.3689600000002,142.44906021606675,59.5741526522052,585.1538357482733,771.2965804844519,768.3858101554333,132.0,545.3890423665516,732.1785432632415,0.7448853116287879,1609.1597980582526,1642.69248,21.583190941828292,51.0021237390372,768.6997255880245,1056.3584759791445,1051.1812015334838,103.0,746.9582417287397,950.1711576315939,0.7861301995217528,927.5830471111112,716.04544,94.96604014404448,73.93558787707079,467.4435510065584,668.1023402831618,666.2336851064247,180.0,472.419695340826,570.453120319525,0.8281481483986133,1030.647830123457,716.04544,44.515331317520854,67.68170453966316,463.1492227635312,640.7413290472629,638.7604041623292,162.0,453.0725387558005,571.2941820162472,0.793063456653433,982.146755764706,716.04544,94.96604014404448,70.41580675986864,461.8466952457516,539.5792221874702,537.9806963486536,170.0,381.54012699612304,594.8262818375929,0.6414311852822536,base
1783419168961510601,1783419178961510601,1289.0777004651163,1179.3689600000002,18.74329739685089,59.42775916838741,610.3000953269882,789.0248435937543,786.1764356898358,129.0,557.9248174297987,767.6538033255777,0.7267922271899061,1566.796431698113,1600.57216,129.49914565096975,52.445339112825025,766.2661898845438,1063.5585113592565,1058.4894321005543,106.0,752.0494355708,944.2132019566196,0.7964826524479709,934.2192323595505,716.04544,43.166381883656584,73.86735314776946,482.6630875338112,683.3929639728311,681.4607797040348,178.0,483.2317990403629,590.9067831168045,0.8177800845194266,1003.995264,716.04544,43.166381883656584,68.83042106217172,447.4138001471332,606.834996463829,604.9875124161545,165.0,429.0971410608881,555.2441254897559,0.7728080701122245,970.501726117647,716.04544,50.874664362880964,70.85651327117206,447.6714207408398,515.7375610859865,514.2154864402819,170.0,364.6815267565123,578.206791656336,0.6307112472889544,base
1783419169961510601,1783419179961510601,1333.69781248,1263.6096,39.56918339335187,57.725229569950756,614.5615856558653,838.3250479479758,834.9514049816657,125.0,592.7853262425513,761.3636868300582,0.7785836604719305,1591.2570892307692,1621.63232,34.74367322343091,51.193775071787954,765.6702183321161,1053.7672231023164,1048.6396905772783,104.0,745.1259492477656,945.9891259207521,0.7876686198929803,931.5885300558659,716.04544,44.515331317520854,73.89712630093392,472.65748566067145,680.6145139189067,678.6999826610079,179.0,481.2671381660448,575.327009936843,0.8365105928520136,975.1716191812867,716.04544,94.96604014404448,70.54145524578249,436.55797552849316,570.6979394327659,569.032529518877,171.0,403.54438298209834,547.4867098632365,0.7370852583488369,975.1716191812866,716.04544,44.515331317520854,70.38600754679454,437.4177163447138,543.301023240643,541.700722199682,171.0,384.1718377590486,555.7648033843693,0.6912489517501053,base
1783419170961510601,1783419180961510601,1422.3708061538462,1347.85024,101.74932872576193,55.39277817561733,672.5708394972842,938.6986426993112,934.7403244349757,117.0,663.760175743291,827.2933475090808,0.8023274667224436,1686.9617959183677,1684.8128,20.94839120824511,49.203203344349454,812.3731833727655,1159.8341802159973,1153.8453942944125,98.0,820.1266138826719,991.7643604844214,0.8269369686586499,986.9613443786983,716.04544,89.03066263504171,74.30931697305807,690.2700076655672,980.9948048829516,978.0754471065037,169.0,693.6680788415092,844.0128347148574,0.821869111831527,1049.0343849056605,716.04544,89.03066263504171,69.3791067018573,608.2029846978014,844.280127290368,841.6396211561832,159.0,596.9962032280607,749.412775348985,0.7966186631260093,1042.47792,716.04544,89.03066263504171,69.70723386532481,680.908986529889,908.3204779021061,905.4651991148065,160.0,642.2795694151847,849.1245922891667,0.7564020348105269,base
1783419171961510601,1783419181961510601,1355.3839557723581,1263.6096,118.70755018005562,58.43680956686019,636.3693569776949,894.5739848156654,891.0296567410982,123.0,632.5593309362285,780.9393468273738,0.8099980280236224,1643.5265457425744,1642.69248,29.676887545013905,49.94023737838281,811.3598265072563,1152.197026108472,1146.438975625831,101.0,814.7263304242742,992.330609926182,0.8210230766587766,964.0597948235295,716.04544,94.96604014404448,74.22434935326609,569.8104132517227,793.5396050263713,791.3159020962999,170.0,561.1172358542417,701.3854417606952,0.800012664143218,1028.788816,716.04544,94.96604014404448,70.67070292426642,641.1148202991637,895.5402837217532,892.7198346153763,160.0,633.2426074453765,788.3897041897163,0.8032101435117098,1051.377536,716.04544,29.071236778789128,69.53461429050824,689.2199052331679,942.325131122395,939.2606908580264,155.0,666.3244902991481,853.2607997283269,0.7809153901260926,base
1783419172961510601,1783419182961510601,1364.7674177049184,1305.72992,94.96604014404448,57.97983450555683,634.0093081194489,894.7171315104575,891.0256103467573,122.0,632.6605509348205,777.0494959844123,0.8141830786896384,1682.2600533333336,1684.8128,64.74957282548488,50.59913597724546,891.7793842311158,1271.5347766896932,1265.206011866475,99.0,899.1108631118044,1089.1927139842744,0.8254837289746924,936.6416922033897,716.04544,94.96604014404448,75.30929025329492,537.9627199421766,774.7794378549085,772.5872340699357,177.0,547.8517944311071,654.7801018391422,0.8366958508548206,994.6485204819277,716.04544,94.96604014404448,73.01122279650714,646.842969492259,888.6760966951384,886.0267063153278,166.0,628.3888942515244,799.6095004149215,0.785869720063919,1029.7240963975157,716.04544,94.96604014404448,70.73918527071055,683.6917584938391,946.1237528893154,943.1625186622633,161.0,669.0105215097002,843.2563680871052,0.7933655135357293,base
1783419173961510601,1783419183961510601,1383.6525120000001,1326.79008,79.13836678670374,57.156768628703816,628.7569987741388,864.2067404549496,860.6064643417707,120.0,611.0864465228175,777.1469645137801,0.7863203157528152,1677.2311424000002,1600.57216,45.9513097471183,49.15109007542196,899.730365143849,1302.5773344785507,1295.9904140423537,100.0,921.0612662296809,1093.0931030106522,0.8426192276694889,907.669752967033,716.04544,83.79356483298044,76.73698646521473,517.3563770173257,730.2192674808729,728.2745852425427,182.0,516.3429957887986,634.0427406972742,0.8143662290352256,969.5020167441862,716.04544,94.96604014404448,74.43006492993403,641.3388242573426,868.0804989069717,865.6820785493288,172.0,613.825607392921,796.3918864817351,0.7707582382646472,1030.5089470807452,716.04544,27.931188277660137,71.02112760136278,691.5790844260928,952.1720035828633,949.2036299461166,161.0,673.2872805894243,854.3449999441177,0.7880742330480821,base
1783419174961510601,1783419184961510601,1358.4659304065044,1305.72992,49.12036559174714,58.851947574962246,644.578608277217,899.0737748640702,895.3847260264866,123.0,635.7411629933714,793.0193890032612,0.8016716511716424,1658.6982016,1579.512,29.071236778789128,48.47742184996851,868.4828714292003,1265.545830720285,1259.1414846829641,100.0,894.8760388046761,1052.6744195231704,0.8500976391257117,887.9053552941177,716.04544,94.96604014404448,77.38693893700348,480.2832406854005,669.3918614116878,667.5900342053048,187.0,473.33152447529005,591.0352075261588,0.8008516556170483,954.243111724138,716.04544,94.96604014404448,75.08079271934831,639.8554638137124,851.2432398690486,848.7794686372079,174.0,601.9198673506111,798.546345423253,0.7537694847649398,976.6958908235295,716.04544,94.96604014404448,72.57542454501593,536.7497228128119,725.1242339525588,722.9757559404583,170.0,512.740263030555,666.8952250638323,0.7688468049557226,base
1783419175961510601,1783419185961510601,1368.56515147541,1305.72992,35.61226505401669,57.9635408660936,642.111477376379,896.5849933634064,892.8995524514359,122.0,633.9813287173604,789.7139584532092,0.8027986867031223,1606.242203076923,1495.27136,35.61226505401669,50.34405918644844,854.6681818497079,1217.3303606886304,1211.4289398150197,104.0,860.7825529871964,1044.2423571034615,0.8243130027543134,860.30208,716.04544,83.79356483298044,78.65031506058419,453.1112779043641,648.9758073252057,647.2930766830303,193.0,458.89519418566726,552.5642593444686,0.8304829464179875,948.7902939428571,716.04544,89.03066263504171,75.1498464388151,633.027158663871,837.8003743738622,835.3995689169008,175.0,592.4143260003862,791.1822801269385,0.7487709733657563,969.5020167441862,716.04544,43.166381883656584,72.99630756094126,534.4852621909006,719.4622963687741,717.3555208462882,172.0,508.73666857040575,664.7875540535442,0.7652620231356353,base
1783419176961510601,1783419186961510601,1360.863021788618,1305.72992,40.699731490304785,58.0007613452375,630.4944908972134,879.7364522107666,876.1268894555134,123.0,622.0676110152282,775.6046349567387,0.8020421526360858,1585.8697841509436,1432.09088,14.838443772506952,51.82078163529358,884.231397759266,1234.078983746815,1228.3723630245142,106.0,872.6256179271761,1087.6546304021408,0.8023002831372478,870.9253666666667,716.04544,83.79356483298044,78.35454405193214,460.9213781420049,649.8724934562389,648.1690239641805,192.0,459.52924702951674,565.0782859205376,0.8132134227754358,955.529545142857,716.04544,83.79356483298044,75.07532265413111,648.667658672051,875.0208874436653,872.5028365037942,175.0,618.7332031912864,806.3027188646246,0.7673708505690523,1013.4404266666667,716.04544,83.79356483298044,72.10230173885755,624.7746902049894,819.5768975022886,817.0743667824213,165.0,579.5283819277003,782.7900448470277,0.7403369342043067,base
1783419177961510601,1783419187961510601,1435.7219420689657,1432.09088,35.61226505401669,54.78863548571809,658.0709973326939,933.9547430583671,929.8878008727697,116.0,660.405732137911,805.0136704060296,0.820365860128584,1542.2219919266054,1432.09088,36.525400055401725,52.061818332552456,831.4523084752128,1185.7342410463218,1180.2322220486947,109.0,838.4407225289384,1015.4479109930243,0.8256856047978006,881.4231174736843,716.04544,83.79356483298044,78.24472446183674,501.83707942199914,690.8073380842842,688.9877980962048,190.0,488.47455325282533,619.9816239033461,0.7878855346992955,944.9392932571429,716.04544,43.166381883656584,76.51422226691305,719.1783463593272,1005.083501860731,1002.1911984751522,175.0,710.7013598244448,884.2436181936034,0.8037393148240264,1027.4257197546012,716.04544,43.166381883656584,72.82398004664459,799.840334137689,1075.2420554948378,1071.9273828579624,163.0,760.310948857362,995.2149269131712,0.7639665848015322,base
1783419178961510601,1783419188961510601,1377.8868616393445,1432.09088,94.96604014404448,57.21373900005641,626.2567494622552,885.6616050613146,882.0118388784333,122.0,626.2573267754175,767.004506391008,0.8164975845085327,1462.0184757894735,1389.97056,118.70755018005562,55.56016805253275,811.801981401566,1103.976022024137,1099.5921767644054,114.0,780.6289314406166,1006.6549308049692,0.7754682439357731,866.84928,716.04544,83.79356483298044,78.86740827604457,481.4274304278282,656.1875036133042,654.47645114788,193.0,463.9946335348395,596.5729054877683,0.7777668567691145,924.3199504972376,716.04544,39.56918339335187,77.75170608594635,736.3460233868374,1010.8337263346447,1008.0317490862328,181.0,714.767382543294,910.4750006130437,0.785048883343337,984.1288884705883,716.04544,83.79356483298044,74.88707239265493,776.4669354981097,1048.0824427569632,1044.9770064710428,170.0,741.1062025160102,964.9780319467385,0.7680031855449692,base
1783419179961510601,1783419189961510601,1377.7869963636365,1432.09088,83.79356483298044,57.203026621229526,630.667417188236,918.9616895154285,915.1441257367163,121.0,649.8040423070061,764.4345200908305,0.8500453933317873,1418.8836610169492,1389.97056,41.89678241649022,55.88684331377744,778.9354147178382,1041.5652721967215,1037.3685420908585,118.0,736.4978670187139,970.703974722337,0.7587255087004089,858.1745197948719,716.04544,83.79356483298044,78.90513388823997,430.96524654152773,557.4880889402106,556.0494076026042,195.0,394.203608120352,541.9998571269623,0.7273131218335555,899.6990933333333,716.04544,83.79356483298044,77.34398232945799,608.0900846475282,855.4790141494019,853.1637757657971,186.0,604.9150120678246,746.0469262591783,0.8108270281347902,967.3065396531794,716.04544,83.79356483298044,76.44159172226367,911.6420306421381,1295.5234669823017,1291.75192050216,173.0,916.0734286894918,1114.7139187662374,0.82180137277141,base
1783419180961510601,1783419190961510601,1349.8883199999998,1347.85024,47.48302007202224,57.389616036018836,607.7493107490812,887.349697713041,883.7354890235275,124.0,627.4509885367244,736.1189291983397,0.8523771956523944,1424.5308225641027,1389.97056,24.991063195801175,55.92957291162276,755.3487812323389,1059.591218244327,1055.0321870968407,117.0,749.2441357062786,927.588365156245,0.8077334341942445,853.796078367347,716.04544,79.13836678670374,78.96156612528564,418.74080199623353,565.0118485508526,563.5718349746838,196.0,399.5237095610545,520.459528937827,0.7676364584512789,880.7580597894738,716.04544,79.13836678670374,77.97130578335246,577.7480046091734,806.6226404473514,804.4859188456305,190.0,570.3683389189205,710.5810950477072,0.8026787412358992,919.4726997802197,716.04544,79.13836678670374,76.75387388836025,629.9304174014973,805.3748008591839,803.1469608692647,182.0,569.4859830842943,794.6493057132225,0.7166507023789103,base
1783419181961510601,1783419191961510601,1352.6444227642278,1389.97056,33.916442908587314,57.05943701396843,609.4325541485208,862.4790689186891,858.9454411309831,123.0,609.8647982638647,746.2228487732517,0.8172689958052719,1366.8389088524593,1389.97056,47.48302007202224,57.99757274828116,666.8190668574443,912.8012248713095,909.0430881741437,122.0,645.4479359818896,825.2234950712594,0.7821492478545513,836.0245333333332,716.04544,83.79356483298044,79.62679333421046,391.2004863117681,528.5030690896843,527.1599841507497,198.0,373.7081040312183,486.05222710303855,0.7688640915372159,873.7209834554973,716.04544,83.79356483298044,78.36087556844643,517.4065945048903,722.343004838443,720.4395944026369,191.0,510.77363706393015,636.375921853222,0.8026287914484269,896.07584,716.04544,83.79356483298044,77.98030510229036,639.2441218486044,836.08754474345,833.8247867521642,186.0,591.2031725537045,801.5644072794177,0.7375616571602794,base
1783419182961510601,1783419192961510601,1365.1126662295082,1347.85024,43.166381883656584,55.3852948135948,608.3543631597104,863.0886594779083,859.5159058854689,122.0,610.295843882036,744.2845919546302,0.8199764585738438,1366.8389088524593,1389.97056,20.349865745152393,57.07219734023937,671.9227890708153,951.3158182930323,947.4267431483914,122.0,672.6818661650326,822.6238644798552,0.8177271474981693,856.7359934020619,716.04544,89.03066263504171,78.64236889334623,428.2753266744285,591.3821647784304,589.848137289797,194.0,418.1703389876083,528.5889657112332,0.7911068261232939,886.7671625531914,716.04544,50.874664362880964,77.42314393063748,520.7124115104782,729.1814790986289,727.2334031633865,188.0,515.6091685862772,639.809677667507,0.8058789771139196,887.8873838297873,716.04544,43.166381883656584,77.58843859862456,575.5649183924869,732.3118466210337,730.3511688144725,188.0,517.8226726889759,726.9661549157038,0.7123064384600142,base
1783419183961510601,1783419193961510601,1348.5296000000003,1305.72992,39.56918339335187,56.050993506385474,615.4406815777958,866.0856346168483,862.5577762278979,124.0,612.415025325828,754.988995588324,0.8111575518376987,1338.07832576,1389.97056,39.56918339335187,56.96396584529608,610.1032685073918,855.539398043496,852.0826590666011,125.0,604.957709928813,749.309736414554,0.8073533287096131,857.3105132307693,716.04544,83.79356483298044,78.63198411548255,436.9387099045603,609.8993156880477,608.3253793462554,195.0,431.26394196405346,537.435185493968,0.8024482832616731,889.2316493617022,716.04544,83.79356483298044,77.67758834330036,565.0081450616657,796.9777907310339,794.8439775559247,188.0,563.5484002809873,692.5857407154862,0.8136875583069398,884.5267200000001,716.04544,83.79356483298044,77.64021869679317,561.1821580214686,695.6896585942386,693.8369531515398,189.0,491.92687519334027,713.3405944529744,0.6896100951195335,base
1783419184961510601,1783419194961510601,1286.9377772307694,1221.4892800000002,74.97318958740355,57.63691952400533,562.5681630944017,811.0468337873604,807.8971914275476,130.0,573.4967160309212,684.4827496772239,0.8378541552747101,1348.8692800000001,1389.97056,118.70755018005562,56.584792885173755,616.5290421131131,894.8988815129516,891.2602357698134,124.0,632.7890675940647,748.3348966235255,0.8455960966797063,901.1471705945945,716.04544,83.79356483298044,77.29765019487759,574.0768260838167,819.1611857885448,816.9321716274744,185.0,579.2344293558933,700.9794165432489,0.8263215947370914,935.3534748603352,716.04544,31.655346714681496,75.98173755156502,634.0044155640736,877.6361811704409,875.1925190389476,179.0,620.5824951202841,781.8963366614697,0.7936889661998402,899.6350956521738,716.04544,83.79356483298044,76.67082548560786,569.5150973322847,700.3123075232478,698.3962647875878,184.0,495.1955815980874,725.3175581506829,0.6827293452824588,base
1783419185961510601,1783419195961510601,1307.0565442519687,1221.4892800000002,59.35377509002781,56.93199983428461,562.854875844141,807.4486845140759,804.243767693116,127.0,570.9524402800603,686.0159458731035,0.832272841053862,1388.2155466666668,1389.97056,178.06132527008342,55.48832405454739,636.082481678916,943.2612026805483,939.3346401983525,120.0,666.9863928455941,766.0068034143225,0.8707316826334118,935.7931666285714,716.04544,89.03066263504171,76.5952786880885,704.3862878820422,1018.6194197459683,1015.697481014398,175.0,720.2726991506805,856.1096334825248,0.841332314204572,918.6465322905029,716.04544,89.03066263504171,76.56389630203961,604.1242297324424,818.5269388815966,816.2245018452411,179.0,578.7859490670437,749.9570537576898,0.7717587909427794,890.3830211764705,716.04544,89.03066263504171,77.06304375028517,561.5509204467405,685.4163962112692,683.7397561335107,187.0,484.66258169743395,716.4007003488704,0.6765244387134387,base
1783419186961510601,1783419196961510601,1331.0021119999997,1263.6096,40.699731490304785,55.90475106441936,566.367890396509,834.1480812498982,830.8028405386665,125.0,589.8317647655502,683.8087592164657,0.8625683084864285,1384.6612759663867,1389.97056,22.97565487355915,56.14511496296638,646.1474471716474,954.7903100550852,950.7601701771482,119.0,675.138702851157,779.1706571278864,0.8664837371312167,953.7589701149426,716.04544,94.96604014404448,75.88019175663425,733.6797228753463,1018.5267667117388,1015.5788106486326,174.0,720.2071835618792,904.0036935155866,0.7966861072890755,937.5935638418077,716.04544,94.96604014404448,76.42584293004725,680.697096221836,940.3685402718924,937.6932637114362,177.0,664.9409716407501,840.0141818602865,0.7915830303819145,872.6183572774869,716.04544,94.96604014404448,76.98227428709532,432.4124885831174,554.8949631250318,553.4329643669238,191.0,392.3699912719692,544.9623982807499,0.7199946134078609,base
1783419187961510601,1783419197961510601,1332.3499622399997,1305.72992,54.78810008310258,55.887262568833684,565.0156832914731,835.226714072351,831.8526710562538,125.0,590.594473348717,681.2374980545598,0.8669435769981891,1364.907229090909,1389.97056,44.515331317520854,57.646863256792656,651.0412414104708,974.4819670981626,970.4141467661084,121.0,689.0628070791169,781.2205962368745,0.8820335899979084,956.663819770115,716.04544,89.03066263504171,75.30163623201982,672.902014022571,893.4868314516294,890.9092737183146,174.0,631.790597420329,840.2467265374479,0.7519108107970375,940.4491787570621,716.04544,89.03066263504171,76.30085552487564,681.6068464689549,943.0598653827169,940.3769320336421,177.0,666.8440258769917,840.7349813602322,0.7931679312285772,885.4228970212766,716.04544,89.03066263504171,76.24748343405331,440.79324703614867,561.7768653990472,560.2728199831969,188.0,397.2362310373887,556.506120039077,0.7138038859473735,base
1783419188961510601,1783419198961510601,1340.3772800000004,1305.72992,101.74932872576193,55.86977701251856,578.7484242135644,831.2736577669461,828.1340969760249,124.0,587.7992404287529,705.0854583205204,0.8336567340771179,1398.610625641026,1389.97056,64.74957282548488,56.8899661872584,671.1174181034427,1040.938453641559,1036.4435283481562,117.0,736.054639367785,793.6680425065899,0.9274086897125802,962.6806085549133,716.04544,94.96604014404448,75.53834801770572,740.0689668428555,1020.03179958365,1017.0623863188615,173.0,721.2714025115164,913.9408806521559,0.7891882481466882,915.0755235164834,716.04544,94.96604014404448,77.15621264574233,653.6078077910115,908.0780393903183,905.5747032870156,182.0,642.1081394994789,805.1427832409619,0.7975084082785721,900.2364609729728,716.04544,94.96604014404448,75.75493709789026,459.61760281727766,591.3424515022664,589.7335311276167,185.0,418.1422574607297,578.8568112252149,0.7223587065956519,base
1783419189961510601,1783419199961510601,1330.8662400000003,1305.72992,158.27673357340748,55.739885136797426,564.9992281623475,798.736649379086,795.5409107239399,124.0,564.7921011581735,692.0644456138205,0.8160975538300282,1430.982450526316,1389.97056,20.94839120824511,56.87138031434561,713.1004010687556,1105.0496037846722,1100.2059677421357,114.0,781.3880683836492,843.6472647396392,0.9262023372111517,951.9192320000001,716.04544,89.03066263504171,75.94875432766776,732.2655843163203,1011.2181995365778,1008.3123973759836,175.0,715.0392461515654,903.7616998853982,0.7911811777841837,895.6229333333334,716.04544,89.03066263504171,78.15498320132207,639.3871880109682,885.8634325702549,883.4744413000889,186.0,626.4000403756191,788.3168443550206,0.7946044092056952,906.3924598907104,716.04544,89.03066263504171,75.49826866440907,465.37746712872337,586.3172082329331,584.7042279878079,183.0,414.58887386787205,589.2456250620593,0.7035926211997036,base
1783419190961510601,1783419200961510601,1319.3278185826775,1305.72992,101.74932872576193,55.09523070123298,533.2041462197549,754.6791393674524,751.6844361279244,127.0,533.6387370667532,652.8615260855673,0.8173842625806866,1414.9571905084745,1389.97056,41.89678241649022,56.21159084745085,680.4241715310973,1047.9227860833846,1043.4388480613718,118.0,740.993308199461,807.1050520281542,0.9180878081947789,939.6617456179774,716.04544,83.79356483298044,76.81157476867696,729.8887775588969,1008.6515534631707,1005.7982194483418,178.0,713.2243533081535,900.6279843181229,0.7919189340403906,896.2393223529411,716.04544,83.79356483298044,78.19794265376149,641.5987826755338,890.8070546408129,888.4110318487366,187.0,629.8957090653342,790.5148282682582,0.7968170697635308,909.0206017391304,716.04544,83.79356483298044,75.61105801734462,479.9908851950263,601.3229810539535,599.6777714563832,184.0,425.1995575865604,608.5927767027033,0.6986602106752735,base
1783419191961510601,1783419201961510601,1322.3127231496064,1305.72992,29.676887545013905,55.07943552036873,534.319352005934,748.407412231391,745.4679031033681,127.0,529.2039562790925,656.4799510916997,0.8061235615787621,1447.7044468965519,1411.03072,36.525400055401725,55.576256733592544,708.9223818607389,1104.5081943652613,1099.7111138851637,116.0,781.0052341117854,836.7540254765461,0.9333749349660903,901.6025254054055,716.04544,83.79356483298044,77.55350190343708,619.6204091852138,805.4661810164416,803.2744648612841,185.0,569.5505986131571,778.2447948861596,0.7318399073860431,882.5103217021277,716.04544,83.79356483298044,78.77952087550699,615.5091095782806,850.1270468383544,847.8509328560608,188.0,601.1305996894941,759.6209113802556,0.7913560444211845,889.9037821276596,716.04544,83.79356483298044,76.66799212344702,469.4458660635491,581.0699590080892,579.5254191263826,188.0,410.8785083584091,596.9491335221919,0.6882973527980412,base
1783419192961510601,1783419202961510601,1266.8005333333333,1242.5494400000002,38.49974600434236,58.810231535864595,538.1620921812913,721.7220070387082,718.9804708777191,132.0,510.3345253086357,670.0867190602229,0.7615947470565676,1391.0324168067225,1389.97056,38.49974600434236,57.6965981050801,661.2561059635876,973.8998533277587,969.7833640592453,119.0,688.6511904846421,798.3727477001563,0.8625685088430372,928.9870577777777,716.04544,83.79356483298044,77.3976756817148,688.9889397853117,922.0428086684459,919.4636628927915,180.0,651.9827225537485,858.4117794151456,0.7595221060432773,904.1069768648648,716.04544,18.262700027700863,78.28145221081616,652.4957978990258,857.5669906411014,855.3437534211165,185.0,606.3914344040634,817.0962285388813,0.7421297678590477,928.987057777778,716.04544,83.79356483298044,75.67820519066322,580.5496588301987,701.8033791544715,699.8402889338555,180.0,496.2499284597605,742.2558972400028,0.6685698696433554,base
1783419193961510601,1783419203961510601,1240.5214245925927,1221.4892800000002,79.13836678670374,61.01250033231697,553.593163868376,736.502587842703,733.752596570127,135.0,520.7859742250162,690.8847709197588,0.7537957068176592,1445.5258096551727,1432.09088,18.031526609628703,57.53459237697459,716.1337501560661,1045.5952057830966,1041.1475155170697,116.0,739.3474603853712,867.3971193380992,0.8523748164503461,927.3529671508379,716.04544,44.515331317520854,76.78243799358818,664.5345830934634,875.624621695457,873.168752098842,179.0,619.1601077747629,831.5845144809867,0.7445546387563465,906.756888888889,716.04544,83.79356483298044,77.79106034668457,648.5094432176244,836.0406370050949,833.7020572158104,180.0,591.1700037738235,816.3259209432805,0.724183795475605,913.4555112087912,716.04544,83.79356483298044,76.27422430128841,564.9919249609633,669.4160864986876,667.5683655801404,182.0,473.34865419858244,725.5358546111866,0.6524124909750314,base
1783419194961510601,1783419204961510601,1245.0640859701493,1221.4892800000002,142.44906021606675,61.52617303953711,572.2695428883461,790.7536122199974,787.8720619751671,134.0,559.1472414485178,706.1600672832823,0.7918137365082851,1402.3588894117652,1432.09088,118.70755018005562,59.83315274347237,706.987777744312,1019.8495487788246,1015.591475514365,119.0,721.1425317315475,860.0233486502493,0.8385150622518955,916.9269661538463,716.04544,54.78810008310258,77.07067195917192,651.9113405980752,865.8805523037005,863.4878440928863,182.0,612.2700102314997,813.9652998048006,0.7522065257306791,919.3524594413409,716.04544,29.071236778789128,77.44768883303551,663.6391853940219,860.4314717470261,858.0445379854509,179.0,608.4169284186435,834.1153142028346,0.7294158470164387,937.5320665168539,716.04544,25.899829130193947,75.57538663027388,599.4463075357501,687.5325044324974,685.6472050009605,178.0,486.15889617038897,774.9171020655593,0.6273689080735492,base
1783419195961510601,1783419205961510601,1219.3213223529413,1200.4291200000002,40.699731490304785,62.981493585616136,576.096671820002,795.8200481932282,792.8869774741706,136.0,562.7297526816367,710.9446977702262,0.7915239461614328,1447.4739533913043,1432.09088,36.525400055401725,57.148016000784665,738.309752363959,1080.985064130534,1076.2357416034208,115.0,764.3718692080756,893.3478626230306,0.8556262360820363,905.8157947826087,716.04544,44.515331317520854,76.57117652735631,528.5278199677865,651.662663035661,649.8901590033914,184.0,460.7950880786,672.6940287836064,0.6849995218655783,948.5496064000001,716.04544,44.515331317520854,75.60932358126598,622.9121201438364,752.5178596315532,750.3523361213079,175.0,532.1104815094577,796.5351445969382,0.6680313921097802,923.8233313966481,716.04544,83.79356483298044,76.02869926966406,577.6730931105045,643.4764042207889,641.6663404263694,179.0,455.0065289580558,750.9307120570354,0.6059234515946882,base
1783419196961510601,1783419206961510601,1179.0681005714287,1179.3689600000002,41.89678241649022,64.24008599169605,540.738460517949,734.7593909945762,732.1126041754189,140.0,519.5533479127627,670.6924218320667,0.7746521818355249,1434.6108991452993,1432.09088,29.676887545013905,58.71184982904664,759.2400071153204,1102.9412973510046,1098.2591271868425,117.0,779.8972706075836,921.2876317732505,0.8465296219232581,905.1290504347828,716.04544,83.79356483298044,76.06307910833088,499.1127856326801,655.3404224854083,653.5791966336709,184.0,463.3956567250892,625.187474465211,0.7412107178274493,961.4207925581394,716.04544,89.03066263504171,74.65539407385937,616.2241332845038,773.5568502947469,771.2917109705329,172.0,546.9872944767225,780.9396998008191,0.7004219334940113,936.8796601129944,716.04544,89.03066263504171,75.12817841939332,569.160796736264,641.4735126927486,639.6614871716121,177.0,453.5902707765974,738.2519611970728,0.6144111964715983,base
1783419197961510601,1783419207961510601,1142.1530608219177,1116.1884800000003,94.96604014404448,66.40169691380655,523.319608191682,749.0095049407679,746.4231494169849,146.0,529.6297001167959,638.3361301171097,0.8297034667607324,1419.4907842735042,1389.97056,67.83288581717463,57.69276304932641,736.6025772502264,1046.9586402480227,1042.5274333069221,117.0,740.3115541412238,900.6309538461659,0.821992127829613,923.8545325966851,716.04544,14.24490602160667,75.44730953116206,542.5116512018394,684.7818295744039,683.0623722661132,181.0,484.2138753253917,686.5903034930478,0.7052442670132971,1002.564502994012,716.04544,52.758911191135816,72.63170089552503,652.1522992492435,875.0453133293438,872.4093432048568,167.0,618.7504749006862,811.8984959569991,0.7621032407152745,942.4421599999998,716.04544,83.79356483298044,74.84620442858117,556.3823924673904,683.9547817398064,682.0073815102802,176.0,483.6290641931822,708.6425032618972,0.6824725612237862,base
1783419198961510601,1783419208961510601,1143.2658285714285,1095.1283200000003,178.06132527008342,66.66980929699814,526.6136168191629,757.3108454292974,754.7924766823312,147.0,535.4996342691735,641.2985838807932,0.8350238839272316,1353.2851200000002,1347.85024,37.48659479370178,61.88396319109825,706.8710257491555,990.3290812546418,986.2966236718097,124.0,700.2684089614006,868.4154373297729,0.8063748971513044,931.5610773333332,716.04544,83.79356483298044,74.69120284364591,529.3370288308693,710.9466795665559,708.9580136303531,180.0,502.7152181835711,658.8126326098394,0.7630625056354802,1016.2484479999998,716.04544,83.79356483298044,71.16196662493746,607.3105152837215,832.8035329942459,830.2606155068404,165.0,588.8810255763459,751.1735437343585,0.7839480376915338,947.3502481355931,716.04544,43.166381883656584,74.4632374450738,554.0448606423583,709.8281447570154,707.8190722884239,177.0,501.92429463475185,698.5466458556107,0.7185265259129158,base
1783419199961510601,1783419209961510601,1113.8174686092716,1053.0080000000003,31.655346714681496,68.99697666629163,536.6694257299724,749.2771306242287,746.7779504837436,151.0,529.8189400523906,660.0561267101135,0.8026877088364319,1322.3127231496067,1263.6096,40.699731490304785,61.39634313266096,671.2487900095916,941.597845889546,937.8539032456856,127.0,665.8102219791436,824.3168385594968,0.8077115386149999,919.9355604395604,716.04544,32.37478641274244,74.25519696118891,462.87247044781077,629.0921405522265,627.3833731029381,182.0,444.8353185756401,574.0754458002652,0.7748725743800738,998.2768057485031,716.04544,32.37478641274244,71.17436826024336,568.7890365906975,807.8033913702856,805.3979097234817,167.0,571.2032559034195,695.6330616885701,0.8211272398653516,973.4201860465116,716.04544,32.37478641274244,72.88505814998129,534.872893396123,677.8834657548281,675.9311627721399,172.0,479.3359954894777,676.2370338083655,0.7088283715992308,base
1783419200961510601,1783419210961510601,1088.0170971428572,989.82752,52.758911191135816,71.71419305395166,572.9449459561467,799.9498009928835,797.3393322077758,154.0,565.6499288908972,704.6643890294481,0.8027224558203956,1256.8574876335879,1221.4892800000002,83.79356483298044,64.98967226863437,674.3870053063891,932.3503923545028,928.75801520811,131.0,659.271284875807,832.0314611367413,0.7923634089209738,920.9678957303371,716.04544,83.79356483298044,73.8102908332239,441.7476213066731,619.4385261303788,617.6862671122282,178.0,438.00918235499125,542.5457583896163,0.8073221024805164,1037.739384,716.04544,21.26105376359205,68.56876696441279,563.1548988416304,815.2753581431049,812.8198438232673,160.0,576.4867342772807,684.1917880096281,0.8425806102618235,997.868672,716.04544,83.79356483298044,70.88257172073169,519.8483887479758,672.6075227375622,670.5538036998909,165.0,475.6053404048152,653.7464911240007,0.7275072935184653,base
1783419201961510601,1783419211961510601,1108.3260202666668,968.76736,50.874664362880964,71.28173436128637,601.640788816187,868.4671602783934,865.5583211816626,150.0,614.0990182706762,731.6997166968314,0.8392773760292691,1214.725432992701,1137.2486400000003,109.57620016620515,66.47541780049117,654.2069866273281,968.0405447502042,964.4758013842834,137.0,684.5080336563889,788.478242333896,0.8681381386380996,929.9598741573033,716.04544,43.166381883656584,73.35768226181406,452.66432539952655,642.4726011328169,640.6664501658393,178.0,454.2967329875748,553.730279267104,0.8204296387563713,1034.58036,716.04544,83.79356483298044,68.75738972508111,576.8614197753344,852.9899597423623,850.3033705187124,160.0,603.1549848178646,695.4424687888352,0.8672967382453705,1025.1000579141103,716.04544,43.166381883656584,68.999491248289,518.327847943448,720.2719390744226,718.0461894208195,163.0,509.30917241790803,638.458768717969,0.797716622234832,base
1783419202961510601,1783419212961510601,1127.2877535135135,989.82752,41.89678241649022,70.9074033364878,642.5418592929175,945.0649946265869,941.8453945865894,148.0,668.2618663624877,776.1656529827,0.8609784055690269,1221.48928,1137.2486400000003,40.699731490304785,67.47076021670728,692.3524656004743,1005.7464496110799,1002.1522978701817,137.0,711.1701346742889,840.1323663684126,0.8464977224344056,928.5295124022348,716.04544,83.79356483298044,73.64101356317708,457.25661852170407,651.994986725613,650.1610036881518,179.0,461.03007641331396,558.4736920258405,0.8255179840986712,1036.787752546584,716.04544,83.79356483298044,68.90137429009586,583.1052524834249,866.4738402585625,863.7618654052419,161.0,612.6895281675788,701.6617717849621,0.8731978181010971,989.3260876190477,716.04544,83.79356483298044,70.61284935453978,491.6136123862952,660.2348850041841,658.2552140698689,168.0,466.85656436237895,611.8744658203044,0.7629940297255117,base
1783419203961510601,1783419213961510601,1181.758765390071,1053.0080000000003,94.96604014404448,68.83275563167092,672.5844552585397,941.2081894479721,937.8411418119691,141.0,665.5346932669738,826.602374143621,0.8051449089490978,1189.2269072340425,1137.2486400000003,32.37478641274244,66.96797889204579,619.3188759999789,874.6698526106243,871.5591796020369,141.0,618.4849840804104,758.8477466351743,0.8150317198975026,918.9249813333331,716.04544,83.79356483298044,74.01040818336821,443.67520182174746,613.1266585930691,611.4116609098817,180.0,433.5460180174083,547.4616831831806,0.791920295675458,1043.79418,716.04544,43.166381883656584,68.39919825547607,579.4279729715912,856.0702815221306,853.3750183937581,160.0,605.3331012365753,698.7556582937908,0.8663015376715044,972.979392,716.04544,83.79356483298044,71.28487933065222,477.34371207282646,619.9516892022014,618.1148415177506,170.0,438.3720434429315,599.6907658741839,0.7309968210097514,base
1783419204961510601,1783419214961510601,1179.9664113475178,1053.0080000000003,158.27673357340748,70.16850009059903,672.9463493823279,917.7976114519411,914.5473423591751,141.0,648.9809148144836,833.7418451758806,0.7783955172330099,1210.5013704347825,1137.2486400000003,129.49914565096975,65.41911844403049,627.5436435420736,880.5692754223451,877.404793117965,138.0,622.6565059556648,770.5656927839857,0.8080511652498593,915.0755235164834,716.04544,83.79356483298044,74.43937767363308,453.7173934698,628.5496939249023,626.8206833006076,182.0,444.4517508870273,559.4195803158722,0.7944872981315221,1034.4332004968944,716.04544,83.79356483298044,68.8411202795807,579.1897172039127,832.7722063527643,830.1751055435108,161.0,588.8588742957226,705.3680387649301,0.8348250018909132,968.2775888372095,716.04544,83.79356483298044,72.34156294189316,529.5223630231,716.9339335800549,714.8345617712343,172.0,506.94884609720276,657.4871098382786,0.7710399770755908,base
1783419205961510601,1783419215961510601,1146.2536739310347,1053.0080000000003,158.27673357340748,71.91557366999321,659.7204361676311,908.0773591576049,904.926808846807,145.0,642.1076585023144,815.0527499743538,0.7878111674643374,1189.6717720863307,1137.2486400000003,56.97962408642668,65.7599939659534,587.0371164521189,787.5928469042237,784.745695161763,139.0,556.912242859995,730.8553407215153,0.7620006475018707,919.4330625414364,716.04544,56.97962408642668,74.10720210932016,458.46581817256595,641.5464000578888,639.7653110845761,181.0,453.64180992675085,563.4592860255933,0.8051013110930355,1020.3647520000001,716.04544,44.515331317520854,69.43485998057375,568.9396689152791,817.1033574101405,814.540824942296,160.0,577.7793249550056,693.1595916945273,0.833544441825499,1008.0796586666668,716.04544,20.94839120824511,70.16617405857886,552.7969524730219,734.0186469954267,731.8992223339266,165.0,519.0295628078409,690.2703077727388,0.7519221918766403,base
1783419206961510601,1783419216961510601,1146.316208888889,968.76736,83.79356483298044,72.35551608645746,675.2155350107956,942.536504577154,939.2536147247652,144.0,666.473953902371,830.5048295011294,0.8024925686497344,1197.8534169784173,1137.2486400000003,74.97318958740355,65.41701730632772,595.5442549481396,800.7481146956668,797.8486425555277,139.0,566.2144219236494,740.9767428241612,0.7641460105287218,905.0114657923499,716.04544,44.515331317520854,74.58788695353954,435.96119707717526,616.4260431214849,614.7337610215944,183.0,435.8790351911931,533.9747784814602,0.8162914294018981,1039.055644,716.04544,44.515331317520854,68.99161358965014,594.6161528231717,847.4244485295837,844.7673924323926,160.0,599.219574098539,726.3640198998307,0.8249576764294774,974.4997112426037,716.04544,83.79356483298044,71.38121454837277,506.8612178562694,690.0112521162938,687.9677849903841,169.0,487.91163546645186,628.321340017755,0.7765320137824135,base
1783419207961510601,1783419217961510601,1190.5007588571427,1053.0080000000003,30.308310684269518,71.31072579552945,728.9959774217843,1002.8085189691344,999.2170217640776,140.0,709.0927039947135,900.8129876755875,0.7871697163519152,1205.1259902158274,1137.2486400000003,32.37478641274244,66.32486468884348,620.5437966634097,831.3470086922385,828.3404268523504,139.0,587.8511073654336,772.89374750964,0.7605846330877474,887.2152510638299,716.04544,83.79356483298044,75.33033980224208,397.1023810453776,551.5442534491124,550.0793649935302,188.0,390.0006817383392,489.2139983541271,0.7971985328515264,1049.0343849056605,716.04544,43.166381883656584,68.50489521855417,596.25144414819,844.6302077970731,841.9530847146539,159.0,597.2437475283132,729.8503424105331,0.8183098819351788,988.2075076923078,716.04544,43.166381883656584,70.92475308304154,529.823049465684,729.0812549507706,726.9133632767184,169.0,515.538299411688,654.6258919490472,0.7875311773519262,base
1783419208961510601,1783419218961510601,1195.6153691428572,1053.0080000000003,56.97962408642668,70.81203902271791,723.9003304215298,983.577648600515,980.0648812579494,140.0,695.4944251489433,897.89037697381,0.7745872357970818,1170.827076923077,1053.0080000000003,101.74932872576193,67.08462828321176,620.4420507098928,837.0934183695418,834.1420171887996,143.0,591.9144326157307,771.1778840246867,0.7675459123990938,904.1069768648649,716.04544,83.79356483298044,74.90714049153183,429.6346881990727,590.9490353620108,589.3410077953423,185.0,417.86407024012675,530.9112355271888,0.7870695556578163,1065.348985477707,716.04544,83.79356483298044,67.71040123868069,598.7231701644622,855.5112263201388,852.7647947500963,157.0,604.9377895121893,730.7284067241537,0.8278558544399797,972.4406437209302,716.04544,83.79356483298044,71.7775893820517,511.90625601342174,714.8639303054432,712.7706200126358,172.0,505.48513274464636,629.5541439609633,0.8029255904254519,base
1783419209961510601,1783419219961510601,1223.3475294117648,1137.2486400000003,44.515331317520854,68.83333787616552,711.0241907624894,1005.7660549860539,1002.0348487795592,136.0,711.1839977678807,870.757980358695,0.816741291851175,1204.5199424460432,1095.1283200000003,22.97565487355915,65.96719498243684,638.3377131850981,870.9398152606246,867.8068933243995,139.0,615.8474493761466,790.7692657768183,0.7787953781577034,876.5878115183245,716.04544,83.79356483298044,75.65690427016175,369.063459565799,509.12616885942487,507.78459559511987,191.0,360.0065664800266,455.6460363253294,0.7901013896299613,1057.539933164557,716.04544,54.78810008310258,67.53926329480704,559.3669614881687,774.0960066933537,771.6536580807451,158.0,547.3685356222975,689.9106016828295,0.7933905266670154,936.58554247191,716.04544,94.96604014404448,73.88077395828613,487.6611006327379,686.8880918929182,684.9451470106283,178.0,485.7032276937708,598.0575937521345,0.8121345381579939,base
1783419210961510601,1783419220961510601,1206.8387339130436,1116.1884800000003,35.61226505401669,69.10800410539204,681.8273136973738,938.0896457296918,934.696552279126,138.0,663.329549856351,842.4808161324739,0.7873527054318674,1208.883928759124,1137.2486400000003,67.83288581717463,65.09292367931381,611.64885190108,818.0418030409933,815.0325134988032,137.0,578.4429062243564,762.1879939904451,0.7589241903377553,863.7939200000001,716.04544,83.79356483298044,76.04148877280983,342.514199787838,486.86259037867046,485.5935098477019,193.0,344.2638391628063,418.7757856359996,0.8220719797348569,1021.4823617177914,716.04544,83.79356483298044,69.19370918682554,524.3800458182287,726.4421423554681,724.1967529106103,163.0,513.6721649992348,646.5441348872904,0.7944889409425722,918.4569777777778,716.04544,83.79356483298044,74.65810757256293,462.0295931959961,658.6974331783174,656.8549192665504,180.0,465.769421750561,564.3333348817782,0.8253445135367286,base
1783419211961510601,1783419221961510601,1230.5373487407405,1137.2486400000003,29.676887545013905,68.3158287767804,714.2011826527607,1010.0302431615593,1006.2603564111115,135.0,714.199234143036,874.7150310700935,0.8164936108040942,1275.8277080916032,1221.4892800000002,23.74151003601112,63.96525719418258,674.5826973149752,932.5463866874609,928.9563618233362,131.0,659.4098737977159,832.2937823884876,0.792280187298005,900.3784533333334,716.04544,83.79356483298044,74.48576777314308,395.55608211977614,559.9957444126622,558.4801915812363,186.0,395.97678830980215,484.28340851594453,0.8176550783006332,1066.690396942675,716.04544,29.071236778789128,66.55108585154088,536.0875305142891,741.7855934264056,739.4547317149038,157.0,524.5216232982988,661.2247833317174,0.7932576583947571,956.9736704000001,716.04544,83.79356483298044,73.1879607950284,517.3987378269289,740.8576628956963,738.7256939779998,175.0,523.8654773275641,631.019325093915,0.8301892770868735,base
1783419212961510601,1783419222961510601,1228.8680221897812,1179.3689600000002,35.61226505401669,67.03073342183421,663.4077784275231,958.2701788448575,954.7424349888673,137.0,677.5993416700444,806.628369846018,0.8400390650770134,1230.9192023880596,1200.4291200000002,129.49914565096975,65.96314045425181,647.531226759166,908.2835249953839,904.8629813943885,134.0,642.253439764257,795.2035203719554,0.8076592008343271,1116.7500842666668,716.04544,83.79356483298044,69.46815163741927,845.7881307364929,1182.606885375063,1178.631724933116,150.0,836.2293481266091,1039.747740009727,0.8042617607601494,1213.8587872463766,716.04544,83.79356483298044,63.95885448079062,809.9325334258394,1082.970298305664,1079.0106130244822,138.0,765.7756417555532,1009.3439704333367,0.7586864975542347,1021.4177600000002,716.04544,83.79356483298044,71.15618298019841,655.0785051452877,955.3923208608517,952.4571608649021,164.0,675.564388774262,793.7644953742881,0.851089199266477,base
1783419213961510601,1783419223961510601,1195.9162285714285,1116.1884800000003,41.89678241649022,68.65498358134035,652.2649203914019,952.4097501413994,948.9807280996055,140.0,673.4553927931689,790.0177021467955,0.852456079101924,1214.7254329927007,1179.3689600000002,94.96604014404448,67.24188633319154,644.0989840971046,899.9172904129331,896.6040039205714,137.0,636.3376185580087,792.0001390364812,0.8034564480407214,1077.1932160000001,716.04544,83.79356483298044,70.90418970765069,798.5416179907825,1107.949696971789,1104.346734461752,155.0,783.4387439423324,984.0982159173462,0.7960981244255532,1284.3457575384614,905.5868800000001,83.79356483298044,61.88977548602033,889.7935118348956,1153.7765997435445,1149.2960825172127,130.0,815.8432576530173,1118.3312912004249,0.7295184030639841,1056.7401802531647,716.04544,83.79356483298044,71.00884719076933,751.1487032677911,1089.3598748144793,1085.8851663902203,158.0,770.2937546338468,912.0156328856505,0.8446058673321306,base
1783419214961510601,1783419224961510601,1196.2170879999999,1116.1884800000003,50.874664362880964,69.01896637833798,661.7471647999025,967.9735781166708,964.4892294773564,140.0,684.4606810957042,800.9840249707987,0.8545247592430542,1179.3689599999998,1095.1283200000003,109.57620016620515,71.15897957669969,659.4494928329188,920.8893519604773,917.64151010028,142.0,651.1671054937387,811.0104608182564,0.8029083926201812,1051.408494177215,716.04544,64.74957282548488,70.79278548196395,730.4568764874939,998.8438367417091,995.6881210637722,158.0,706.2892503064512,904.2744297316536,0.781056311097998,1238.1488095522388,716.04544,83.79356483298044,63.30360223596469,845.9620007657779,1050.624337998392,1046.6740693818651,134.0,742.9035938782904,1074.8723359453606,0.6911551902811783,1049.0343849056605,716.04544,83.79356483298044,70.42281458651364,698.7563847031097,999.9174424547548,996.7486944387459,159.0,707.0484041864665,852.3862078866633,0.8294930134304549,base
1783419215961510601,1783419225961510601,1250.3084463157895,1179.3689600000002,129.49914565096975,66.10007095858482,675.7050736267454,981.2042374046073,977.4892907401754,133.0,693.8161699977729,820.0391784388485,0.8460768561309804,1156.5537866666666,1031.94784,61.934374006985536,72.42342445672298,650.8093916776747,918.8970863401358,915.6974720577241,144.0,649.7583609636705,797.5040844852347,0.8147398535056661,1021.740768588957,716.04544,83.79356483298044,71.65567817128762,724.0846738005666,996.5696434038812,993.4967047366441,163.0,704.6811527755439,894.60017109724,0.7877051397287821,1181.161314042553,716.04544,83.79356483298044,65.47707333484273,783.6429033154586,1002.8761237931126,999.288185674144,141.0,709.1405078241894,988.3077809644059,0.7175300260534215,1045.543639493671,716.04544,83.79356483298044,70.8951953698138,706.129542999664,983.5375522691105,980.4085224803337,158.0,695.4660727611065,869.1382708251606,0.8001788623354836,base
1783419216961510601,1783419226961510601,1240.8334269629627,1221.4892800000002,49.12036559174714,65.90919347531596,655.3952449875213,932.1656641843387,928.7021986013277,135.0,659.1406623340079,801.1570682041374,0.8227358760143356,1195.9162285714285,1053.0080000000003,52.758911191135816,70.8162201942451,697.2097980850995,997.1298979249588,993.5551093380245,140.0,705.0773125465882,850.667970925067,0.8288513693302043,989.952136331361,716.04544,83.79356483298044,72.79378744289393,683.789502663675,962.513012743611,959.6441151170335,169.0,680.5994782913011,838.7659643672222,0.8114295372067889,1118.0259436241613,716.04544,83.79356483298044,68.3591322213645,764.5342688908111,980.7155561616179,977.3967537083469,149.0,693.4706201770164,963.625729260311,0.719647264617282,1013.9509760000002,716.04544,83.79356483298044,72.34403975006565,689.281446601035,933.4463851883816,930.5961605646739,165.0,660.0462688407747,855.7962881150611,0.7712656364688883,base
1783419217961510601,1783419227961510601,1266.1431530827067,1221.4892800000002,27.39405004155129,65.24968219289406,668.6747158921576,952.5586417036452,949.0252026197594,133.0,673.5606750264944,816.9515039926433,0.8244806108252907,1206.5335142028985,1074.0681600000003,28.48981204321334,69.11238791758767,678.8798847500768,981.6924227318007,978.1525202126567,138.0,694.1613691531071,825.1216835257071,0.8412836349021727,1005.8129426506025,716.04544,83.79356483298044,72.52830251216496,730.0432559638962,1014.5941068492101,1011.5150355542097,166.0,717.426373104985,899.20854685854,0.7978420307629124,1070.2881312820512,716.04544,83.79356483298044,70.23493986575184,733.2054105887685,920.1343809878733,917.1615637089113,156.0,650.6332603994115,929.256976548632,0.7001650531760749,1005.8129426506025,716.04544,83.79356483298044,72.88737963729423,690.6424101555262,929.5143025050521,926.6934524134424,166.0,657.2658665112062,859.0545196729396,0.765103787314269,base
1783419218961510601,1783419228961510601,1246.8248108270677,1221.4892800000002,33.916442908587314,66.50895984417043,671.2862338625848,947.6023995161296,944.0126980134904,133.0,670.0560825664992,822.6559661575697,0.8145034013381945,1211.888324705882,1179.3689600000002,34.74367322343091,69.06622477989774,669.7580601946344,961.7881713448276,958.2377085745889,136.0,680.0869380229367,816.0224241751278,0.833416972224016,997.6133973333335,716.04544,83.79356483298044,72.99214877638887,730.9941876979792,1023.8490127468269,1020.7383875933607,165.0,723.9705798244332,898.1304496958078,0.8060862206260109,1055.1680164102565,716.04544,83.79356483298044,70.40426892750834,707.4789366187827,915.1472762339336,912.3128450046418,156.0,647.106844809413,889.7635962540219,0.7272795240598584,1035.2591859119498,716.04544,83.79356483298044,72.54373595079177,752.0897069276422,1002.2997024084203,999.1228332365042,159.0,708.7329163542526,938.1506708258602,0.7554574530446696,base
1783419219961510601,1783419229961510601,1229.2319858823528,1116.1884800000003,64.74957282548488,66.78286979097837,680.9514880882323,984.9223833121489,981.268535829605,136.0,696.4452961824366,827.5698357068333,0.8415547137331288,1232.0973605925926,1221.4892800000002,118.70755018005562,68.67203195449575,685.0261930357275,990.2231074808274,986.5215262048439,135.0,700.1934741873085,832.698216428255,0.8408730322381289,973.2535479289942,716.04544,83.79356483298044,73.49788026786788,676.5999899284243,892.876543314416,890.2152064160816,169.0,631.3590585400277,846.3261560072526,0.7459997000667167,1038.265888,716.04544,31.655346714681496,72.24995663805473,782.3887277495037,1044.354696480347,1041.0832114273587,160.0,738.470287845272,975.4973396190451,0.7570192740183814,1022.5436176100629,716.04544,64.74957282548488,73.54390969672853,842.8050085076404,1184.6310841716308,1180.8770533554582,159.0,837.6606728221319,1034.3127492855892,0.8098717466266494,base
1783419220961510601,1783419230961510601,1266.8005333333333,1179.3689600000002,52.758911191135816,64.86302417047203,697.0720129616492,1009.3828959110355,1005.5280495843522,132.0,713.7414905124082,846.820715895268,0.8428484059436748,1226.1693155555556,1179.3689600000002,50.874664362880964,68.84102734210362,684.9672064180729,985.4723956146031,981.8198221894286,135.0,696.8342136112379,834.0091049303728,0.8355235086665068,953.5168993103448,716.04544,44.515331317520854,73.8555615199981,584.3228031765839,766.9827473156904,764.771541496754,174.0,542.338701680013,731.9840455599428,0.7409160144537609,1024.5832441717791,716.04544,83.79356483298044,72.38696149775473,741.2928639691831,962.0529552115156,959.0819141701568,163.0,680.2741684906206,931.4739653825355,0.730320109603114,1015.5106419512197,716.04544,44.515331317520854,73.07049078507309,797.0905813274553,1111.3149549031862,1107.9094778881004,164.0,785.8183406460652,980.7912914754156,0.8012085216049886,base
1783419221961510601,1783419231961510601,1235.9484943283583,1158.3088000000002,109.57620016620515,65.57047195324621,678.3070730649554,973.6239935750863,969.9576740720057,134.0,688.456128182871,826.5682370643203,0.8329090053448279,1219.321322352941,1179.3689600000002,44.515331317520854,67.55493690821584,646.7257774853483,904.0023877265204,900.6484937503752,136.0,639.2262185702532,795.1121828234328,0.8039446915532967,910.3052765027323,716.04544,28.48981204321334,75.26419097767818,449.17381043167654,574.6633551632036,573.13645214221,183.0,406.34835533531464,566.5286674243113,0.7172600058929994,991.5825333333335,716.04544,83.79356483298044,74.52197423516225,733.638161453154,957.6773283185162,954.8057589796553,168.0,677.1801330426384,920.4148182134539,0.7357336275366149,968.5224744186048,716.04544,83.79356483298044,74.55886691394512,715.5380935467214,977.1283811330404,974.2671224348925,172.0,690.9341043890063,886.1684706245388,0.7796870767722772,base
1783419222961510601,1783419232961510601,1261.0568533333333,1200.4291200000002,24.991063195801175,64.58627589067072,687.3313213427085,974.750724390658,971.0921620550715,132.0,689.2528471831337,841.0195877162429,0.819544345042871,1262.3234833587787,1263.6096,29.071236778789128,66.12353088650798,666.2663062558933,918.7478638904787,915.2143360672768,131.0,649.6528447576127,822.6768334850046,0.789681705276139,879.5713882352942,716.04544,30.967187003492768,75.7955595528569,370.9105538869744,513.7972942703655,512.4623422807579,187.0,363.30955093387547,457.3317866381006,0.7944113257567474,946.4968459770115,716.04544,83.79356483298044,75.06451434219618,611.6851066836166,785.192691224556,782.9202107035887,174.0,555.2150765029985,770.8342551346428,0.720278156821168,948.7902939428571,716.04544,29.071236778789128,74.58235876764252,571.7548612817473,773.2153912695812,771.034235399662,175.0,546.7458464845305,710.1702137337057,0.7698800032882611,base
1783419223961510601,1783419233961510601,1266.162346666667,1221.4892800000002,47.48302007202224,63.89633751963344,690.064688699879,974.6406371822171,970.9178206350723,132.0,689.1750037715233,845.5160887110204,0.8150938970566044,1249.675058045113,1263.6096,142.44906021606675,65.84791281424604,642.5356536282051,889.3744186588665,885.9994013406965,133.0,628.882682447528,792.4376431149963,0.7936052608195777,929.2354395530726,716.04544,83.79356483298044,74.60963059435485,485.9431813707923,626.3156251291945,624.5538336641316,179.0,442.87202569194505,611.7301165312118,0.7239663598765269,969.7469023255815,716.04544,83.79356483298044,75.26993243991811,707.6423931582776,947.1564636575657,944.3911629011762,172.0,669.7407582969345,881.6116897633971,0.7596777198776441,954.7272533333332,716.04544,44.515331317520854,74.3031255385374,580.0643001408666,723.4095944138803,721.3250302992183,174.0,511.52782978546475,736.2871887200762,0.6947395494883979,base
1783419224961510601,1783419234961510601,1293.322383875969,1263.6096,33.1276884223411,60.97331358415417,675.0020112440188,953.1939862887256,949.4678903465525,129.0,674.0099314909949,827.1098696622433,0.8148977012766538,1323.7814857142857,1326.79008,21.583190941828292,60.50770196876249,650.0502239867135,921.700820895825,918.2075188717344,126.0,651.7409006806454,795.4542643045818,0.8193317075877689,920.1311893922654,716.04544,83.79356483298044,75.14850739191928,482.6578284481897,642.3252896916124,640.5428420277302,181.0,454.1925680685527,602.3053330996587,0.7540902314962585,949.0309814857143,716.04544,83.79356483298044,75.52862371355195,640.7431943712015,878.5706015056403,876.0423689849827,175.0,621.2432300757822,792.5478577401664,0.7838557937020559,950.6120496551724,716.04544,83.79356483298044,75.05868198763608,605.0547060842983,774.2927370990834,772.0516535648545,174.0,547.5076450262545,763.0858955769106,0.7174915015462657,base
1783419225961510601,1783419235961510601,1291.036785116279,1221.4892800000002,74.97318958740355,62.583430606192934,708.3318616694431,997.1015807085124,993.2034310286272,129.0,705.0572892508147,868.8585396653156,0.8114753519282931,1374.779624918033,1432.09088,31.655346714681496,58.32809070442322,663.5339197188863,950.2113849494448,946.2808430675097,122.0,671.9009138584133,809.2151173903843,0.830311865681907,917.5713909392265,716.04544,83.79356483298044,75.36333635522556,480.86695795013577,643.6237256244402,641.8340744092178,181.0,455.1107009215915,599.0852922996559,0.7596759706361647,921.4990008888889,716.04544,83.79356483298044,75.90487909852526,535.8388898251104,710.3646012227327,708.3776025634016,180.0,502.303626639472,669.3968666123487,0.7503823989817967,915.0755235164837,716.04544,32.37478641274244,75.62658106702847,512.743411728104,658.4919929869942,656.7027610411508,182.0,465.6241535981481,646.071734665862,0.7207003938021859,base
1783419226961510601,1783419236961510601,1268.396,1200.4291200000002,33.1276884223411,64.49487100362515,698.0820669489449,964.4129514649157,960.7871293144735,132.0,681.9429378449746,861.4604222789953,0.7916126152852073,1385.7933381818182,1432.09088,30.308310684269518,57.58582530707052,638.0082685587128,880.0570328811305,876.3827383582649,121.0,622.2942957811597,787.7080716976869,0.7900062448769586,935.4023874157302,716.04544,49.12036559174714,74.47519722948748,494.125777786556,639.4557451473352,637.6555175949038,178.0,452.1634936623774,621.3651551590694,0.7276936756239953,943.1601200000001,716.04544,83.79356483298044,74.79210455315003,549.5688322557783,728.4930322110102,726.4399025863738,176.0,515.1223631235553,686.568480400143,0.7502854818259844,946.0319599999999,716.04544,49.12036559174714,74.55934715382205,559.4394163485789,744.2314522856587,742.1445342448002,176.0,526.2511066835018,698.1939612214302,0.7537319654883162,base
1783419227961510601,1783419237961510601,1262.65232,1242.5494400000002,39.56918339335187,63.15815979812578,656.8581902025244,922.2093170633577,918.6989517770737,132.0,652.1004617689151,806.4166776255655,0.8086396026542716,1358.8083720325205,1389.97056,118.70755018005562,59.31718324030304,635.9305688556653,888.2075547467063,884.5924791793342,123.0,628.0575850625177,782.040415664625,0.8031011856705085,932.294457206704,716.04544,83.79356483298044,74.65923641769724,494.4267363749125,623.4765589556425,621.7227536278444,179.0,440.86450274838916,625.8872425548409,0.7043832702977009,931.1179119553072,716.04544,83.79356483298044,75.28182760321545,533.8403488989419,709.6221268527714,707.6374329221568,179.0,501.7786179776151,666.393386443267,0.7529765873814441,924.78536839779,716.04544,83.79356483298044,75.50080907909143,539.2172965151116,722.5423316105054,720.5324742218116,181.0,510.91458237612744,671.5606677582042,0.7607869354255906,base
1783419228961510601,1783419238961510601,1275.8277080916032,1263.6096,64.74957282548488,63.01675801170059,677.5298997284899,942.8606404265532,939.408805677984,131.0,666.7031525595069,834.1744321398269,0.7992370982280982,1381.6161163636366,1389.97056,41.89678241649022,57.58632404208375,642.8610496064452,900.800953885348,897.040863122949,121.0,636.9624629916401,789.7341758921243,0.806552992685285,921.5274430939228,716.04544,83.79356483298044,75.33577386456444,492.19862259985945,616.5610826566286,614.8460721730438,181.0,435.9745225622215,624.0849910202289,0.6985819701408105,901.6025254054055,716.04544,83.79356483298044,76.39497748225574,504.3610061943645,644.89598622417,643.1412047003806,185.0,456.0103250190969,636.229000342465,0.7167392947722263,896.7552000000001,716.04544,83.79356483298044,76.01391143148,470.05651391251337,642.3435010128258,640.7274631129958,186.0,454.205445417277,582.0265966601665,0.7803860648699501,base
1783419229961510601,1783419239961510601,1243.3294459259257,1263.6096,38.49974600434236,64.0669507061817,627.1112110651463,850.7324198244263,847.553557773448,135.0,601.5586630330927,778.2033985739898,0.7730095552594761,1435.6909073504276,1474.2112,41.89678241649022,54.97457065957104,637.3858476683415,916.4923831630372,912.535240317463,117.0,648.0579790404032,776.2292609254141,0.8348796053730232,893.9122260869565,716.04544,94.96604014404448,76.43824978505772,459.99365454553293,584.2871085180366,582.6886906159932,184.0,413.1533765929839,581.240456394097,0.7108131790345552,870.0408956613757,716.04544,83.79356483298044,77.21597026955233,411.5785876485609,519.7678074546152,518.4029690383735,189.0,367.5313412936222,520.8207217507996,0.7056772627212732,875.1666488888891,716.04544,16.18739320637122,77.31263370446547,466.9618350854522,616.3523506919753,614.8256074893741,189.0,435.82692677456475,584.0669103808787,0.7461934908970542,base
1783419230961510601,1783419240961510601,1256.0089407518797,1263.6096,25.437332181440482,65.00441191758864,653.1599946891627,889.1593048074217,885.8552778096349,133.0,628.7305739844442,809.6819684254366,0.776515469656706,1488.502022857143,1579.512,31.655346714681496,52.267706547421916,630.8441202496456,936.7536757607261,932.5272973148559,112.0,662.3848764318338,759.3100459260964,0.8723509981011152,899.6990933333335,716.04544,83.79356483298044,76.5714352549348,494.40294764774256,638.3633398265202,636.6358585315727,186.0,451.39104645222494,622.086497905987,0.7256081718083545,862.9209600000002,716.04544,83.79356483298044,78.1138714477153,448.4691062181267,587.2851607345863,585.7539400231157,193.0,415.2733196456575,562.1593310258298,0.7387110677107603,867.6347166666666,716.04544,83.79356483298044,78.02325710644979,502.5699423171373,724.014355653512,722.1165764798168,192.0,511.9554605590071,611.640333074274,0.8370204397505588,base
1783419231961510601,1783419241961510601,1236.3552752941177,1263.6096,36.525400055401725,65.56951018844613,601.8721382799979,822.2032024375239,819.1532958485428,136.0,581.3854599568689,745.3157821694398,0.7800525278890404,1435.3309046153845,1474.2112,43.166381883656584,54.372466976510836,630.1360317792538,933.4908611838057,929.4897623764252,117.0,660.0777181187391,759.1386830577063,0.869508737797469,929.4707486033521,716.04544,79.13836678670374,75.75411154491836,566.1007517611117,737.3887961651822,735.3151711686592,179.0,521.4126181393852,710.6367307643952,0.7337259609118834,907.6471130434783,716.04544,40.699731490304785,76.56841402670412,547.9584846610664,715.839942633557,713.8962581425546,184.0,506.17527768037735,687.3211010559045,0.736446585013555,918.0368088397788,716.04544,79.13836678670374,75.6900448593496,552.8258478728152,783.3565876325754,781.1777066685033,181.0,553.916755202148,676.6246746208386,0.8186469929027453,base
1783419232961510601,1783419242961510601,1197.8534169784173,1179.3689600000002,67.83288581717463,66.83264840490921,585.6618096746547,830.4484822457637,827.439769615884,139.0,587.2157532220557,716.6507798130899,0.8193889824207096,1403.4207462184877,1432.09088,142.44906021606675,55.87440944943375,630.850608036491,910.5859109280456,906.7192866207132,119.0,643.8814724701506,767.2374495714193,0.8392205996068418,939.2593392090396,716.04544,83.79356483298044,75.36708345729126,575.6815051548971,763.8406416131837,761.6676990046808,177.0,540.1168974305656,718.9960078538722,0.7512098697776611,929.9598741573033,716.04544,44.515331317520854,75.58041550766892,571.2504354046034,702.3533022026146,700.3781266264391,178.0,496.63878277623326,727.5500530005951,0.6826180284476276,923.6050168888889,716.04544,83.79356483298044,75.2530140862222,547.5375613865342,760.2529806687583,758.1265408105679,180.0,537.5800380481642,674.6099714681756,0.7968753217184313,base
1783419233961510601,1783419243961510601,1193.9141064748203,1095.1283200000003,33.916442908587314,67.77219165204033,599.430108872635,824.7189253238939,821.7335429318238,139.0,583.1643446694073,740.6703614964408,0.787346672669863,1466.7562761061947,1516.33152,33.916442908587314,52.705236758241554,636.9543365193642,926.2020967419561,922.0801591652524,113.0,654.923783355436,772.6312656237437,0.847653741823038,934.1512349425288,716.04544,52.758911191135816,74.34924306858916,482.8805879756954,612.4662723629616,610.7005619334388,174.0,433.0790544358971,610.3839699664148,0.7095190498854785,935.8240929608938,716.04544,28.48981204321334,74.51358728759779,525.6704254113724,695.0906236588216,693.1363816980892,179.0,491.50329352833927,657.1689649776107,0.7479100805453959,891.3570421621622,716.04544,64.74957282548488,76.13334808160673,476.912559402414,629.8817829713165,628.1698595541981,185.0,445.39368008489106,596.4087637700682,0.7467926481653822,base
1783419234961510601,1783419244961510601,1187.4921645714287,1137.2486400000003,41.89678241649022,67.38427671414364,581.9037974710074,816.384367676132,813.4628075078766,140.0,577.2709224384846,714.5650425789585,0.8078633686795516,1461.6489992982456,1537.39168,38.49974600434236,52.89454590062173,622.124469597049,907.4479247099305,903.4410470518251,114.0,641.6625811360515,753.798565485322,0.8512387931156735,972.930414883721,716.04544,83.79356483298044,73.5976098844239,611.2588856904417,799.2029983156915,796.8627209685019,172.0,565.1218596536463,766.5464712213104,0.7372310497408701,946.7499200000001,716.04544,83.79356483298044,73.89197522135693,530.4954427371289,705.6461538549131,703.6272982022134,176.0,498.9671805090149,662.0926716987334,0.753621361234543,890.1278263829787,716.04544,83.79356483298044,76.1060753519677,462.77724666031196,598.8493212426449,597.245973462526,188.0,423.45041595963545,581.9539781329828,0.7276355723491118,base
1783419235961510601,1783419245961510601,1234.3768405970152,1200.4291200000002,56.97962408642668,65.07033551129079,607.0775084657844,849.0299776051054,845.8513222721842,134.0,600.3548545952326,746.2393897751697,0.8045070560750086,1489.2541714285715,1558.45184,34.74367322343091,52.436413879359236,653.3539685217964,946.7772910159266,942.509067011509,112.0,669.472642750791,793.5023671486413,0.8436933151900521,979.2351318343195,716.04544,83.79356483298044,72.74457439143565,597.6496820963765,780.7578850194758,778.5276674878849,169.0,552.0791949621381,749.6496290032956,0.736449634072601,955.2113949425288,716.04544,83.79356483298044,73.33247183994102,538.1277653682059,717.8869164861858,715.8090918200226,174.0,507.62270677248273,671.0607852533531,0.7564481756758209,895.1131105882354,716.04544,44.515331317520854,75.78499463699994,466.22934764862384,604.8265126789069,603.205627495051,187.0,427.67692855666644,585.9059921249234,0.7299412095199731,base
1783419236961510601,1783419246961510601,1276.4707664122138,1263.6096,79.13836678670374,62.14995866380462,602.18559299949,868.2935934418817,864.9548983650778,131.0,613.9762879835897,732.6469379784788,0.8380247785893633,1455.8980173913044,1516.33152,158.27673357340748,54.50203185784281,650.9523328548502,925.4454623642671,921.502072035916,115.0,654.3887620560931,795.8426687139175,0.8222589561748253,953.8447323428574,716.04544,83.79356483298044,73.5175742692551,553.6936670516465,731.9169172403334,729.8108377253025,175.0,517.5434154457929,692.2627827859524,0.7476112082220912,964.8718390751445,716.04544,83.79356483298044,72.97966828810658,547.0790738580789,724.522036097336,722.4129631884764,173.0,512.3144448435108,683.6358540254961,0.749396688056686,893.5848533333333,716.04544,94.96604014404448,75.81169256101195,463.4931898342149,600.2667663641882,598.642225452135,186.0,424.4527010170385,582.7279179386048,0.7283891640519583,base
1783419237961510601,1783419247961510601,1275.1846497709923,1305.72992,56.97962408642668,62.88817349200061,608.6810216673556,880.5586264570932,877.1674785360035,131.0,622.6489760001226,739.6886497838337,0.8417717051384866,1463.496381754386,1558.45184,21.915240033241037,52.08744785250463,605.1065078453072,872.0450016009395,868.3778426632706,114.0,616.628934131858,736.3369815982286,0.8374276310195059,952.6412946285714,716.04544,64.74957282548488,74.11300778419252,565.5484127812152,774.6157544743932,772.3884984951325,175.0,547.7360528027772,699.7732651571652,0.782733608263469,999.9769946987951,716.04544,64.74957282548488,71.17221534492326,564.4547824482553,793.8850039375251,791.4776528727224,166.0,561.361469766533,692.5713342235537,0.8105467870625617,901.1471705945945,716.04544,29.071236778789128,74.35849197265473,387.014396938617,480.28305738718956,479.0393937138855,185.0,339.6114067674895,491.82551079852107,0.6905119789660791,base
1783419238961510601,1783419248961510601,1326.7900800000002,1347.85024,41.89678241649022,60.246923908042085,613.8570610947601,860.32413270136,856.8197428495299,124.0,608.3410282515667,754.0567482522156,0.8067576209106345,1443.9141277192982,1558.45184,38.49974600434236,52.29006931262109,583.2732385976545,823.0704294767678,819.4205165396224,114.0,581.9986820771466,714.8804856468143,0.8141202533323622,959.5686694252875,716.04544,79.13836678670374,73.66860062812415,542.4716303308231,724.1310555510437,722.0355275266434,174.0,512.0379798479155,676.3575186424671,0.7570522478638795,1001.2456790361445,716.04544,94.96604014404448,71.18572713734602,559.1671800274078,785.5791524005656,783.1949916598159,166.0,555.4883458212203,686.3324407807117,0.8093575544663827,898.4150417297299,716.04544,94.96604014404448,74.20610822457522,369.8245034803959,456.14320779880074,454.9019994904738,185.0,322.54195542671647,470.6630113401708,0.6852927628799789,base
1783419239961510601,1783419249961510601,1359.1508136585364,1347.85024,39.56918339335187,58.35862351148598,640.3113815003354,905.4972622401922,901.7851808855153,123.0,640.2832544758934,784.2295630595772,0.8164487602047357,1452.7815635087716,1558.45184,43.166381883656584,52.820165296873895,605.5068338849479,852.3007831584783,848.5251718784723,114.0,602.6676633819652,742.7468583034256,0.8114038540110048,970.4815590697675,716.04544,44.515331317520854,72.56798804441249,518.7016163880779,702.8751072570498,700.8294132068703,172.0,497.00775466868186,643.8900368749366,0.7718829710129776,999.5378931736527,716.04544,83.79356483298044,70.02278660803404,494.81116680630686,694.3253206952548,692.2310062490022,167.0,490.96214261313906,607.5806685970148,0.8080608353567872,907.1892834782609,716.04544,29.071236778789128,73.60201729124319,371.44543168137363,459.623566454592,458.4328423021829,184.0,325.00294063318773,472.3663427085109,0.688031536645153,base
1783419240961510601,1783419250961510601,1408.1751050847456,1432.09088,28.48981204321334,56.16500696041204,668.8542775513841,912.794984352857,908.9942166890236,118.0,645.4435232689738,828.5127749966412,0.779038709779207,1476.0749309734515,1558.45184,101.74932872576193,52.44385542502321,619.2799654440215,882.993263155772,879.0927681381721,113.0,624.370524119484,756.3703296045379,0.8254825707480238,994.9022573493977,716.04544,83.79356483298044,71.3337792588534,534.0856008421086,720.6085393018952,718.4215584182979,166.0,509.54718472130287,663.8340841844818,0.7675821366528356,994.9022573493977,716.04544,83.79356483298044,69.64621508975188,461.02137710286445,610.2750782980426,608.4229493581515,166.0,431.52964625369714,576.1705498320116,0.7489616509894753,906.1622942076502,716.04544,89.03066263504171,73.55546879421442,363.4302407790287,440.26599774040875,439.0724368600391,183.0,311.3150725281042,464.44003125679865,0.6703019799685863,base
1783419241961510601,1783419251961510601,1489.6302457142858,1474.2112,15.154155342134759,52.24320033062929,704.9663823762565,913.2910889665387,909.6745241735167,112.0,645.794322205486,886.2449138161027,0.728686068758065,1483.9891314285717,1558.45184,118.70755018005562,51.05151144916723,605.0683859773814,873.3273891619359,869.4363379328065,112.0,617.5357190723479,735.8942323822396,0.8391636894248498,977.1421604678361,716.04544,83.79356483298044,72.05781963440629,514.8665273116014,719.4895898253818,717.370493955165,171.0,508.75596795865505,633.0551037824764,0.803651948967571,1014.9969795121951,716.04544,49.12036559174714,68.9540946445482,479.75165543568767,649.2199282221469,647.2328204217091,164.0,459.0678137273237,595.7782078814005,0.7705347521182057,911.6040685714286,716.04544,67.83288581717463,73.33416887709957,371.49279668755105,473.19326637803454,471.8863578552388,182.0,334.5981674677206,469.07976842440974,0.7133076077691458,base
1783419242961510601,1783419252961510601,1493.5637794594595,1516.33152,74.97318958740355,52.099458450488605,689.9785703222386,926.606240930025,922.4516181883506,111.0,655.2095564513966,858.7730046847205,0.7629601220312489,1492.0459300900905,1600.57216,31.655346714681496,51.288065339931514,609.6821133431137,897.7926918663774,893.7054519680745,111.0,634.83530051844,736.1498687555962,0.8623723612035405,983.4720871005917,716.04544,61.934374006985536,71.63921149509083,520.9023077674749,722.1379145684448,719.9870582816096,169.0,510.62861634325907,642.1118567357611,0.7952331217478057,1016.281135609756,716.04544,83.79356483298044,69.1847967804943,519.4650881872317,721.5303569173294,719.3136685546067,164.0,510.1990082081936,639.950343153611,0.7972478078439401,941.6390183050847,716.04544,83.79356483298044,72.1792136310787,414.09009406118,532.8916097697936,531.4016398139487,177.0,376.81127090563655,521.4861887513737,0.7225719089662928,base
1783419243961510601,1783419253961510601,1483.1571086725664,1516.33152,36.525400055401725,53.90181847769896,692.4839034709152,954.0587001722012,949.8525737350827,113.0,674.6213765417866,855.2841120288999,0.788768746026924,1431.7246163478264,1558.45184,71.22453010803338,54.76462546354802,613.8516949552513,914.0753579020079,910.108124961435,115.0,646.3488840880302,738.0679960667235,0.875730810077827,1007.8428375903615,716.04544,79.13836678670374,70.85600500959762,591.9151225967099,824.513942780103,822.0119752567847,166.0,583.0194001226679,728.5404685106096,0.8002567123204049,1007.8428375903615,716.04544,79.13836678670374,69.63981171855453,506.3273024386445,706.3931163434999,704.258345982512,166.0,499.4953627499865,622.8859170708702,0.8019050504446633,967.0630695953757,716.04544,79.13836678670374,71.53599470936817,466.5925279217755,638.2740364083078,636.4163079191065,173.0,451.32789939962373,577.5540994890672,0.781446967130682,base
1783419244961510601,1783419254961510601,1558.8454878504674,1558.45184,52.758911191135816,51.04306924152564,717.4347482540287,1007.7459283344675,1003.1008614593662,107.0,712.5839796384345,880.64594019729,0.80916057987935,1414.0393142857142,1516.33152,50.874664362880964,56.127074536719554,612.1418359513756,918.2498848445155,914.3643731596462,119.0,649.3007203973232,733.9206645745849,0.884701510310639,1004.290521445783,716.04544,83.79356483298044,71.08978017629205,585.1075827211545,824.0517425610344,821.5540334757101,166.0,582.6925752134986,717.5907246551587,0.812012412080039,1008.0965744578313,716.04544,83.79356483298044,70.06826494999729,519.8143645074667,713.1993495157469,711.0350381408392,166.0,504.30809638041933,642.845719484218,0.7844932012381552,983.4720871005918,716.04544,64.74957282548488,70.46326609091804,470.29569944908087,651.8479852262634,649.9062748912398,169.0,460.9261306562793,579.7668849457648,0.7950197616053862,base
1783419245961510601,1783419255961510601,1536.2216711111114,1516.33152,35.61226505401669,50.89697347373082,693.9606426381036,978.9574913538852,974.3734574300653,108.0,692.2274806297031,850.6311213398594,0.8137810424092536,1457.5847578947369,1537.39168,158.27673357340748,54.53902962193502,662.3312609945891,956.5951606578118,952.4231306531236,114.0,676.4149249513736,805.355091393156,0.8398965030211291,1028.5678143209877,716.04544,49.12036559174714,70.16640984399562,609.5454991031992,865.2675253240003,862.5839495044136,162.0,611.8365346971033,745.6000659595308,0.8205961381048378,1028.5678143209877,716.04544,25.899829130193947,69.52088482281714,544.2988713706567,752.1312783530536,749.8648515914527,162.0,531.8371272659509,671.6376685248466,0.7918512498473366,984.3766550588236,716.04544,83.79356483298044,70.47497653737967,473.0619344840979,661.8130553901133,659.8523117836122,170.0,467.9724993441373,581.4430820333789,0.8048466200811594,base
1783419246961510601,1783419256961510601,1477.5958685714286,1516.33152,21.915240033241037,54.445118765663814,697.3331387730269,974.4194096671821,970.036902079313,112.0,689.0185722954569,857.4227174375825,0.8035926250643285,1434.9957296551725,1516.33152,37.48659479370178,56.00734261799385,674.1247988321417,964.5654925835373,960.3625728408543,116.0,682.0508007043618,822.3696501149714,0.8293725341262383,1022.8477708641975,716.04544,83.79356483298044,70.13789722888662,598.4483492764289,851.9739295657208,849.3239264757176,162.0,602.4365429900712,731.3111234888003,0.8237759875934627,1037.5726032298137,716.04544,83.79356483298044,68.60068430454179,529.5633544490009,766.6539740943742,764.2546066110382,161.0,542.1062239057478,643.3778934280241,0.842593799761002,1020.9655479754601,716.04544,83.79356483298044,68.99507215666718,509.8196760547475,736.9093612069763,734.6314288288719,163.0,521.0736064292998,619.7365186323273,0.8407986148359261,base
1783419247961510601,1783419257961510601,1495.0816288288288,1474.2112,36.525400055401725,53.418022602467744,705.7881777467559,987.8312327796294,983.3415749451945,111.0,698.5021633663429,867.3645528729209,0.8053155516359701,1448.5727443478265,1516.33152,39.56918339335187,55.34145883092256,668.8649777747598,952.2758435534605,948.1217440645542,115.0,673.3607065367918,817.3453348697822,0.8238386858157944,1020.1903273619633,716.04544,83.79356483298044,70.15335285500488,593.8303929496444,840.1270879417347,837.5302506138434,163.0,594.0595609421076,727.1971467271399,0.8169167929436495,1017.9077333333333,716.04544,89.03066263504171,69.65545278902826,512.2491193923626,744.4755967653565,742.176605305375,162.0,526.4237429006853,621.4799611344829,0.8470486191376518,1038.6190708074535,716.04544,25.899829130193947,68.68843670796652,539.8985835866471,780.4651678641487,778.0439470184575,161.0,551.8722126766368,656.2769930109024,0.8409135449724181,base
1783419248961510601,1783419258961510601,1417.4558535593221,1389.97056,61.934374006985536,56.13272598041587,699.1564769257578,984.6693821632917,980.4672340900975,118.0,696.2663973544317,857.464932467804,0.8120056820872671,1376.3945890909094,1432.09088,94.96604014404448,57.72252515206122,654.7466768215313,907.2531755723418,903.5111364501035,121.0,641.5248727002323,807.2232284016318,0.7947304415043955,998.5597814634147,716.04544,83.79356483298044,70.53224013081358,550.388925861017,780.2897964279312,777.8925870871034,164.0,551.7482063448608,673.5301758781878,0.8191885473066732,1058.408041025641,716.04544,44.515331317520854,68.354705090125,565.198944618901,809.1444244424893,806.5403578760339,156.0,572.1515094825702,689.3627630609643,0.8299715913607761,1046.120400503145,716.04544,83.79356483298044,68.74720498586045,557.9017976146181,781.5047998673296,779.0277578204874,159.0,552.6073435160243,685.4351854911782,0.8062138553917825,base
1783419249961510601,1783419259961510601,1378.1350981818182,1389.97056,36.525400055401725,57.64836982173304,668.3567811810778,953.4327148431692,949.4528056366947,121.0,674.1787380707048,816.1758930942266,0.8260213806546128,1348.18992,1368.9104,40.699731490304785,57.71879839379678,619.3308409421212,832.6664331462637,829.3002262092776,124.0,588.784081344138,770.5894067932804,0.7640697836663698,988.2075076923078,716.04544,83.79356483298044,71.21547244081209,555.5861729818998,785.3183365061252,782.9776312419964,169.0,555.3039211336202,680.566505790698,0.8159436534251052,1050.3589232704403,716.04544,83.79356483298044,68.72887119088266,561.5690982336184,817.206624905566,814.6164666852605,159.0,577.852346101297,681.0014957652091,0.8485331525623034,1063.7392917197453,716.04544,83.79356483298044,68.53900618108763,594.2740972383882,809.3311915039275,806.7330560124362,157.0,572.2835737382154,736.5929411226467,0.7769332853855399,base
1783419250961510601,1783419260961510601,1383.0085236363639,1347.85024,31.655346714681496,58.85923130527646,795.7907274266859,1153.930286470206,1149.133627839573,121.0,815.9519305796182,966.2696244880539,0.8444350416292176,1345.1327999999999,1347.85024,142.44906021606675,59.128768188105724,667.9647182815434,905.2643882640774,901.5822093572782,124.0,640.1185877082207,829.1428264015192,0.7720245141435236,974.6789838596491,716.04544,83.79356483298044,71.80311520860512,544.4355699818097,781.4237746368206,779.1221189750224,171.0,552.5500500260843,663.4488682867143,0.8328449658117372,1055.4072587341773,716.04544,79.13836678670374,68.6851774747947,569.9268524204349,828.4942451274727,825.85168783544,158.0,585.8338989036657,691.3989844275106,0.8473166899265053,1080.812917124183,716.04544,79.13836678670374,68.02443451379618,612.8653853402822,848.5894459519303,845.794153306089,153.0,600.0433516759451,755.7658031105495,0.7939540916065686,base
1783419251961510601,1783419261961510601,1332.22496,1284.66976,64.74957282548488,60.51405600901892,775.2004914186982,1127.1149778032984,1122.5427150800924,124.0,796.9906439816373,940.3587403190603,0.8475389336108273,1354.6990725203252,1347.85024,71.22453010803338,58.47164170037463,658.6114231557075,874.1419310403176,870.5822010905729,123.0,618.111687158112,822.5004465175984,0.7515031630379628,992.8361142857144,716.04544,50.874664362880964,70.61352769093398,548.0309790999672,784.124023628611,781.7796976848961,168.0,554.4594143990715,668.553129525737,0.8293423363262064,1049.0343849056605,716.04544,83.79356483298044,68.8901385104685,567.6171701225009,812.567943143902,809.9926194530419,159.0,574.5723027718581,692.3235068083953,0.8299188126958607,1086.0435450980394,716.04544,83.79356483298044,67.7433020967089,621.8228910530073,851.2857641687804,848.480861109632,153.0,601.9499365713167,769.5164407638957,0.7822444130937132,base
1783419252961510601,1783419262961510601,1305.72992,1263.6096,94.96604014404448,62.28061801029784,773.5062705115629,1102.195324249398,1097.8674350086103,128.0,779.3697879688549,944.9419388735506,0.8247806091641233,1343.4344,1347.85024,36.525400055401725,58.69774419942399,656.0703765684865,884.8959505907179,881.2920702297197,124.0,625.7159273072127,815.534467192202,0.767246453067135,976.4481242352939,716.04544,83.79356483298044,71.17620666570835,529.4773942381004,756.0944808928436,753.8542372247599,170.0,534.6395346570522,646.3535456769637,0.8271626855502017,1036.2645187577639,716.04544,40.699731490304785,69.02104100258072,532.7279661880556,745.5583524251787,743.2252503313131,161.0,527.1893667701137,654.7013500062357,0.8052364131601264,1070.9431040000002,716.04544,83.79356483298044,68.59948385370487,619.9314233710313,830.2259094799259,827.5260258721627,155.0,587.0583705100244,772.2118712974589,0.7602296627785036,base
1783419253961510601,1783419263961510601,1311.6997291338585,1263.6096,49.12036559174714,60.21681577696356,753.2978345181964,1060.228208899617,1056.0189752535,127.0,749.6945561181867,924.064008195853,0.8113015434741301,1352.3019811382117,1347.85024,129.49914565096975,59.20584977419615,695.6035858620801,903.1705329828649,899.5570723662776,123.0,638.6380084400522,873.9562028020799,0.7307437219307442,953.5168993103449,716.04544,83.79356483298044,71.32930277920951,428.9735706017876,613.2762553960843,611.5060587380534,174.0,433.6517989312642,523.4593653680607,0.8284345025068947,1010.8876799999999,716.04544,41.89678241649022,70.84646775337617,535.4705174903187,765.4359441616956,763.0826317562269,163.0,541.2449466806626,653.4403599786463,0.8283004537680376,1043.4713237735848,716.04544,83.79356483298044,69.27248234266254,583.115134742635,756.3106067719823,753.9181329426582,159.0,534.7923587317811,732.8336013399575,0.7297596040273457,base
1783419254961510601,1783419264961510601,1279.8097230769233,1263.6096,34.74367322343091,61.117180854261626,715.0053059244342,1008.3170455252234,1004.404632992545,130.0,712.9878204768702,876.5211685555624,0.8134290945326714,1329.50752,1305.72992,35.61226505401669,59.516758960999624,651.8228170563252,878.927412746267,875.3473124540557,124.0,621.495533723633,810.3194558020161,0.7669759491440397,961.6656781395349,716.04544,64.74957282548488,70.67182851765027,430.3664319418516,590.5333544509754,588.8041169042018,172.0,417.57013944912376,532.2105981704427,0.7845956861524113,1042.3446278481013,716.04544,64.74957282548488,69.47230910652166,563.3396754214729,787.716404334313,785.2048917318926,158.0,556.999611156677,692.5163509936759,0.8043125773961163,1050.0755726582279,716.04544,64.74957282548488,69.71185183034461,606.259738714379,787.1898611649755,784.6866331252529,158.0,556.6272889110511,761.6986098135014,0.7307710447933453,base
1783419255961510601,1783419265961510601,1275.5061789312979,1263.6096,33.916442908587314,62.53460402089184,742.0513334819219,1035.8567351675908,1031.9048591865535,131.0,732.4613217747612,912.7050833081745,0.80251697417954,1307.7198563779527,1305.72992,101.74932872576193,60.57630465514528,649.3640570122834,895.0097073781551,891.5112380469727,127.0,632.867433314881,801.9269062723993,0.7891834384964608,970.4915836257309,716.04544,20.063247917755877,70.79098606274952,458.5999110572885,617.3043965933892,615.5740815031033,171.0,436.50012488745546,570.4047486917722,0.7652463025396825,1081.7264,716.04544,83.79356483298044,67.92534307746052,601.3614647925791,829.0142814204045,826.3340742386148,154.0,586.2016200928609,742.6001972631069,0.7893906064842678,1084.116471633987,716.04544,44.515331317520854,68.62768299512705,637.1904502936122,825.1233246906513,822.4113469651155,153.0,583.450298203949,801.1343299682109,0.7282802351349748,base
1783419256961510601,1783419266961510601,1292.3428415503874,1263.6096,59.35377509002781,62.221865759190116,762.0494652579043,1072.9140088143172,1068.7188241635047,129.0,758.6647712626469,934.6938843397947,0.8116719109577966,1304.084595,1326.79008,41.89678241649022,61.281512881098664,648.7119847227211,918.5276510629632,914.9196425636861,128.0,649.4971307739722,794.1858830298942,0.8178150035808737,986.4628790532544,716.04544,49.12036559174714,69.73997633104229,460.8458775763397,635.4275464697457,633.5407141666777,169.0,449.31512706148726,569.0481561828253,0.7895906913669536,1070.943104,716.04544,30.967187003492768,68.80060021507269,603.8719992964492,827.1933937508146,824.5414777655595,155.0,584.9140580739149,747.1683581377987,0.782841044730163,1059.4880492307693,716.04544,49.12036559174714,69.07533747386017,601.8106757198012,741.4391769449588,739.0460155477057,156.0,524.2766698551529,766.1064975207057,0.6843391506948852,base
1783419257961510601,1783419267961510601,1299.8067500000002,1263.6096,32.37478641274244,63.08444511545406,786.5037726825898,1101.1732684870008,1096.8745001912894,128.0,778.6470854085129,966.4526512355935,0.8056753576215303,1346.8312000000003,1347.85024,101.74932872576193,60.77307944815594,762.0456592991696,1077.8814421861941,1073.4922336415661,124.0,762.1772770849934,933.2577740694502,0.8166846269723915,997.5201532934133,716.04544,83.79356483298044,69.6511485860249,481.4921534620846,637.6747863784362,635.7675833103208,167.0,450.9041656398754,601.6744172685218,0.7494155521633904,1059.6726075949366,716.04544,83.79356483298044,69.02015098353056,592.4856339599785,810.4914068325121,807.9239182668803,158.0,573.1039698646942,733.3855553258321,0.7814497650012657,1054.3409215189872,716.04544,83.79356483298044,69.70931618897711,610.4817756900202,744.4821744090257,742.1074245807039,158.0,526.4283939971281,778.981751966041,0.6757904054472347,base
1783419258961510601,1783419268961510601,1339.4261760000002,1305.72992,28.48981204321334,62.91018292596678,812.0878598634353,1150.0004514119955,1145.3906849361192,125.0,813.1731175610129,994.1569919852701,0.8179524201073679,1402.0049371428574,1474.2112,45.9513097471183,58.40459093086111,768.8807551483168,1099.7593717629816,1095.1008618200467,119.0,777.6473094470616,938.0765226407517,0.8289806755401249,999.7901106586828,716.04544,50.874664362880964,68.9222311486487,450.39170201653116,593.8478184824354,592.0629972232473,167.0,419.913819441768,563.5082631262906,0.7451777496786397,1045.5905851572327,716.04544,64.74957282548488,69.04875833046623,562.6048688049373,776.5354924522625,774.0753486383037,159.0,549.09351254503,694.4757980279239,0.7906589604767648,1040.9736228571428,716.04544,28.48981204321334,70.19891122177842,601.6616911359143,751.241714088957,748.9470820826634,161.0,531.208110342507,763.4805517590008,0.6957716331066248,base
1783419259961510601,1783419269961510601,1275.1846497709926,1179.3689600000002,71.22453010803338,66.04296493077284,804.6576111692245,1122.8996838737974,1118.5792585179017,131.0,794.0099810593925,989.8089802654638,0.8021850648864001,1380.571810909091,1432.09088,37.48659479370178,57.91819393794423,726.1834633483458,1036.932427741233,1032.6066551149206,121.0,733.2219512880554,886.4973942183162,0.8270999509644199,992.5853980952381,716.04544,83.79356483298044,69.25610383594406,442.78585930990806,571.3083894625936,569.5973272482755,168.0,403.9760363377651,557.2434974425828,0.7249542402769625,1044.8471880000002,716.04544,83.79356483298044,68.65379081091875,547.4825801898979,747.0235240694864,744.6827505598892,160.0,528.225399575406,678.2059531178396,0.778856919711564,1023.0328029447854,716.04544,83.79356483298044,70.56284285134471,580.0549409549895,728.5460858401963,726.2956813761508,163.0,515.1598777045193,735.0051831479321,0.7008928501676086,base
1783419260961510601,1783419270961510601,1229.2319858823528,1158.3088000000002,89.03066263504171,66.2036055520916,663.4739462709758,882.8478089910903,879.5728099516572,136.0,624.2676724932858,827.9736054371971,0.7539704990519016,1405.1905075630254,1432.09088,101.74932872576193,59.0674127122907,850.0768397414904,1244.9679521400785,1239.6814401395925,119.0,880.3252813181788,1028.4818746413541,0.8559463253790062,1000.7989805988022,716.04544,83.79356483298044,69.10791754815675,459.25066324561044,610.464192395063,608.6279564222945,167.0,431.6633701141183,573.28501710225,0.7529646811563675,1059.9833396178344,716.04544,44.515331317520854,68.92762466773979,602.8231202494163,828.9207708039684,826.2608049497477,157.0,586.135498101866,744.9926291896606,0.7867668418940119,1020.96554797546,716.04544,14.10386734812542,70.91744476390829,615.3994839180682,758.9661579474877,756.8646336593248,163.0,536.6701169757689,783.2149400936224,0.6852143511353569,base
1783419261961510601,1783419271961510601,1212.637908405797,1263.6096,109.57620016620515,66.21097814891556,619.9480824985792,836.2176474259221,833.178547728495,138.0,591.295169042731,770.6206988659819,0.7672972837517341,1464.6048112280705,1495.27136,25.437332181440482,57.071337268650254,866.6048363310316,1275.64314511983,1269.9984708928866,114.0,902.0159182883668,1046.5139876188302,0.8619243784220745,1000.5467631137725,716.04544,83.79356483298044,69.25020918080983,463.3112266517147,633.572181101102,631.6609994103866,167.0,448.00318562774066,573.5513563027562,0.7811038727476335,1099.2849305263157,716.04544,83.79356483298044,67.46843050895085,644.276150606226,890.7115239668786,887.7684674478973,152.0,629.8281586779839,794.8847474622362,0.7923515461691585,1026.3920922699388,716.04544,83.79356483298044,70.21859164292835,590.444626861457,739.8337097790463,737.5474709143797,163.0,523.1414331351639,748.6061950369992,0.6988206036810957,base
1783419262961510601,1783419272961510601,1217.4924613138687,1137.2486400000003,32.37478641274244,65.23363369007122,635.5901367745008,863.9942177073173,860.8413801485946,137.0,610.9361702468103,788.2437071567001,0.7750600032704839,1501.1530263063069,1516.33152,33.1276884223411,56.25345769522743,891.696277653007,1306.7910242585028,1300.8727258441972,111.0,924.0407948469015,1078.5725788697812,0.8567256510592814,1000.5467631137725,716.04544,79.13836678670374,69.56643246989282,476.43534967024044,654.3673230229302,652.3941492745915,167.0,462.70757149640195,589.0094536344553,0.7855690068152328,1092.1000616993465,716.04544,47.48302007202224,67.5209142296419,631.4556327528263,863.5330256121586,860.6978059493601,153.0,610.610058188894,781.6969429963394,0.7811339978487716,1031.4278360493827,716.04544,79.13836678670374,70.11044833960257,608.7768652128217,790.8009042793764,788.3415661336321,162.0,559.180681984401,764.7725319887151,0.7311725494773029,base
1783419263961510601,1783419273961510601,1218.4148040875914,1179.3689600000002,32.37478641274244,65.16224644080654,631.239536831445,860.1208245302938,856.9608402242053,137.0,608.1972676651353,782.2881486515606,0.7774593910357611,1446.9782344827588,1432.09088,40.699731490304785,57.00501676531983,847.8507923544726,1240.753117480286,1235.3476288337672,116.0,877.3449431486592,1026.0774130434563,0.8550475159046328,1011.1429546666667,716.04544,41.89678241649022,69.829725723687,506.9290737958793,714.6017535916168,712.4331374040403,165.0,505.2997458124305,621.5225298893376,0.8130031036886134,1090.4482844444444,716.04544,83.79356483298044,67.38845868543774,634.8374919339501,812.9176841535017,810.3877899997796,153.0,574.8196070114051,800.5176400477401,0.7180598880708298,1074.0681600000003,716.04544,44.515331317520854,68.95418392315831,671.2053834640927,907.0519757035472,904.0923248353512,154.0,641.3826029086338,833.8749977817014,0.7691591720759808,base
1783419264961510601,1783419274961510601,1213.4956426277372,1137.2486400000003,49.12036559174714,66.01556673655936,646.409755149089,857.98430266106,854.9643788274125,137.0,606.6865185632468,807.2526724642131,0.7515447631920255,1413.3707377777775,1389.97056,43.166381883656584,59.04123822156173,857.8679890416355,1249.426483625398,1244.062487037093,117.0,883.4779391655819,1040.0040090059977,0.8494947437846723,976.6495251461989,716.04544,83.79356483298044,71.2464349427469,475.74810894778346,671.1220663302411,669.1464133194024,171.0,474.55496410604144,583.1563421209967,0.8137697043301263,1038.002636,716.04544,83.79356483298044,69.53738549796904,612.577460276237,820.1409112808279,817.6103568825639,160.0,579.9271998951881,763.1150051518007,0.7599473159092548,1064.6180882051283,716.04544,83.79356483298044,68.89443006749957,653.7094275530816,895.1036792832554,892.2249838232867,156.0,632.9338814862185,808.9310120009925,0.782432459747806,base
1783419265961510601,1783419275961510601,1190.5808437410071,1137.2486400000003,41.89678241649022,66.43631767326234,595.0142860327223,782.5746659267969,779.7413233830802,139.0,553.3638530616352,744.9686062032757,0.7428015737224792,1431.3646675862071,1389.97056,41.89678241649022,57.397886969973484,858.2086532784735,1263.3480478318968,1257.8522490221292,116.0,893.321971620721,1036.3552058217956,0.8619843530504061,946.0319600000001,716.04544,83.79356483298044,72.65769012326435,440.5174689729705,598.0743511303059,596.3771556619755,176.0,422.9024293379836,546.5236029401841,0.7738045110272564,1027.7878083950618,716.04544,83.79356483298044,69.96262096409734,604.9495744928012,788.9412535494934,786.487309024685,162.0,557.8657103426622,759.158020421296,0.7348479438221224,1012.6746026666667,716.04544,83.79356483298044,71.05309663182308,616.4717197688266,827.2488744491638,824.7307559048209,165.0,584.9532888519426,767.4565704195365,0.7621972518030212,base
1783419266961510601,1783419276961510601,1219.6310305882353,1179.3689600000002,29.676887545013905,64.73026987505182,588.2311570505634,753.4793900784184,750.6841220850525,136.0,532.7903862087535,741.686585042397,0.7183497678851742,1453.5205164912284,1389.97056,33.1276884223411,56.261711552098646,868.5630626396922,1274.7238048614693,1269.0709545649524,114.0,901.3658465574623,1050.034948415508,0.8584150917239604,937.7686975280899,716.04544,83.79356483298044,73.15203117365925,438.3060384961831,604.198355622668,602.4892100692202,178.0,427.2327544425497,541.2582133604543,0.7893326029918947,1036.787752546584,716.04544,83.79356483298044,69.12472327955207,602.53890878227,791.0868785480253,788.6109011443197,161.0,559.3828963290075,754.7527150268111,0.7411472462330083,1011.653504,716.04544,41.89678241649022,70.92084489872913,608.4549526735881,836.5488762575397,834.004646292369,165.0,591.5293831956924,751.9849421857451,0.7866239734486343,base
1783419267961510601,1783419277961510601,1251.8919169924811,1263.6096,20.063247917755877,61.83854668235263,585.7362347648146,730.7416369740869,728.00540846066,133.0,516.7123667997352,743.4231893282803,0.6950447258264978,1318.7671619047621,1263.6096,158.27673357340748,61.64681759641571,759.0911736856199,1112.9206663155078,1108.4608639624255,126.0,786.9537500743464,918.0363378193617,0.8572141620707743,937.7686975280898,716.04544,83.79356483298044,72.76976502018928,423.5831738895436,603.9397508056261,602.2312898133595,178.0,427.0498932227719,517.3582943704374,0.825443213860986,1021.5477609876543,716.04544,83.79356483298044,70.1520480195833,602.2266560498696,768.831743338665,766.441464239947,162.0,543.6461393062452,759.9857420522593,0.7153372875630372,1005.5592057831326,716.04544,83.79356483298044,70.29358137478597,570.7673625635451,783.3727749148558,780.9953103275931,166.0,553.9282013392175,705.7850510006857,0.7848398043481362,base
1783419268961510601,1783419278961510601,1250.8458666666666,1242.5494400000002,41.89678241649022,60.58079362111008,552.5484112326134,701.6280370167012,698.9807305036035,132.0,496.12594284511545,698.2471037744397,0.7105306132503243,1345.4531486178864,1305.72992,41.89678241649022,60.013698908834854,754.9038321765772,1097.705159591229,1093.2211530535812,123.0,776.1947620904194,915.7076156292806,0.8476447600111015,926.1790364444445,716.04544,49.12036559174714,73.10455544328619,399.1662785423954,566.6462860791,565.0683136333566,180.0,400.67943142070396,488.2575472729132,0.8206313116072383,1016.5379668292682,716.04544,43.166381883656584,70.3860494851671,596.9949819145307,761.1529993155286,758.8258457682618,164.0,538.2164473364899,753.6362151399742,0.7141594797650826,998.2768057485029,716.04544,83.79356483298044,70.0942840926327,533.1358164864128,732.9566504039259,730.7456147466883,167.0,518.2786178163936,658.9091248407722,0.7865707094914456,base
1783419269961510601,1783419279961510601,1313.0842615873016,1389.97056,36.525400055401725,57.088639752410764,558.4863296149815,712.6297834628656,709.7742602447665,126.0,503.90535236209325,704.878470847312,0.7148825977850688,1411.7446237288136,1389.97056,56.97962408642668,56.86570567810717,768.4310059732704,1063.9387979261994,1060.20505976725,118.0,752.3183387810795,947.6185838453271,0.7939041631373019,932.5297662569834,716.04544,79.13836678670374,72.80547885504025,406.21216153006037,589.4549185143187,587.7968618236958,179.0,416.8075700852385,493.104821624842,0.8452717390022785,1056.4735959493669,716.04544,28.48981204321334,68.51063765715058,616.9362974290015,781.7835581672023,779.3401128790553,158.0,552.8044554001764,780.015645494158,0.7087094452444758,1032.078648447205,716.04544,61.934374006985536,69.07933517691548,605.0009647039863,813.5672636203736,811.3151595935038,161.0,575.2789290573498,752.7146946066766,0.7642722178526832,base
1783419270961510601,1783419280961510601,1319.4357384126984,1368.9104,29.676887545013905,57.336872941569666,569.5521909658316,736.8905803139348,733.9482378471861,126.0,521.0603263324736,716.2593557009266,0.7274743738915179,1335.6217600000002,1326.79008,41.89678241649022,58.57350837045008,632.5639751513407,875.1356423673158,871.5822893015995,124.0,618.8143471759743,780.2619862476439,0.7930853457976504,916.8189653333335,716.04544,83.79356483298044,73.57057923901667,393.46711559716306,562.3274974897324,560.754550359675,180.0,397.62558672265106,480.187139045223,0.8280637992788965,1004.0367845783132,716.04544,83.79356483298044,69.69007556697248,518.5338192762758,656.4512991008895,654.4831253063556,166.0,464.1811651129575,655.76105895644,0.7078510667462361,998.4545734939761,716.04544,83.79356483298044,69.16113052653021,476.65587267008027,681.3900576957743,679.3359625827488,166.0,481.81553042977487,581.6601578414056,0.8283454246167327,base
1783419271961510601,1783419281961510601,1338.7522508800002,1389.97056,38.49974600434236,57.679410646943154,614.6230436583246,853.2241008820088,849.7791607120448,125.0,603.3205476054634,757.3144195181864,0.7966579429311593,1337.7413631999998,1305.72992,38.49974600434236,58.963065860141676,675.7992461105814,953.0190606168823,949.2006153236338,125.0,673.8862403622309,828.461169646767,0.8134192223511905,921.2947341436463,716.04544,64.74957282548488,73.4275422918358,416.00053425011555,586.3538549017904,584.7497950864592,181.0,414.614786975929,510.05899482630014,0.8128761401749722,981.2289931360948,716.04544,79.13836678670374,70.81083578353793,506.1871589692802,637.5067592044082,635.612568947202,169.0,450.7853524856966,640.9736053871139,0.7032822392326845,968.2775888372095,716.04544,83.79356483298044,70.60065655514401,454.95118825361084,665.4881805963815,663.5460390000496,172.0,470.57120529919916,550.6746205867621,0.8545358505859412,base
1783419272961510601,1783419282961510601,1318.3328503937007,1389.97056,71.22453010803338,58.40033623037976,588.2097370415795,816.4018229737075,813.1755374066332,127.0,577.2832651977678,724.8126691513816,0.7964585744253854,1312.694697322835,1305.72992,142.44906021606675,59.91568471716253,646.1231151086197,914.4320501932699,910.8231765535414,127.0,646.6011036259786,791.1407372586539,0.8173022487332493,935.4023874157302,716.04544,83.79356483298044,73.01900332341786,448.7548395476821,613.1824890222485,611.4478816177218,178.0,433.5854960924777,555.6650257340764,0.7803001376947879,990.4506016568048,716.04544,83.79356483298044,70.90489984012218,526.9872895546463,697.0353449061264,694.9776824981551,169.0,492.878419109826,658.7614429307506,0.7481895371973639,973.1753004651164,716.04544,83.79356483298044,70.46977008596993,435.5663747533545,598.148500410176,596.5241145943918,172.0,422.95486079659986,538.5078704121452,0.7854200171167282,base
1783419273961510601,1783419283961510601,1316.0112579527563,1305.72992,27.39405004155129,58.814332162830134,608.2720465905602,828.3832908667732,825.0962791642697,127.0,585.7554423935235,753.9463151843911,0.7769192986244206,1346.4915200000003,1347.85024,30.308310684269518,59.244581974727645,650.8194887167919,911.1988567633747,907.4981561272959,124.0,644.3148906268118,799.7256871236865,0.8056698703078689,933.82664,716.04544,41.89678241649022,73.01515610819588,443.352406649164,600.2933218813446,598.5914191469286,176.0,424.47147860329767,550.4858716528304,0.7710851457982467,996.0817493333333,716.04544,49.12036559174714,70.45765188633865,528.0694948848867,707.1971040170191,705.0456241551885,165.0,500.06386788592243,657.7863231121822,0.7602223553690991,950.1279080459769,716.04544,61.934374006985536,71.2156029278373,392.8451117121256,546.9112143199371,545.330918407504,174.0,386.72462835259677,483.60789334438886,0.7996656664931663,base
1783419274961510601,1783419284961510601,1316.011257952756,1305.72992,39.56918339335187,59.02828058921407,609.6131566313813,837.8044535290663,834.4799056372906,127.0,592.4172103986925,753.5100038406058,0.7862101463539558,1371.3271396721311,1411.03072,37.48659479370178,57.24775038018315,638.8333138676469,888.4042528417393,884.7256129633324,122.0,628.196671619362,786.7022795806662,0.7985189415673334,930.9123888607597,716.04544,41.89678241649022,73.38665212833256,452.3323492436358,609.3106350595436,607.3841790921281,158.0,430.847681899685,562.4893295391183,0.7659659646391954,984.9460259602649,716.04544,59.35377509002781,70.61591610932118,476.40945536893355,639.0887329569756,636.9598883541677,151.0,451.90397685379605,593.1469768798537,0.7618752087905062,941.0425924050634,716.04544,61.934374006985536,71.99301413395324,393.79933654522705,559.7001468765558,557.918943141508,158.0,395.76776928751923,481.49742608191843,0.8219519936129134,base
1783419275961510601,1783419285961510601,1319.327818582677,1347.85024,101.74932872576193,57.80001386555855,592.4925462427511,823.9209554748588,820.7331493815371,127.0,582.6000947779721,729.6460782384745,0.7984694390251454,1369.7806545454546,1389.97056,54.78810008310258,56.65017707185363,625.4099089800311,859.5401292702136,855.9860515222731,121.0,607.7866541089297,773.0283306867593,0.7862411117183393,933.8676662857143,716.04544,41.89678241649022,73.26356187101679,463.1704086086594,630.966609863566,628.7165093173984,140.0,446.16076853681426,574.0417573058119,0.7772270272302316,968.7673600000002,716.04544,59.35377509002781,71.19948439186935,461.2625569363727,629.9530454360283,627.6205125639665,136.0,445.4440702569329,571.2408274969754,0.7797833222263713,956.253351884058,716.04544,61.934374006985536,71.16536473884464,405.9675395180482,589.5184607662098,587.3630734625921,138.0,416.85250124244266,492.6827400961351,0.8460870806253614,base
1783419276961510601,1783419286961510601,1283.3737501538462,1305.72992,129.49914565096975,58.97141297631121,581.9889013371609,827.1372786927633,823.9688171681356,130.0,584.8743787358402,711.6060308263651,0.8219075631731851,1294.9549544186045,1263.6096,142.44906021606675,61.63668159067832,639.7896512191445,889.8732597637967,886.4285514960882,129.0,629.2354163755588,787.8407142332564,0.7986835473309402,957.4408873949582,716.04544,41.89678241649022,72.32743819220285,491.68335891346794,677.2239041700607,674.3823094980357,119.0,478.86961502027856,607.3277506997563,0.7884863065593994,949.9698618181818,716.04544,59.35377509002781,71.814728875493,429.3708320967362,600.1137993395722,597.61644345608,121.0,424.34453699663453,527.9057490418561,0.8038263227229782,957.5352746666666,716.04544,61.934374006985536,71.01936802262372,402.66337755872974,597.931829044973,595.4209433030198,120.0,422.8016510049759,484.6596467705369,0.8723681738767747,base
