host_timestamp_ns,red,infrared,ppg0,ppg1,ppg2,label
1783776157865269144,65918,34244,-342995,-377073,-394032,base
1783776157865269145,65979,34277,-342995,-377073,-394032,base
1783776157865269146,65994,34269,-342995,-377073,-394032,base
1783776157865269147,65979,34302,-342995,-377073,-394032,base
1783776157865269148,65994,34334,-342995,-377073,-394032,base
1783776157865269149,66009,34326,-342995,-377073,-394032,base
1783776157865269150,66024,34375,-342995,-377073,-394032,base
1783776157865269151,66070,34367,-342995,-377073,-394032,base
1783776157865269152,66055,34383,-342995,-377073,-394032,base
1783776157865269153,66100,34400,-342995,-377073,-394032,base
1783776157865269154,66130,34425,-342995,-377073,-394032,base
1783776157865269155,66085,34449,-342995,-377073,-394032,base
1783776157865269156,66130,34441,-342995,-377073,-394032,base
1783776157865269157,66146,34474,-342995,-377073,-394032,base
1783776157865269158,66191,34499,-342995,-377073,-394032,base
1783776157865269159,66206,34515,-342995,-377073,-394032,base
1783776157907236824,66252,34532,-343251,-377225,-394206,base
1783776157907236825,66222,34565,-343251,-377225,-394206,base
1783776157907236826,66252,34565,-343251,-377225,-394206,base
1783776157907236827,66283,34582,-343251,-377225,-394206,base
1783776157907236828,66313,34598,-343251,-377225,-394206,base
1783776157907236829,66344,34615,-343251,-377225,-394206,base
1783776157907236830,66328,34673,-343251,-377225,-394206,base
1783776157907236831,66359,34657,-343251,-377225,-394206,base
1783776157907236832,66374,34690,-343251,-377225,-394206,base
1783776157907236833,66390,34682,-343251,-377225,-394206,base
1783776157907236834,66405,34723,-343251,-377225,-394206,base
1783776157907236835,66420,34715,-343251,-377225,-394206,base
1783776157907236836,66451,34732,-343251,-377225,-394206,base
1783776157907236837,66466,34782,-343251,-377225,-394206,base
1783776157907236838,66512,34791,-343251,-377225,-394206,base
1783776157907236839,66497,34816,-343251,-377225,-394206,base
1783776157907236840,66528,34816,-343251,-377225,-394206,base
1783776157945729845,66512,34824,-343493,-377397,-394284,base
1783776157945729846,66574,34849,-343493,-377397,-394284,base
1783776157945729847,66604,34866,-343493,-377397,-394284,base
1783776157945729848,66574,34892,-343493,-377397,-394284,base
1783776157945729849,66604,34900,-343493,-377397,-394284,base
1783776157945729850,66635,34909,-343493,-377397,-394284,base
1783776157945729851,66666,34926,-343493,-377397,-394284,base
1783776157945729852,66666,34926,-343493,-377397,-394284,base
1783776157945729853,66666,34951,-343493,-377397,-394284,base
1783776157945729854,66682,34976,-343493,-377397,-394284,base
1783776157945729855,66697,34976,-343493,-377397,-394284,base
1783776157945729856,66728,34993,-343493,-377397,-394284,base
1783776157945729857,66743,35002,-343493,-377397,-394284,base
1783776157945729858,66759,35027,-343493,-377397,-394284,base
1783776157945729859,66743,35036,-343493,-377397,-394284,base
1783776157945729860,66743,35045,-343493,-377397,-394284,base
1783776157988137639,66790,35070,-343601,-377529,-394484,base
1783776157988137640,66774,35062,-343601,-377529,-394484,base
1783776157988137641,66805,35087,-343601,-377529,-394484,base
1783776157988137642,66790,35113,-343601,-377529,-394484,base
1783776157988137643,66805,35121,-343601,-377529,-394484,base
1783776157988137644,66836,35147,-343601,-377529,-394484,base
1783776157988137645,66852,35139,-343601,-377529,-394484,base
1783776157988137646,66883,35164,-343601,-377529,-394484,base
1783776157988137647,66883,35182,-343601,-377529,-394484,base
1783776157988137648,66898,35199,-343601,-377529,-394484,base
1783776157988137649,66898,35207,-343601,-377529,-394484,base
1783776157988137650,66930,35216,-343601,-377529,-394484,base
1783776157988137651,66945,35225,-343601,-377529,-394484,base
1783776157988137652,66961,35276,-343601,-377529,-394484,base
1783776157988137653,66976,35259,-343601,-377529,-394484,base
1783776157988137654,67007,35268,-343601,-377529,-394484,base
1783776157988137655,67007,35302,-343601,-377529,-394484,base
1783776158030781290,67039,35294,-343624,-377637,-394533,base
1783776158030781291,67023,35328,-343624,-377637,-394533,base
1783776158030781292,67039,35311,-343624,-377637,-394533,base
1783776158030781293,67023,35328,-343624,-377637,-394533,base
1783776158030781294,67054,35337,-343624,-377637,-394533,base
1783776158030781295,67054,35363,-343624,-377637,-394533,base
1783776158030781296,67085,35346,-343624,-377637,-394533,base
1783776158030781297,67070,35363,-343624,-377637,-394533,base
1783776158030781298,67039,35346,-343624,-377637,-394533,base
1783776158030781299,67023,35302,-343624,-377637,-394533,base
1783776158030781300,67007,35276,-343624,-377637,-394533,base
1783776158030781301,66976,35233,-343624,-377637,-394533,base
1783776158030781302,66914,35199,-343624,-377637,-394533,base
1783776158030781303,66836,35130,-343624,-377637,-394533,base
1783776158030781304,66728,35045,-343624,-377637,-394533,base
1783776158030781305,66635,34934,-343624,-377637,-394533,base
1783776158030781306,66481,34774,-343624,-377637,-394533,base
1783776158080069711,66359,34665,-343737,-377605,-394441,base
1783776158080069712,66206,34532,-343737,-377605,-394441,base
1783776158080069713,66070,34367,-343737,-377605,-394441,base
1783776158080069714,65888,34204,-343737,-377605,-394441,base
1783776158080069715,65768,34066,-343737,-377605,-394441,base
1783776158080069716,65588,33890,-343737,-377605,-394441,base
1783776158080069717,65380,33731,-343737,-377605,-394441,base
1783776158080069718,65232,33574,-343737,-377605,-394441,base
1783776158080069719,65099,33418,-343737,-377605,-394441,base
1783776158080069720,64937,33271,-343737,-377605,-394441,base
1783776158080069721,64777,33149,-343737,-377605,-394441,base
1783776158080069722,64631,32982,-343737,-377605,-394441,base
1783776158080069723,64487,32861,-343737,-377605,-394441,base
1783776158080069724,64371,32719,-343737,-377605,-394441,base
1783776158080069725,64271,32608,-343737,-377605,-394441,base
1783776158080069726,64128,32505,-343737,-377605,-394441,base
1783776158080069727,64000,32388,-343737,-377605,-394441,base
1783776158116050938,63914,32279,-343757,-377623,-394564,base
1783776158116050939,63815,32185,-343757,-377623,-394564,base
1783776158116050940,63716,32099,-343757,-377623,-394564,base
1783776158116050941,63590,32000,-343757,-377623,-394564,base
1783776158116050942,63534,31921,-343757,-377623,-394564,base
1783776158116050943,63464,31851,-343757,-377623,-394564,base
1783776158116050944,63394,31781,-343757,-377623,-394564,base
1783776158116050945,63310,31697,-343757,-377623,-394564,base
1783776158116050946,63282,31655,-343757,-377623,-394564,base
1783776158116050947,63199,31599,-343757,-377623,-394564,base
1783776158116050948,63171,31551,-343757,-377623,-394564,base
1783776158116050949,63144,31516,-343757,-377623,-394564,base
1783776158116050950,63102,31475,-343757,-377623,-394564,base
1783776158116050951,63088,31441,-343757,-377623,-394564,base
1783776158116050952,63033,31406,-343757,-377623,-394564,base
1783776158116050953,63005,31399,-343757,-377623,-394564,base
1783776158116050954,63005,31372,-343757,-377623,-394564,base
1783776158154534897,62978,31372,-343788,-377658,-394528,base
1783776158154534898,62964,31345,-343788,-377658,-394528,base
1783776158154534899,62950,31338,-343788,-377658,-394528,base
1783776158154534900,62964,31345,-343788,-377658,-394528,base
1783776158154534901,62950,31338,-343788,-377658,-394528,base
1783776158154534902,63005,31365,-343788,-377658,-394528,base
1783776158154534903,62992,31352,-343788,-377658,-394528,base
1783776158154534904,62992,31352,-343788,-377658,-394528,base
1783776158154534905,63033,31379,-343788,-377658,-394528,base
1783776158154534906,63061,31413,-343788,-377658,-394528,base
1783776158154534907,63061,31372,-343788,-377658,-394528,base
1783776158154534908,63088,31434,-343788,-377658,-394528,base
1783776158154534909,63116,31454,-343788,-377658,-394528,base
1783776158154534910,63144,31441,-343788,-377658,-394528,base
1783776158154534911,63171,31489,-343788,-377658,-394528,base
1783776158195524122,63227,31502,-343890,-377715,-394507,base
1783776158195524123,63254,31530,-343890,-377715,-394507,base
1783776158195524124,63268,31558,-343890,-377715,-394507,base
1783776158195524125,63268,31606,-343890,-377715,-394507,base
1783776158195524126,63324,31648,-343890,-377715,-394507,base
1783776158195524127,63352,31648,-343890,-377715,-394507,base
1783776158195524128,63352,31641,-343890,-377715,-394507,base
1783776158195524129,63380,31718,-343890,-377715,-394507,base
1783776158195524130,63422,31753,-343890,-377715,-394507,base
1783776158195524131,63464,31774,-343890,-377715,-394507,base
1783776158195524132,63520,31781,-343890,-377715,-394507,base
1783776158195524133,63534,31837,-343890,-377715,-394507,base
1783776158195524134,63590,31851,-343890,-377715,-394507,base
1783776158195524135,63590,31879,-343890,-377715,-394507,base
1783776158195524136,63618,31886,-343890,-377715,-394507,base
1783776158195524137,63674,31921,-343890,-377715,-394507,base
1783776158195524138,63702,31985,-343890,-377715,-394507,base
1783776158238082402,63730,32007,-343846,-377685,-394490,base
1783776158238082403,63730,32056,-343846,-377685,-394490,base
1783776158238082404,63787,32064,-343846,-377685,-394490,base
1783776158238082405,63815,32085,-343846,-377685,-394490,base
1783776158238082406,63843,32107,-343846,-377685,-394490,base
1783776158238082407,63872,32121,-343846,-377685,-394490,base
1783776158238082408,63900,32164,-343846,-377685,-394490,base
1783776158238082409,63943,32171,-343846,-377685,-394490,base
1783776158238082410,63943,32207,-343846,-377685,-394490,base
1783776158238082411,63957,32265,-343846,-377685,-394490,base
1783776158238082412,64014,32279,-343846,-377685,-394490,base
1783776158238082413,64056,32301,-343846,-377685,-394490,base
1783776158238082414,64042,32315,-343846,-377685,-394490,base
1783776158238082415,64113,32330,-343846,-377685,-394490,base
1783776158238082416,64113,32388,-343846,-377685,-394490,base
1783776158238082417,64171,32403,-343846,-377685,-394490,base
1783776158238082418,64171,32454,-343846,-377685,-394490,base
1783776158290995140,64199,32447,-343824,-377719,-394559,base
1783776158290995141,64271,32476,-343824,-377719,-394559,base
1783776158290995142,64271,32520,-343824,-377719,-394559,base
1783776158290995143,64300,32535,-343824,-377719,-394559,base
1783776158290995144,64271,32549,-343824,-377719,-394559,base
1783776158290995145,64328,32586,-343824,-377719,-394559,base
1783776158290995146,64357,32638,-343824,-377719,-394559,base
1783776158290995147,64400,32645,-343824,-377719,-394559,base
1783776158290995148,64415,32660,-343824,-377719,-394559,base
1783776158290995149,64429,32727,-343824,-377719,-394559,base
1783776158290995150,64429,32704,-343824,-377719,-394559,base
1783776158290995151,64443,32734,-343824,-377719,-394559,base
1783776158290995152,64472,32749,-343824,-377719,-394559,base
1783776158290995153,64501,32764,-343824,-377719,-394559,base
1783776158290995154,64501,32771,-343824,-377719,-394559,base
1783776158290995155,64530,32809,-343824,-377719,-394559,base
1783776158290995156,64545,32831,-343824,-377719,-394559,base
1783776158324062406,64559,32839,-343860,-377692,-394600,base
1783776158324062407,64545,32824,-343860,-377692,-394600,base
1783776158324062408,64530,32831,-343860,-377692,-394600,base
1783776158324062409,64530,32824,-343860,-377692,-394600,base
1783776158324062410,64573,32816,-343860,-377692,-394600,base
1783776158324062411,64559,32824,-343860,-377692,-394600,base
1783776158324062412,64559,32839,-343860,-377692,-394600,base
1783776158324062413,64573,32831,-343860,-377692,-394600,base
1783776158324062414,64545,32816,-343860,-377692,-394600,base
1783776158324062415,64545,32816,-343860,-377692,-394600,base
1783776158324062416,64501,32824,-343860,-377692,-394600,base
1783776158324062417,64487,32786,-343860,-377692,-394600,base
1783776158324062418,64487,32816,-343860,-377692,-394600,base
1783776158324062419,64472,32786,-343860,-377692,-394600,base
1783776158324062420,64458,32794,-343860,-377692,-394600,base
1783776158324062421,64472,32771,-343860,-377692,-394600,base
1783776158324062422,64458,32757,-343860,-377692,-394600,base
1783776158362940267,64443,32757,-343787,-377683,-394586,base
1783776158362940268,64415,32734,-343787,-377683,-394586,base
1783776158362940269,64400,32742,-343787,-377683,-394586,base
1783776158362940270,64400,32742,-343787,-377683,-394586,base
1783776158362940271,64400,32712,-343787,-377683,-394586,base
1783776158362940272,64400,32727,-343787,-377683,-394586,base
1783776158362940273,64386,32719,-343787,-377683,-394586,base
1783776158362940274,64415,32697,-343787,-377683,-394586,base
1783776158362940275,64386,32682,-343787,-377683,-394586,base
1783776158362940276,64371,32690,-343787,-377683,-394586,base
1783776158362940277,64400,32704,-343787,-377683,-394586,base
1783776158362940278,64400,32697,-343787,-377683,-394586,base
1783776158362940279,64386,32697,-343787,-377683,-394586,base
1783776158362940280,64415,32682,-343787,-377683,-394586,base
1783776158362940281,64386,32719,-343787,-377683,-394586,base
1783776158362940282,64386,32675,-343787,-377683,-394586,base
1783776158414345049,64400,32682,-343778,-377735,-394618,base
1783776158414345050,64386,32690,-343778,-377735,-394618,base
1783776158414345051,64386,32690,-343778,-377735,-394618,base
1783776158414345052,64386,32682,-343778,-377735,-394618,base
1783776158414345053,64386,32690,-343778,-377735,-394618,base
1783776158414345054,64400,32690,-343778,-377735,-394618,base
1783776158414345055,64400,32704,-343778,-377735,-394618,base
1783776158414345056,64429,32697,-343778,-377735,-394618,base
1783776158414345057,64429,32704,-343778,-377735,-394618,base
1783776158414345058,64429,32742,-343778,-377735,-394618,base
1783776158414345059,64443,32727,-343778,-377735,-394618,base
1783776158414345060,64429,32734,-343778,-377735,-394618,base
1783776158414345061,64443,32742,-343778,-377735,-394618,base
1783776158414345062,64487,32779,-343778,-377735,-394618,base
1783776158414345063,64487,32771,-343778,-377735,-394618,base
1783776158414345064,64501,32816,-343778,-377735,-394618,base
1783776158414345065,64545,32831,-343778,-377735,-394618,base
1783776158442735899,64545,32816,-343815,-377773,-394684,base
1783776158442735900,64559,32869,-343815,-377773,-394684,base
1783776158442735901,64588,32899,-343815,-377773,-394684,base
1783776158442735902,64602,32884,-343815,-377773,-394684,base
1783776158442735903,64617,32921,-343815,-377773,-394684,base
1783776158442735904,64631,32951,-343815,-377773,-394684,base
1783776158442735905,64646,32974,-343815,-377773,-394684,base
1783776158442735906,64675,32982,-343815,-377773,-394684,base
1783776158442735907,64704,32997,-343815,-377773,-394684,base
1783776158442735908,64719,33035,-343815,-377773,-394684,base
1783776158442735909,64762,33057,-343815,-377773,-394684,base
1783776158442735910,64777,33080,-343815,-377773,-394684,base
1783776158442735911,64806,33133,-343815,-377773,-394684,base
1783776158442735912,64850,33164,-343815,-377773,-394684,base
1783776158442735913,64850,33179,-343815,-377773,-394684,base
1783776158442735914,64908,33217,-343815,-377773,-394684,base
1783776158487810974,64937,33240,-344051,-377891,-394803,base
1783776158487810975,64952,33271,-344051,-377891,-394803,base
1783776158487810976,65011,33325,-344051,-377891,-394803,base
1783776158487810977,65040,33341,-344051,-377891,-394803,base
1783776158487810978,65084,33387,-344051,-377891,-394803,base
1783776158487810979,65114,33395,-344051,-377891,-394803,base
1783776158487810980,65158,33449,-344051,-377891,-394803,base
1783776158487810981,65202,33480,-344051,-377891,-394803,base
1783776158487810982,65202,33496,-344051,-377891,-394803,base
1783776158487810983,65232,33519,-344051,-377891,-394803,base
1783776158487810984,65276,33550,-344051,-377891,-394803,base
1783776158487810985,65306,33605,-344051,-377891,-394803,base
1783776158487810986,65335,33637,-344051,-377891,-394803,base
1783776158487810987,65380,33644,-344051,-377891,-394803,base
1783776158487810988,65395,33676,-344051,-377891,-394803,base
1783776158487810989,65424,33707,-344051,-377891,-394803,base
1783776158487810990,65469,33723,-344051,-377891,-394803,base
1783776158525820451,65484,33771,-344328,-378130,-395010,base
1783776158525820452,65499,33779,-344328,-378130,-395010,base
1783776158525820453,65558,33786,-344328,-378130,-395010,base
1783776158525820454,65558,33810,-344328,-378130,-395010,base
1783776158525820455,65588,33834,-344328,-378130,-395010,base
1783776158525820456,65618,33858,-344328,-378130,-395010,base
1783776158525820457,65633,33866,-344328,-378130,-395010,base
1783776158525820458,65603,33906,-344328,-378130,-395010,base
1783776158525820459,65678,33914,-344328,-378130,-395010,base
1783776158525820460,65693,33930,-344328,-378130,-395010,base
1783776158525820461,65708,34002,-344328,-378130,-395010,base
1783776158525820462,65723,33994,-344328,-378130,-395010,base
1783776158525820463,65738,34026,-344328,-378130,-395010,base
1783776158525820464,65753,34026,-344328,-378130,-395010,base
1783776158525820465,65783,34034,-344328,-378130,-395010,base
1783776158525820466,65798,34082,-344328,-378130,-395010,base
1783776158567571445,65813,34107,-344651,-378365,-395193,base
1783776158567571446,65828,34115,-344651,-378365,-395193,base
1783776158567571447,65888,34131,-344651,-378365,-395193,base
1783776158567571448,65903,34171,-344651,-378365,-395193,base
1783776158567571449,65918,34171,-344651,-378365,-395193,base
1783776158567571450,65949,34212,-344651,-378365,-395193,base
1783776158567571451,65964,34261,-344651,-378365,-395193,base
1783776158567571452,65979,34236,-344651,-378365,-395193,base
1783776158567571453,66009,34261,-344651,-378365,-395193,base
1783776158567571454,65994,34285,-344651,-378365,-395193,base
1783776158567571455,66055,34285,-344651,-378365,-395193,base
1783776158567571456,66070,34310,-344651,-378365,-395193,base
1783776158567571457,66070,34334,-344651,-378365,-395193,base
1783776158567571458,66130,34375,-344651,-378365,-395193,base
1783776158567571459,66115,34359,-344651,-378365,-395193,base
1783776158567571460,66146,34383,-344651,-378365,-395193,base
1783776158610408387,66161,34408,-344899,-378566,-395283,base
1783776158610408388,66146,34425,-344899,-378566,-395283,base
1783776158610408389,66161,34458,-344899,-378566,-395283,base
1783776158610408390,66206,34482,-344899,-378566,-395283,base
1783776158610408391,66191,34491,-344899,-378566,-395283,base
1783776158610408392,66237,34532,-344899,-378566,-395283,base
1783776158610408393,66237,34532,-344899,-378566,-395283,base
1783776158610408394,66252,34557,-344899,-378566,-395283,base
1783776158610408395,66283,34557,-344899,-378566,-395283,base
1783776158610408396,66298,34598,-344899,-378566,-395283,base
1783776158610408397,66344,34623,-344899,-378566,-395283,base
1783776158610408398,66328,34648,-344899,-378566,-395283,base
1783776158610408399,66374,34698,-344899,-378566,-395283,base
1783776158610408400,66390,34698,-344899,-378566,-395283,base
1783776158610408401,66405,34749,-344899,-378566,-395283,base
1783776158610408402,66451,34732,-344899,-378566,-395283,base
1783776158610408403,66466,34782,-344899,-378566,-395283,base
1783776158653164237,66512,34791,-344915,-378619,-395360,base
1783776158653164238,66528,34841,-344915,-378619,-395360,base
1783776158653164239,66558,34833,-344915,-378619,-395360,base
1783776158653164240,66589,34866,-344915,-378619,-395360,base
1783776158653164241,66620,34900,-344915,-378619,-395360,base
1783776158653164242,66651,34926,-344915,-378619,-395360,base
1783776158653164243,66651,34942,-344915,-378619,-395360,base
1783776158653164244,66651,34959,-344915,-378619,-395360,base
1783776158653164245,66697,35002,-344915,-378619,-395360,base
1783776158653164246,66728,35002,-344915,-378619,-395360,base
1783776158653164247,66712,35010,-344915,-378619,-395360,base
1783776158653164248,66774,35036,-344915,-378619,-395360,base
1783776158653164249,66805,35062,-344915,-378619,-395360,base
1783776158653164250,66774,35087,-344915,-378619,-395360,base
1783776158653164251,66836,35104,-344915,-378619,-395360,base
1783776158653164252,66821,35113,-344915,-378619,-395360,base
1783776158653164253,66852,35139,-344915,-378619,-395360,base
1783776158695000404,66883,35147,-345013,-378633,-395330,base
1783776158695000405,66836,35156,-345013,-378633,-395330,base
1783776158695000406,66883,35173,-345013,-378633,-395330,base
1783776158695000407,66883,35207,-345013,-378633,-395330,base
1783776158695000408,66898,35207,-345013,-378633,-395330,base
1783776158695000409,66930,35233,-345013,-378633,-395330,base
1783776158695000410,66945,35225,-345013,-378633,-395330,base
1783776158695000411,66961,35250,-345013,-378633,-395330,base
1783776158695000412,66961,35268,-345013,-378633,-395330,base
1783776158695000413,66976,35302,-345013,-378633,-395330,base
1783776158695000414,66976,35337,-345013,-378633,-395330,base
1783776158695000415,67023,35354,-345013,-378633,-395330,base
1783776158695000416,67054,35346,-345013,-378633,-395330,base
1783776158695000417,67039,35380,-345013,-378633,-395330,base
1783776158695000418,67054,35380,-345013,-378633,-395330,base
1783776158695000419,67054,35389,-345013,-378633,-395330,base
1783776158695000420,67085,35406,-345013,-378633,-395330,base
1783776158735524040,67117,35424,-345001,-378640,-395462,base
1783776158735524041,67148,35476,-345001,-378640,-395462,base
1783776158735524042,67164,35459,-345001,-378640,-395462,base
1783776158735524043,67179,35485,-345001,-378640,-395462,base
1783776158735524044,67179,35511,-345001,-378640,-395462,base
1783776158735524045,67226,35529,-345001,-378640,-395462,base
1783776158735524046,67226,35538,-345001,-378640,-395462,base
1783776158735524047,67274,35555,-345001,-378640,-395462,base
1783776158735524048,67258,35581,-345001,-378640,-395462,base
1783776158735524049,67289,35617,-345001,-378640,-395462,base
1783776158735524050,67321,35643,-345001,-378640,-395462,base
1783776158735524051,67336,35678,-345001,-378640,-395462,base
1783776158735524052,67368,35687,-345001,-378640,-395462,base
1783776158735524053,67384,35705,-345001,-378640,-395462,base
1783776158735524054,67399,35732,-345001,-378640,-395462,base
1783776158735524055,67384,35758,-345001,-378640,-395462,base
1783776158777552085,67431,35776,-345071,-378729,-395503,base
1783776158777552086,67463,35767,-345071,-378729,-395503,base
1783776158777552087,67447,35811,-345071,-378729,-395503,base
1783776158777552088,67510,35820,-345071,-378729,-395503,base
1783776158777552089,67478,35811,-345071,-378729,-395503,base
1783776158777552090,67510,35829,-345071,-378729,-395503,base
1783776158777552091,67510,35820,-345071,-378729,-395503,base
1783776158777552092,67510,35838,-345071,-378729,-395503,base
1783776158777552093,67510,35838,-345071,-378729,-395503,base
1783776158777552094,67463,35803,-345071,-378729,-395503,base
1783776158777552095,67463,35758,-345071,-378729,-395503,base
1783776158777552096,67384,35696,-345071,-378729,-395503,base
1783776158777552097,67305,35634,-345071,-378729,-395503,base
1783776158777552098,67226,35546,-345071,-378729,-395503,base
1783776158777552099,67148,35485,-345071,-378729,-395503,base
1783776158777552100,66976,35346,-345071,-378729,-395503,base
1783776158777552101,66852,35199,-345071,-378729,-395503,base
1783776158820874852,66666,35053,-345154,-378775,-395489,base
1783776158820874853,66543,34900,-345154,-378775,-395489,base
1783776158820874854,66328,34732,-345154,-378775,-395489,base
1783776158820874855,66176,34540,-345154,-378775,-395489,base
1783776158820874856,65979,34351,-345154,-378775,-395489,base
1783776158820874857,65828,34188,-345154,-378775,-395489,base
1783776158820874858,65648,34026,-345154,-378775,-395489,base
1783776158820874859,65484,33858,-345154,-378775,-395489,base
1783776158820874860,65320,33723,-345154,-378775,-395489,base
1783776158820874861,65158,33558,-345154,-378775,-395489,base
1783776158820874862,65025,33395,-345154,-378775,-395489,base
1783776158820874863,64864,33264,-345154,-378775,-395489,base
1783776158820874864,64733,33133,-345154,-378775,-395489,base
1783776158820874865,64617,32974,-345154,-378775,-395489,base
1783776158820874866,64472,32891,-345154,-378775,-395489,base
1783776158820874867,64343,32757,-345154,-378775,-395489,base
1783776158820874868,64271,32645,-345154,-378775,-395489,base
1783776158862421896,64171,32557,-345218,-378845,-395546,base
1783776158862421897,64042,32425,-345218,-378845,-395546,base
1783776158862421898,63943,32345,-345218,-378845,-395546,base
1783776158862421899,63858,32294,-345218,-378845,-395546,base
1783776158862421900,63759,32185,-345218,-378845,-395546,base
1783776158862421901,63702,32121,-345218,-378845,-395546,base
1783776158862421902,63646,32064,-345218,-378845,-395546,base
1783776158862421903,63576,31985,-345218,-378845,-395546,base
1783776158862421904,63520,31964,-345218,-378845,-395546,base
1783776158862421905,63492,31886,-345218,-378845,-395546,base
1783776158862421906,63450,31851,-345218,-378845,-395546,base
1783776158862421907,63422,31809,-345218,-378845,-395546,base
1783776158862421908,63380,31774,-345218,-378845,-395546,base
1783776158862421909,63324,31746,-345218,-378845,-395546,base
1783776158862421910,63324,31732,-345218,-378845,-395546,base
1783776158862421911,63338,31711,-345218,-378845,-395546,base
1783776158862421912,63324,31718,-345218,-378845,-395546,base
1783776158906804412,63324,31690,-345234,-378799,-395511,base
1783776158906804413,63310,31718,-345234,-378799,-395511,base
1783776158906804414,63310,31690,-345234,-378799,-395511,base
1783776158906804415,63310,31711,-345234,-378799,-395511,base
1783776158906804416,63324,31690,-345234,-378799,-395511,base
1783776158906804417,63324,31704,-345234,-378799,-395511,base
1783776158906804418,63324,31697,-345234,-378799,-395511,base
1783776158906804419,63366,31732,-345234,-378799,-395511,base
1783776158906804420,63380,31732,-345234,-378799,-395511,base
1783776158906804421,63408,31767,-345234,-378799,-395511,base
1783776158906804422,63436,31795,-345234,-378799,-395511,base
1783776158906804423,63450,31802,-345234,-378799,-395511,base
1783776158906804424,63492,31823,-345234,-378799,-395511,base
1783776158906804425,63520,31872,-345234,-378799,-395511,base
1783776158906804426,63548,31921,-345234,-378799,-395511,base
1783776158906804427,63562,31921,-345234,-378799,-395511,base
1783776158906804428,63618,31978,-345234,-378799,-395511,base
1783776158943686368,63660,31992,-345163,-378779,-395545,base
1783776158943686369,63688,32014,-345163,-378779,-395545,base
1783776158943686370,63730,32035,-345163,-378779,-395545,base
1783776158943686371,63759,32092,-345163,-378779,-395545,base
1783776158943686372,63787,32121,-345163,-378779,-395545,base
1783776158943686373,63815,32135,-345163,-378779,-395545,base
1783776158943686374,63858,32200,-345163,-378779,-395545,base
1783776158943686375,63886,32229,-345163,-378779,-395545,base
1783776158943686376,63928,32279,-345163,-378779,-395545,base
1783776158943686377,63957,32279,-345163,-378779,-395545,base
1783776158943686378,64000,32337,-345163,-378779,-395545,base
1783776158943686379,64042,32381,-345163,-378779,-395545,base
1783776158943686380,64085,32417,-345163,-378779,-395545,base
1783776158943686381,64156,32468,-345163,-378779,-395545,base
1783776158943686382,64171,32505,-345163,-378779,-395545,base
1783776158984694888,64199,32549,-345201,-378818,-395610,base
1783776158984694889,64257,32564,-345201,-378818,-395610,base
1783776158984694890,64271,32616,-345201,-378818,-395610,base
1783776158984694891,64328,32630,-345201,-378818,-395610,base
1783776158984694892,64386,32690,-345201,-378818,-395610,base
1783776158984694893,64429,32734,-345201,-378818,-395610,base
1783776158984694894,64458,32757,-345201,-378818,-395610,base
1783776158984694895,64530,32824,-345201,-378818,-395610,base
1783776158984694896,64516,32869,-345201,-378818,-395610,base
1783776158984694897,64559,32906,-345201,-378818,-395610,base
1783776158984694898,64617,32914,-345201,-378818,-395610,base
1783776158984694899,64646,32967,-345201,-378818,-395610,base
1783776158984694900,64675,33019,-345201,-378818,-395610,base
1783776158984694901,64733,33050,-345201,-378818,-395610,base
1783776158984694902,64777,33073,-345201,-378818,-395610,base
1783776158984694903,64821,33126,-345201,-378818,-395610,base
1783776158984694904,64835,33164,-345201,-378818,-395610,base
1783776159027133164,64908,33225,-345212,-378770,-395534,base
1783776159027133165,64937,33233,-345212,-378770,-395534,base
1783776159027133166,64981,33271,-345212,-378770,-395534,base
1783776159027133167,64996,33348,-345212,-378770,-395534,base
1783776159027133168,65040,33348,-345212,-378770,-395534,base
1783776159027133169,65114,33395,-345212,-378770,-395534,base
1783776159027133170,65114,33410,-345212,-378770,-395534,base
1783776159027133171,65158,33480,-345212,-378770,-395534,base
1783776159027133172,65187,33496,-345212,-378770,-395534,base
1783776159027133173,65202,33496,-345212,-378770,-395534,base
1783776159027133174,65246,33542,-345212,-378770,-395534,base
1783776159027133175,65261,33574,-345212,-378770,-395534,base
1783776159027133176,65320,33605,-345212,-378770,-395534,base
1783776159027133177,65335,33605,-345212,-378770,-395534,base
1783776159027133178,65320,33652,-345212,-378770,-395534,base
1783776159027133179,65335,33644,-345212,-378770,-395534,base
1783776159027133180,65365,33652,-345212,-378770,-395534,base
1783776159070654246,65350,33668,-345153,-378758,-395502,base
1783776159070654247,65380,33668,-345153,-378758,-395502,base
1783776159070654248,65365,33668,-345153,-378758,-395502,base
1783776159070654249,65365,33668,-345153,-378758,-395502,base
1783776159070654250,65365,33660,-345153,-378758,-395502,base
1783776159070654251,65365,33660,-345153,-378758,-395502,base
1783776159070654252,65350,33637,-345153,-378758,-395502,base
1783776159070654253,65320,33644,-345153,-378758,-395502,base
1783776159070654254,65320,33605,-345153,-378758,-395502,base
1783776159070654255,65291,33613,-345153,-378758,-395502,base
1783776159070654256,65291,33582,-345153,-378758,-395502,base
1783776159070654257,65246,33550,-345153,-378758,-395502,base
1783776159070654258,65217,33574,-345153,-378758,-395502,base
1783776159070654259,65232,33527,-345153,-378758,-395502,base
1783776159070654260,65202,33496,-345153,-378758,-395502,base
1783776159070654261,65173,33457,-345153,-378758,-395502,base
1783776159070654262,65158,33465,-345153,-378758,-395502,base
1783776159115715051,65128,33418,-345205,-378808,-395558,base
1783776159115715052,65070,33410,-345205,-378808,-395558,base
1783776159115715053,65070,33379,-345205,-378808,-395558,base
1783776159115715054,65070,33348,-345205,-378808,-395558,base
1783776159115715055,65011,33302,-345205,-378808,-395558,base
1783776159115715056,64996,33310,-345205,-378808,-395558,base
1783776159115715057,64981,33256,-345205,-378808,-395558,base
1783776159115715058,64937,33248,-345205,-378808,-395558,base
1783776159115715059,64908,33225,-345205,-378808,-395558,base
1783776159115715060,64850,33172,-345205,-378808,-395558,base
1783776159115715061,64864,33172,-345205,-378808,-395558,base
1783776159115715062,64835,33149,-345205,-378808,-395558,base
1783776159115715063,64821,33133,-345205,-378808,-395558,base
1783776159115715064,64821,33118,-345205,-378808,-395558,base
1783776159115715065,64791,33080,-345205,-378808,-395558,base
1783776159115715066,64748,33065,-345205,-378808,-395558,base
1783776159115715067,64733,33042,-345205,-378808,-395558,base
1783776159155753855,64733,33035,-345630,-379101,-395828,base
1783776159155753856,64733,33027,-345630,-379101,-395828,base
1783776159155753857,64733,33035,-345630,-379101,-395828,base
1783776159155753858,64690,33004,-345630,-379101,-395828,base
1783776159155753859,64690,32982,-345630,-379101,-395828,base
1783776159155753860,64675,32974,-345630,-379101,-395828,base
1783776159155753861,64675,32959,-345630,-379101,-395828,base
1783776159155753862,64660,32982,-345630,-379101,-395828,base
1783776159155753863,64660,32982,-345630,-379101,-395828,base
1783776159155753864,64660,32967,-345630,-379101,-395828,base
1783776159155753865,64704,32982,-345630,-379101,-395828,base
1783776159155753866,64646,32959,-345630,-379101,-395828,base
1783776159155753867,64646,32982,-345630,-379101,-395828,base
1783776159155753868,64690,32967,-345630,-379101,-395828,base
1783776159155753869,64675,32989,-345630,-379101,-395828,base
1783776159155753870,64690,32982,-345630,-379101,-395828,base
1783776159194910856,64690,33004,-345921,-379353,-396122,base
1783776159194910857,64719,33004,-345921,-379353,-396122,base
1783776159194910858,64733,33027,-345921,-379353,-396122,base
1783776159194910859,64748,33065,-345921,-379353,-396122,base
1783776159194910860,64762,33027,-345921,-379353,-396122,base
1783776159194910861,64791,33050,-345921,-379353,-396122,base
1783776159194910862,64762,33073,-345921,-379353,-396122,base
1783776159194910863,64762,33073,-345921,-379353,-396122,base
1783776159194910864,64762,33095,-345921,-379353,-396122,base
1783776159194910865,64791,33126,-345921,-379353,-396122,base
1783776159194910866,64821,33156,-345921,-379353,-396122,base
1783776159194910867,64850,33164,-345921,-379353,-396122,base
1783776159194910868,64850,33156,-345921,-379353,-396122,base
1783776159194910869,64850,33179,-345921,-379353,-396122,base
1783776159194910870,64879,33187,-345921,-379353,-396122,base
1783776159194910871,64923,33217,-345921,-379353,-396122,base
1783776159194910872,64923,33248,-345921,-379353,-396122,base
1783776159237268901,64952,33271,-346147,-379497,-396252,base
1783776159237268902,64952,33325,-346147,-379497,-396252,base
1783776159237268903,65040,33325,-346147,-379497,-396252,base
1783776159237268904,65025,33371,-346147,-379497,-396252,base
1783776159237268905,65070,33387,-346147,-379497,-396252,base
1783776159237268906,65055,33418,-346147,-379497,-396252,base
1783776159237268907,65114,33449,-346147,-379497,-396252,base
1783776159237268908,65173,33480,-346147,-379497,-396252,base
1783776159237268909,65173,33519,-346147,-379497,-396252,base
1783776159237268910,65217,33542,-346147,-379497,-396252,base
1783776159237268911,65261,33589,-346147,-379497,-396252,base
1783776159237268912,65276,33597,-346147,-379497,-396252,base
1783776159237268913,65320,33637,-346147,-379497,-396252,base
1783776159237268914,65350,33652,-346147,-379497,-396252,base
1783776159237268915,65365,33684,-346147,-379497,-396252,base
1783776159237268916,65395,33731,-346147,-379497,-396252,base
1783776159237268917,65454,33763,-346147,-379497,-396252,base
1783776159280632259,65469,33786,-346258,-379572,-396251,base
1783776159280632260,65499,33834,-346258,-379572,-396251,base
1783776159280632261,65529,33858,-346258,-379572,-396251,base
1783776159280632262,65543,33874,-346258,-379572,-396251,base
1783776159280632263,65558,33898,-346258,-379572,-396251,base
1783776159280632264,65588,33930,-346258,-379572,-396251,base
1783776159280632265,65633,33962,-346258,-379572,-396251,base
1783776159280632266,65678,33978,-346258,-379572,-396251,base
1783776159280632267,65708,34002,-346258,-379572,-396251,base
1783776159280632268,65708,34042,-346258,-379572,-396251,base
1783776159280632269,65738,34042,-346258,-379572,-396251,base
1783776159280632270,65798,34082,-346258,-379572,-396251,base
1783776159280632271,65813,34147,-346258,-379572,-396251,base
1783776159280632272,65798,34147,-346258,-379572,-396251,base
1783776159280632273,65888,34147,-346258,-379572,-396251,base
1783776159280632274,65873,34204,-346258,-379572,-396251,base
1783776159280632275,65918,34228,-346258,-379572,-396251,base
1783776159322295977,65934,34261,-346366,-379690,-396337,base
1783776159322295978,66009,34269,-346366,-379690,-396337,base
1783776159322295979,65979,34302,-346366,-379690,-396337,base
1783776159322295980,66009,34293,-346366,-379690,-396337,base
1783776159322295981,66055,34351,-346366,-379690,-396337,base
1783776159322295982,66085,34367,-346366,-379690,-396337,base
1783776159322295983,66070,34383,-346366,-379690,-396337,base
1783776159322295984,66130,34425,-346366,-379690,-396337,base
1783776159322295985,66176,34441,-346366,-379690,-396337,base
1783776159322295986,66206,34482,-346366,-379690,-396337,base
1783776159322295987,66191,34474,-346366,-379690,-396337,base
1783776159322295988,66237,34499,-346366,-379690,-396337,base
1783776159322295989,66267,34524,-346366,-379690,-396337,base
1783776159322295990,66267,34515,-346366,-379690,-396337,base
1783776159322295991,66267,34524,-346366,-379690,-396337,base
1783776159322295992,66298,34573,-346366,-379690,-396337,base
1783776159322295993,66313,34582,-346366,-379690,-396337,base
1783776159359555505,66313,34573,-346363,-379653,-396327,base
1783776159359555506,66328,34598,-346363,-379653,-396327,base
1783776159359555507,66344,34598,-346363,-379653,-396327,base
1783776159359555508,66374,34640,-346363,-379653,-396327,base
1783776159359555509,66390,34640,-346363,-379653,-396327,base
1783776159359555510,66405,34640,-346363,-379653,-396327,base
1783776159359555511,66435,34648,-346363,-379653,-396327,base
1783776159359555512,66451,34682,-346363,-379653,-396327,base
1783776159359555513,66420,34673,-346363,-379653,-396327,base
1783776159359555514,66451,34690,-346363,-379653,-396327,base
1783776159359555515,66451,34740,-346363,-379653,-396327,base
1783776159359555516,66466,34732,-346363,-379653,-396327,base
1783776159359555517,66497,34732,-346363,-379653,-396327,base
1783776159359555518,66466,34740,-346363,-379653,-396327,base
1783776159359555519,66528,34757,-346363,-379653,-396327,base
1783776159402214387,66497,34774,-346454,-379720,-396405,base
1783776159402214388,66512,34791,-346454,-379720,-396405,base
1783776159402214389,66543,34816,-346454,-379720,-396405,base
1783776159402214390,66543,34824,-346454,-379720,-396405,base
1783776159402214391,66574,34841,-346454,-379720,-396405,base
1783776159402214392,66574,34833,-346454,-379720,-396405,base
1783776159402214393,66604,34866,-346454,-379720,-396405,base
1783776159402214394,66635,34858,-346454,-379720,-396405,base
1783776159402214395,66666,34875,-346454,-379720,-396405,base
1783776159402214396,66635,34900,-346454,-379720,-396405,base
1783776159402214397,66682,34909,-346454,-379720,-396405,base
1783776159402214398,66682,34917,-346454,-379720,-396405,base
1783776159402214399,66697,34909,-346454,-379720,-396405,base
1783776159402214400,66682,34917,-346454,-379720,-396405,base
1783776159402214401,66697,34951,-346454,-379720,-396405,base
1783776159402214402,66728,34951,-346454,-379720,-396405,base
1783776159402214403,66743,34959,-346454,-379720,-396405,base
1783776159441732383,66743,34968,-346556,-379810,-396453,base
1783776159441732384,66759,35002,-346556,-379810,-396453,base
1783776159441732385,66774,35019,-346556,-379810,-396453,base
1783776159441732386,66790,35010,-346556,-379810,-396453,base
1783776159441732387,66774,35010,-346556,-379810,-396453,base
1783776159441732388,66805,35019,-346556,-379810,-396453,base
1783776159441732389,66790,35070,-346556,-379810,-396453,base
1783776159441732390,66836,35070,-346556,-379810,-396453,base
1783776159441732391,66836,35079,-346556,-379810,-396453,base
1783776159441732392,66867,35070,-346556,-379810,-396453,base
1783776159441732393,66867,35087,-346556,-379810,-396453,base
1783776159441732394,66883,35113,-346556,-379810,-396453,base
1783776159441732395,66883,35130,-346556,-379810,-396453,base
1783776159441732396,66883,35130,-346556,-379810,-396453,base
1783776159441732397,66945,35156,-346556,-379810,-396453,base
1783776159441732398,66961,35173,-346556,-379810,-396453,base
1783776159488093722,66961,35190,-346662,-379781,-396460,base
1783776159488093723,66992,35225,-346662,-379781,-396460,base
1783776159488093724,66976,35216,-346662,-379781,-396460,base
1783776159488093725,66992,35233,-346662,-379781,-396460,base
1783776159488093726,67007,35242,-346662,-379781,-396460,base
1783776159488093727,66992,35242,-346662,-379781,-396460,base
1783776159488093728,67070,35276,-346662,-379781,-396460,base
1783776159488093729,67070,35302,-346662,-379781,-396460,base
1783776159488093730,67039,35311,-346662,-379781,-396460,base
1783776159488093731,67070,35328,-346662,-379781,-396460,base
1783776159488093732,67085,35328,-346662,-379781,-396460,base
1783776159488093733,67132,35354,-346662,-379781,-396460,base
1783776159488093734,67117,35372,-346662,-379781,-396460,base
1783776159488093735,67101,35424,-346662,-379781,-396460,base
1783776159488093736,67179,35424,-346662,-379781,-396460,base
1783776159488093737,67211,35424,-346662,-379781,-396460,base
1783776159488093738,67211,35450,-346662,-379781,-396460,base
1783776159524173970,67226,35476,-346667,-379850,-396426,base
1783776159524173971,67258,35476,-346667,-379850,-396426,base
1783776159524173972,67274,35538,-346667,-379850,-396426,base
1783776159524173973,67289,35520,-346667,-379850,-396426,base
1783776159524173974,67274,35520,-346667,-379850,-396426,base
1783776159524173975,67336,35581,-346667,-379850,-396426,base
1783776159524173976,67321,35573,-346667,-379850,-396426,base
1783776159524173977,67336,35590,-346667,-379850,-396426,base
1783776159524173978,67321,35590,-346667,-379850,-396426,base
1783776159524173979,67336,35581,-346667,-379850,-396426,base
1783776159524173980,67336,35555,-346667,-379850,-396426,base
1783776159524173981,67258,35520,-346667,-379850,-396426,base
1783776159524173982,67195,35494,-346667,-379850,-396426,base
1783776159524173983,67164,35450,-346667,-379850,-396426,base
1783776159524173984,67132,35354,-346667,-379850,-396426,base
1783776159524173985,67023,35285,-346667,-379850,-396426,base
1783776159524173986,66883,35164,-346667,-379850,-396426,base
1783776159564217891,66774,35053,-346704,-379850,-396443,base
1783776159564217892,66635,34883,-346704,-379850,-396443,base
1783776159564217893,66512,34740,-346704,-379850,-396443,base
1783776159564217894,66298,34573,-346704,-379850,-396443,base
1783776159564217895,66146,34441,-346704,-379850,-396443,base
1783776159564217896,65994,34285,-346704,-379850,-396443,base
1783776159564217897,65828,34107,-346704,-379850,-396443,base
1783776159564217898,65663,33962,-346704,-379850,-396443,base
1783776159564217899,65514,33779,-346704,-379850,-396443,base
1783776159564217900,65320,33613,-346704,-379850,-396443,base
1783776159564217901,65173,33465,-346704,-379850,-396443,base
1783776159564217902,65025,33348,-346704,-379850,-396443,base
1783776159564217903,64923,33187,-346704,-379850,-396443,base
1783776159564217904,64791,33080,-346704,-379850,-396443,base
1783776159564217905,64675,32951,-346704,-379850,-396443,base
1783776159564217906,64559,32839,-346704,-379850,-396443,base
1783776159609133899,64429,32704,-346590,-379832,-396461,base
1783776159609133900,64285,32593,-346590,-379832,-396461,base
1783776159609133901,64199,32512,-346590,-379832,-396461,base
1783776159609133902,64113,32432,-346590,-379832,-396461,base
1783776159609133903,64014,32323,-346590,-379832,-396461,base
1783776159609133904,63957,32229,-346590,-379832,-396461,base
1783776159609133905,63858,32164,-346590,-379832,-396461,base
1783776159609133906,63787,32085,-346590,-379832,-396461,base
1783776159609133907,63716,32028,-346590,-379832,-396461,base
1783776159609133908,63688,31943,-346590,-379832,-396461,base
1783776159609133909,63604,31886,-346590,-379832,-396461,base
1783776159609133910,63562,31844,-346590,-379832,-396461,base
1783776159609133911,63548,31816,-346590,-379832,-396461,base
1783776159609133912,63492,31767,-346590,-379832,-396461,base
1783776159609133913,63464,31725,-346590,-379832,-396461,base
1783776159609133914,63464,31690,-346590,-379832,-396461,base
1783776159609133915,63352,31662,-346590,-379832,-396461,base
1783776159651556422,63338,31641,-346554,-379766,-396410,base
1783776159651556423,63338,31641,-346554,-379766,-396410,base
1783776159651556424,63352,31648,-346554,-379766,-396410,base
1783776159651556425,63352,31634,-346554,-379766,-396410,base
1783776159651556426,63366,31627,-346554,-379766,-396410,base
1783776159651556427,63366,31606,-346554,-379766,-396410,base
1783776159651556428,63352,31634,-346554,-379766,-396410,base
1783776159651556429,63338,31627,-346554,-379766,-396410,base
1783776159651556430,63352,31641,-346554,-379766,-396410,base
1783776159651556431,63394,31641,-346554,-379766,-396410,base
1783776159651556432,63436,31690,-346554,-379766,-396410,base
1783776159651556433,63450,31697,-346554,-379766,-396410,base
1783776159651556434,63464,31739,-346554,-379766,-396410,base
1783776159651556435,63464,31753,-346554,-379766,-396410,base
1783776159651556436,63506,31767,-346554,-379766,-396410,base
1783776159651556437,63534,31823,-346554,-379766,-396410,base
1783776159651556438,63562,31823,-346554,-379766,-396410,base
1783776159694144120,63604,31872,-346492,-379704,-396328,base
1783776159694144121,63646,31907,-346492,-379704,-396328,base
1783776159694144122,63702,31929,-346492,-379704,-396328,base
1783776159694144123,63730,31964,-346492,-379704,-396328,base
1783776159694144124,63759,32021,-346492,-379704,-396328,base
1783776159694144125,63773,32085,-346492,-379704,-396328,base
1783776159694144126,63858,32092,-346492,-379704,-396328,base
1783776159694144127,63872,32150,-346492,-379704,-396328,base
1783776159694144128,63900,32185,-346492,-379704,-396328,base
1783776159694144129,64000,32221,-346492,-379704,-396328,base
1783776159694144130,64000,32265,-346492,-379704,-396328,base
1783776159694144131,64042,32337,-346492,-379704,-396328,base
1783776159694144132,64085,32374,-346492,-379704,-396328,base
1783776159694144133,64156,32432,-346492,-379704,-396328,base
1783776159694144134,64185,32454,-346492,-379704,-396328,base
1783776159694144135,64242,32512,-346492,-379704,-396328,base
1783776159694144136,64300,32549,-346492,-379704,-396328,base
1783776159731646424,64328,32623,-346485,-379652,-396343,base
1783776159731646425,64386,32638,-346485,-379652,-396343,base
1783776159731646426,64429,32690,-346485,-379652,-396343,base
1783776159731646427,64443,32734,-346485,-379652,-396343,base
1783776159731646428,64501,32771,-346485,-379652,-396343,base
1783776159731646429,64559,32839,-346485,-379652,-396343,base
1783776159731646430,64631,32876,-346485,-379652,-396343,base
1783776159731646431,64675,32929,-346485,-379652,-396343,base
1783776159731646432,64675,32982,-346485,-379652,-396343,base
1783776159731646433,64748,33012,-346485,-379652,-396343,base
1783776159731646434,64835,33080,-346485,-379652,-396343,base
1783776159731646435,64864,33118,-346485,-379652,-396343,base
1783776159731646436,64894,33149,-346485,-379652,-396343,base
1783776159731646437,64952,33210,-346485,-379652,-396343,base
1783776159731646438,64996,33248,-346485,-379652,-396343,base
1783776159778803094,65025,33294,-346561,-379751,-396361,base
1783776159778803095,65084,33356,-346561,-379751,-396361,base
1783776159778803096,65128,33402,-346561,-379751,-396361,base
1783776159778803097,65202,33433,-346561,-379751,-396361,base
1783776159778803098,65217,33472,-346561,-379751,-396361,base
1783776159778803099,65276,33511,-346561,-379751,-396361,base
1783776159778803100,65306,33558,-346561,-379751,-396361,base
1783776159778803101,65320,33589,-346561,-379751,-396361,base
1783776159778803102,65365,33629,-346561,-379751,-396361,base
1783776159778803103,65424,33684,-346561,-379751,-396361,base
1783776159778803104,65454,33707,-346561,-379751,-396361,base
1783776159778803105,65499,33731,-346561,-379751,-396361,base
1783776159778803106,65484,33755,-346561,-379751,-396361,base
1783776159778803107,65558,33786,-346561,-379751,-396361,base
1783776159778803108,65588,33779,-346561,-379751,-396361,base
1783776159778803109,65603,33818,-346561,-379751,-396361,base
1783776159778803110,65618,33834,-346561,-379751,-396361,base
1783776159816801346,65633,33850,-346757,-379967,-396561,base
1783776159816801347,65633,33874,-346757,-379967,-396561,base
1783776159816801348,65663,33882,-346757,-379967,-396561,base
1783776159816801349,65663,33890,-346757,-379967,-396561,base
1783776159816801350,65648,33914,-346757,-379967,-396561,base
1783776159816801351,65648,33890,-346757,-379967,-396561,base
1783776159816801352,65648,33882,-346757,-379967,-396561,base
1783776159816801353,65633,33882,-346757,-379967,-396561,base
1783776159816801354,65663,33874,-346757,-379967,-396561,base
1783776159816801355,65648,33858,-346757,-379967,-396561,base
1783776159816801356,65633,33866,-346757,-379967,-396561,base
1783776159816801357,65603,33826,-346757,-379967,-396561,base
1783776159816801358,65573,33794,-346757,-379967,-396561,base
1783776159816801359,65514,33794,-346757,-379967,-396561,base
1783776159816801360,65529,33755,-346757,-379967,-396561,base
1783776159816801361,65484,33739,-346757,-379967,-396561,base
1783776159816801362,65439,33692,-346757,-379967,-396561,base
1783776159859811219,65424,33676,-347020,-380117,-396772,base
1783776159859811220,65424,33629,-347020,-380117,-396772,base
1783776159859811221,65350,33621,-347020,-380117,-396772,base
1783776159859811222,65335,33589,-347020,-380117,-396772,base
1783776159859811223,65291,33566,-347020,-380117,-396772,base
1783776159859811224,65276,33535,-347020,-380117,-396772,base
1783776159859811225,65261,33488,-347020,-380117,-396772,base
1783776159859811226,65261,33503,-347020,-380117,-396772,base
1783776159859811227,65202,33449,-347020,-380117,-396772,base
1783776159859811228,65202,33433,-347020,-380117,-396772,base
1783776159859811229,65187,33433,-347020,-380117,-396772,base
1783776159859811230,65128,33395,-347020,-380117,-396772,base
1783776159859811231,65114,33395,-347020,-380117,-396772,base
1783776159859811232,65099,33364,-347020,-380117,-396772,base
1783776159859811233,65099,33341,-347020,-380117,-396772,base
1783776159859811234,65084,33325,-347020,-380117,-396772,base
1783776159859811235,65055,33333,-347020,-380117,-396772,base
1783776159901346100,65070,33333,-347306,-380268,-396905,base
1783776159901346101,65055,33325,-347306,-380268,-396905,base
1783776159901346102,65011,33325,-347306,-380268,-396905,base
1783776159901346103,65070,33287,-347306,-380268,-396905,base
1783776159901346104,64996,33302,-347306,-380268,-396905,base
1783776159901346105,65025,33302,-347306,-380268,-396905,base
1783776159901346106,64996,33294,-347306,-380268,-396905,base
1783776159901346107,64996,33287,-347306,-380268,-396905,base
1783776159901346108,65040,33310,-347306,-380268,-396905,base
1783776159901346109,65040,33325,-347306,-380268,-396905,base
1783776159901346110,65040,33325,-347306,-380268,-396905,base
1783776159901346111,65040,33325,-347306,-380268,-396905,base
1783776159901346112,65055,33341,-347306,-380268,-396905,base
1783776159901346113,65055,33348,-347306,-380268,-396905,base
1783776159901346114,65084,33371,-347306,-380268,-396905,base
1783776159901346115,65114,33395,-347306,-380268,-396905,base
1783776159901346116,65143,33418,-347306,-380268,-396905,base
1783776159941281500,65158,33433,-347310,-380368,-396955,base
1783776159941281501,65187,33441,-347310,-380368,-396955,base
1783776159941281502,65187,33472,-347310,-380368,-396955,base
1783776159941281503,65217,33457,-347310,-380368,-396955,base
1783776159941281504,65217,33496,-347310,-380368,-396955,base
1783776159941281505,65261,33527,-347310,-380368,-396955,base
1783776159941281506,65261,33550,-347310,-380368,-396955,base
1783776159941281507,65291,33582,-347310,-380368,-396955,base
1783776159941281508,65335,33613,-347310,-380368,-396955,base
1783776159941281509,65365,33605,-347310,-380368,-396955,base
1783776159941281510,65350,33637,-347310,-380368,-396955,base
1783776159941281511,65409,33684,-347310,-380368,-396955,base
1783776159941281512,65439,33684,-347310,-380368,-396955,base
1783776159941281513,65454,33723,-347310,-380368,-396955,base
1783776159941281514,65484,33731,-347310,-380368,-396955,base
1783776159941281515,65514,33779,-347310,-380368,-396955,base
1783776159983704005,65543,33802,-347311,-380214,-396906,base
1783776159983704006,65588,33834,-347311,-380214,-396906,base
1783776159983704007,65588,33874,-347311,-380214,-396906,base
1783776159983704008,65603,33898,-347311,-380214,-396906,base
1783776159983704009,65633,33922,-347311,-380214,-396906,base
1783776159983704010,65693,33954,-347311,-380214,-396906,base
1783776159983704011,65708,33986,-347311,-380214,-396906,base
1783776159983704012,65768,34018,-347311,-380214,-396906,base
1783776159983704013,65783,34074,-347311,-380214,-396906,base
1783776159983704014,65828,34082,-347311,-380214,-396906,base
1783776159983704015,65858,34131,-347311,-380214,-396906,base
1783776159983704016,65873,34163,-347311,-380214,-396906,base
1783776159983704017,65949,34188,-347311,-380214,-396906,base
1783776159983704018,65979,34220,-347311,-380214,-396906,base
1783776159983704019,65994,34253,-347311,-380214,-396906,base
1783776159983704020,66055,34293,-347311,-380214,-396906,base
1783776159983704021,66070,34310,-347311,-380214,-396906,base
1783776160026220294,66115,34367,-347287,-380251,-396881,base
1783776160026220295,66146,34383,-347287,-380251,-396881,base
1783776160026220296,66176,34416,-347287,-380251,-396881,base
1783776160026220297,66222,34441,-347287,-380251,-396881,base
1783776160026220298,66222,34466,-347287,-380251,-396881,base
1783776160026220299,66267,34515,-347287,-380251,-396881,base
1783776160026220300,66344,34557,-347287,-380251,-396881,base
1783776160026220301,66328,34582,-347287,-380251,-396881,base
1783776160026220302,66374,34607,-347287,-380251,-396881,base
1783776160026220303,66390,34632,-347287,-380251,-396881,base
1783776160026220304,66435,34657,-347287,-380251,-396881,base
1783776160026220305,66497,34690,-347287,-380251,-396881,base
1783776160026220306,66497,34715,-347287,-380251,-396881,base
1783776160026220307,66528,34757,-347287,-380251,-396881,base
1783776160026220308,66558,34791,-347287,-380251,-396881,base
1783776160026220309,66589,34833,-347287,-380251,-396881,base
1783776160026220310,66635,34849,-347287,-380251,-396881,base
1783776160081290823,66651,34858,-347373,-380304,-396919,base
1783776160081290824,66666,34909,-347373,-380304,-396919,base
1783776160081290825,66697,34926,-347373,-380304,-396919,base
1783776160081290826,66728,34942,-347373,-380304,-396919,base
1783776160081290827,66774,35002,-347373,-380304,-396919,base
1783776160081290828,66805,35027,-347373,-380304,-396919,base
1783776160081290829,66821,35053,-347373,-380304,-396919,base
1783776160081290830,66867,35079,-347373,-380304,-396919,base
1783776160081290831,66867,35104,-347373,-380304,-396919,base
1783776160081290832,66883,35130,-347373,-380304,-396919,base
1783776160081290833,66945,35164,-347373,-380304,-396919,base
1783776160081290834,66961,35182,-347373,-380304,-396919,base
1783776160081290835,66976,35225,-347373,-380304,-396919,base
1783776160081290836,67039,35259,-347373,-380304,-396919,base
1783776160081290837,67054,35285,-347373,-380304,-396919,base
1783776160081290838,67085,35294,-347373,-380304,-396919,base
1783776160081290839,67101,35346,-347373,-380304,-396919,base
1783776160111098952,67164,35354,-347465,-380404,-397035,base
1783776160111098953,67164,35398,-347465,-380404,-397035,base
1783776160111098954,67195,35415,-347465,-380404,-397035,base
1783776160111098955,67242,35450,-347465,-380404,-397035,base
1783776160111098956,67258,35485,-347465,-380404,-397035,base
1783776160111098957,67289,35502,-347465,-380404,-397035,base
1783776160111098958,67336,35538,-347465,-380404,-397035,base
1783776160111098959,67352,35538,-347465,-380404,-397035,base
1783776160111098960,67384,35581,-347465,-380404,-397035,base
1783776160111098961,67415,35599,-347465,-380404,-397035,base
1783776160111098962,67431,35617,-347465,-380404,-397035,base
1783776160111098963,67447,35608,-347465,-380404,-397035,base
1783776160111098964,67431,35661,-347465,-380404,-397035,base
1783776160111098965,67494,35705,-347465,-380404,-397035,base
1783776160111098966,67526,35687,-347465,-380404,-397035,base
1783776160111098967,67510,35749,-347465,-380404,-397035,base
1783776160111098968,67526,35749,-347465,-380404,-397035,base
1783776160150365749,67542,35758,-347426,-380422,-397002,base
1783776160150365750,67573,35776,-347426,-380422,-397002,base
1783776160150365751,67573,35820,-347426,-380422,-397002,base
1783776160150365752,67653,35803,-347426,-380422,-397002,base
1783776160150365753,67669,35865,-347426,-380422,-397002,base
1783776160150365754,67621,35838,-347426,-380422,-397002,base
1783776160150365755,67669,35856,-347426,-380422,-397002,base
1783776160150365756,67700,35865,-347426,-380422,-397002,base
1783776160150365757,67685,35901,-347426,-380422,-397002,base
1783776160150365758,67716,35928,-347426,-380422,-397002,base
1783776160150365759,67732,35946,-347426,-380422,-397002,base
1783776160150365760,67764,35955,-347426,-380422,-397002,base
1783776160150365761,67732,35991,-347426,-380422,-397002,base
1783776160150365762,67732,35982,-347426,-380422,-397002,base
1783776160150365763,67764,35982,-347426,-380422,-397002,base
1783776160191132576,67764,36024,-347458,-380402,-396966,base
1783776160191132577,67780,35991,-347458,-380402,-396966,base
1783776160191132578,67764,36036,-347458,-380402,-396966,base
1783776160191132579,67812,36030,-347458,-380402,-396966,base
1783776160191132580,67828,36078,-347458,-380402,-396966,base
1783776160191132581,67828,36060,-347458,-380402,-396966,base
1783776160191132582,67860,36072,-347458,-380402,-396966,base
1783776160191132583,67860,36084,-347458,-380402,-396966,base
1783776160191132584,67876,36102,-347458,-380402,-396966,base
1783776160191132585,67892,36120,-347458,-380402,-396966,base
1783776160191132586,67924,36138,-347458,-380402,-396966,base
1783776160191132587,67940,36174,-347458,-380402,-396966,base
1783776160191132588,67972,36186,-347458,-380402,-396966,base
1783776160191132589,67972,36199,-347458,-380402,-396966,base
1783776160191132590,67988,36217,-347458,-380402,-396966,base
1783776160191132591,68020,36223,-347458,-380402,-396966,base
1783776160191132592,68020,36259,-347458,-380402,-396966,base
1783776160237318052,68052,36265,-347328,-380324,-396859,base
1783776160237318053,68069,36290,-347328,-380324,-396859,base
1783776160237318054,68085,36308,-347328,-380324,-396859,base
1783776160237318055,68149,36339,-347328,-380324,-396859,base
1783776160237318056,68165,36357,-347328,-380324,-396859,base
1783776160237318057,68149,36369,-347328,-380324,-396859,base
1783776160237318058,68197,36394,-347328,-380324,-396859,base
1783776160237318059,68181,36418,-347328,-380324,-396859,base
1783776160237318060,68214,36431,-347328,-380324,-396859,base
1783776160237318061,68230,36468,-347328,-380324,-396859,base
1783776160237318062,68278,36498,-347328,-380324,-396859,base
1783776160237318063,68278,36511,-347328,-380324,-396859,base
1783776160237318064,68343,36529,-347328,-380324,-396859,base
1783776160237318065,68311,36542,-347328,-380324,-396859,base
1783776160237318066,68376,36560,-347328,-380324,-396859,base
1783776160237318067,68359,36579,-347328,-380324,-396859,base
1783776160237318068,68392,36597,-347328,-380324,-396859,base
1783776160276049114,68392,36622,-347226,-380263,-396874,base
1783776160276049115,68424,36641,-347226,-380263,-396874,base
1783776160276049116,68457,36659,-347226,-380263,-396874,base
1783776160276049117,68506,36672,-347226,-380263,-396874,base
1783776160276049118,68473,36703,-347226,-380263,-396874,base
1783776160276049119,68473,36728,-347226,-380263,-396874,base
1783776160276049120,68522,36734,-347226,-380263,-396874,base
1783776160276049121,68538,36747,-347226,-380263,-396874,base
1783776160276049122,68555,36765,-347226,-380263,-396874,base
1783776160276049123,68587,36791,-347226,-380263,-396874,base
1783776160276049124,68620,36803,-347226,-380263,-396874,base
1783776160276049125,68587,36778,-347226,-380263,-396874,base
1783776160276049126,68555,36772,-347226,-380263,-396874,base
1783776160276049127,68555,36734,-347226,-380263,-396874,base
1783776160276049128,68506,36703,-347226,-380263,-396874,base
1783776160276049129,68441,36647,-347226,-380263,-396874,base
1783776160276049130,68327,36585,-347226,-380263,-396874,base
1783776160319041594,68278,36486,-347136,-380183,-396776,base
1783776160319041595,68149,36388,-347136,-380183,-396776,base
1783776160319041596,68004,36247,-347136,-380183,-396776,base
1783776160319041597,67876,36108,-347136,-380183,-396776,base
1783776160319041598,67700,35946,-347136,-380183,-396776,base
1783776160319041599,67542,35758,-347136,-380183,-396776,base
1783776160319041600,67336,35599,-347136,-380183,-396776,base
1783776160319041601,67164,35415,-347136,-380183,-396776,base
1783776160319041602,66976,35225,-347136,-380183,-396776,base
1783776160319041603,66790,35062,-347136,-380183,-396776,base
1783776160319041604,66558,34875,-347136,-380183,-396776,base
1783776160319041605,66359,34682,-347136,-380183,-396776,base
1783776160319041606,66222,34474,-347136,-380183,-396776,base
1783776160319041607,66009,34302,-347136,-380183,-396776,base
1783776160319041608,65843,34171,-347136,-380183,-396776,base
1783776160319041609,65708,34010,-347136,-380183,-396776,base
1783776160319041610,65514,33874,-347136,-380183,-396776,base
1783776160319041611,65409,33739,-347136,-380183,-396776,base
1783776160358344119,65291,33597,-347146,-380122,-396696,base
1783776160358344120,65143,33496,-347146,-380122,-396696,base
1783776160358344121,65055,33341,-347146,-380122,-396696,base
1783776160358344122,64937,33248,-347146,-380122,-396696,base
1783776160358344123,64821,33126,-347146,-380122,-396696,base
1783776160358344124,64762,33050,-347146,-380122,-396696,base
1783776160358344125,64602,32974,-347146,-380122,-396696,base
1783776160358344126,64573,32891,-347146,-380122,-396696,base
1783776160358344127,64472,32809,-347146,-380122,-396696,base
1783776160358344128,64400,32734,-347146,-380122,-396696,base
1783776160358344129,64343,32704,-347146,-380122,-396696,base
1783776160358344130,64314,32645,-347146,-380122,-396696,base
1783776160358344131,64257,32593,-347146,-380122,-396696,base
1783776160358344132,64214,32557,-347146,-380122,-396696,base
1783776160358344133,64214,32520,-347146,-380122,-396696,base
1783776160401586096,64199,32490,-347005,-380078,-396709,base
1783776160401586097,64142,32454,-347005,-380078,-396709,base
1783776160401586098,64113,32447,-347005,-380078,-396709,base
1783776160401586099,64113,32425,-347005,-380078,-396709,base
1783776160401586100,64085,32410,-347005,-380078,-396709,base
1783776160401586101,64085,32366,-347005,-380078,-396709,base
1783776160401586102,64128,32381,-347005,-380078,-396709,base
1783776160401586103,64085,32395,-347005,-380078,-396709,base
1783776160401586104,64099,32403,-347005,-380078,-396709,base
1783776160401586105,64113,32395,-347005,-380078,-396709,base
1783776160401586106,64113,32417,-347005,-380078,-396709,base
1783776160401586107,64113,32417,-347005,-380078,-396709,base
1783776160401586108,64171,32468,-347005,-380078,-396709,base
1783776160401586109,64185,32476,-347005,-380078,-396709,base
1783776160401586110,64214,32483,-347005,-380078,-396709,base
1783776160401586111,64228,32498,-347005,-380078,-396709,base
1783776160401586112,64285,32557,-347005,-380078,-396709,base
1783776160444165780,64300,32579,-346963,-380007,-396665,base
1783776160444165781,64343,32630,-346963,-380007,-396665,base
1783776160444165782,64357,32645,-346963,-380007,-396665,base
1783776160444165783,64357,32675,-346963,-380007,-396665,base
1783776160444165784,64443,32712,-346963,-380007,-396665,base
1783776160444165785,64472,32749,-346963,-380007,-396665,base
1783776160444165786,64530,32794,-346963,-380007,-396665,base
1783776160444165787,64602,32854,-346963,-380007,-396665,base
1783776160444165788,64617,32884,-346963,-380007,-396665,base
1783776160444165789,64660,32921,-346963,-380007,-396665,base
1783776160444165790,64704,32959,-346963,-380007,-396665,base
1783776160444165791,64777,33035,-346963,-380007,-396665,base
1783776160444165792,64806,33057,-346963,-380007,-396665,base
1783776160444165793,64821,33126,-346963,-380007,-396665,base
1783776160444165794,64894,33164,-346963,-380007,-396665,base
1783776160444165795,64937,33217,-346963,-380007,-396665,base
1783776160483634403,65025,33264,-347313,-380260,-396866,base
1783776160483634404,65084,33302,-347313,-380260,-396866,base
1783776160483634405,65084,33348,-347313,-380260,-396866,base
1783776160483634406,65173,33410,-347313,-380260,-396866,base
1783776160483634407,65232,33441,-347313,-380260,-396866,base
1783776160483634408,65261,33496,-347313,-380260,-396866,base
1783776160483634409,65320,33566,-347313,-380260,-396866,base
1783776160483634410,65365,33621,-347313,-380260,-396866,base
1783776160483634411,65424,33660,-347313,-380260,-396866,base
1783776160483634412,65469,33676,-347313,-380260,-396866,base
1783776160483634413,65514,33731,-347313,-380260,-396866,base
1783776160483634414,65573,33786,-347313,-380260,-396866,base
1783776160483634415,65603,33826,-347313,-380260,-396866,base
1783776160483634416,65618,33882,-347313,-380260,-396866,base
1783776160483634417,65723,33946,-347313,-380260,-396866,base
1783776160483634418,65753,33970,-347313,-380260,-396866,base
1783776160483634419,65813,34026,-347313,-380260,-396866,base
1783776160527953882,65843,34066,-347572,-380449,-397008,base
1783776160527953883,65888,34139,-347572,-380449,-397008,base
1783776160527953884,65949,34147,-347572,-380449,-397008,base
1783776160527953885,66009,34196,-347572,-380449,-397008,base
1783776160527953886,66024,34277,-347572,-380449,-397008,base
1783776160527953887,66085,34334,-347572,-380449,-397008,base
1783776160527953888,66146,34375,-347572,-380449,-397008,base
1783776160527953889,66191,34425,-347572,-380449,-397008,base
1783776160527953890,66222,34458,-347572,-380449,-397008,base
1783776160527953891,66283,34507,-347572,-380449,-397008,base
1783776160527953892,66313,34548,-347572,-380449,-397008,base
1783776160527953893,66328,34565,-347572,-380449,-397008,base
1783776160527953894,66390,34640,-347572,-380449,-397008,base
1783776160527953895,66435,34673,-347572,-380449,-397008,base
1783776160527953896,66481,34707,-347572,-380449,-397008,base
1783776160527953897,66481,34723,-347572,-380449,-397008,base
1783776160527953898,66543,34799,-347572,-380449,-397008,base
1783776160565816483,66558,34791,-347680,-380528,-397143,base
1783776160565816484,66543,34799,-347680,-380528,-397143,base
1783776160565816485,66574,34833,-347680,-380528,-397143,base
1783776160565816486,66589,34841,-347680,-380528,-397143,base
1783776160565816487,66651,34858,-347680,-380528,-397143,base
1783776160565816488,66666,34892,-347680,-380528,-397143,base
1783776160565816489,66697,34909,-347680,-380528,-397143,base
1783776160565816490,66666,34909,-347680,-380528,-397143,base
1783776160565816491,66682,34900,-347680,-380528,-397143,base
1783776160565816492,66651,34900,-347680,-380528,-397143,base
1783776160565816493,66666,34917,-347680,-380528,-397143,base
1783776160565816494,66651,34883,-347680,-380528,-397143,base
1783776160565816495,66682,34909,-347680,-380528,-397143,base
1783776160565816496,66666,34883,-347680,-380528,-397143,base
1783776160565816497,66635,34875,-347680,-380528,-397143,base
1783776160605757341,66620,34892,-347740,-380561,-397115,base
1783776160605757342,66589,34841,-347740,-380561,-397115,base
1783776160605757343,66574,34833,-347740,-380561,-397115,base
1783776160605757344,66512,34824,-347740,-380561,-397115,base
1783776160605757345,66512,34749,-347740,-380561,-397115,base
1783776160605757346,66481,34749,-347740,-380561,-397115,base
1783776160605757347,66435,34732,-347740,-380561,-397115,base
1783776160605757348,66466,34682,-347740,-380561,-397115,base
1783776160605757349,66405,34657,-347740,-380561,-397115,base
1783776160605757350,66359,34623,-347740,-380561,-397115,base
1783776160605757351,66328,34582,-347740,-380561,-397115,base
1783776160605757352,66283,34548,-347740,-380561,-397115,base
1783776160605757353,66237,34557,-347740,-380561,-397115,base
1783776160605757354,66222,34499,-347740,-380561,-397115,base
1783776160605757355,66206,34474,-347740,-380561,-397115,base
1783776160605757356,66191,34449,-347740,-380561,-397115,base
1783776160605757357,66100,34425,-347740,-380561,-397115,base
1783776160648230997,66100,34392,-347828,-380560,-397109,base
1783776160648230998,66070,34375,-347828,-380560,-397109,base
1783776160648230999,66055,34342,-347828,-380560,-397109,base
1783776160648231000,66039,34310,-347828,-380560,-397109,base
1783776160648231001,66039,34302,-347828,-380560,-397109,base
1783776160648231002,65994,34293,-347828,-380560,-397109,base
1783776160648231003,65994,34285,-347828,-380560,-397109,base
1783776160648231004,65994,34253,-347828,-380560,-397109,base
1783776160648231005,65979,34261,-347828,-380560,-397109,base
1783776160648231006,65964,34261,-347828,-380560,-397109,base
1783776160648231007,65979,34228,-347828,-380560,-397109,base
1783776160648231008,65964,34228,-347828,-380560,-397109,base
1783776160648231009,65964,34228,-347828,-380560,-397109,base
1783776160648231010,65994,34244,-347828,-380560,-397109,base
1783776160648231011,65949,34228,-347828,-380560,-397109,base
1783776160648231012,65979,34253,-347828,-380560,-397109,base
1783776160648231013,65979,34244,-347828,-380560,-397109,base
1783776160690677501,66024,34236,-347759,-380585,-397137,base
1783776160690677502,66009,34261,-347759,-380585,-397137,base
1783776160690677503,66009,34261,-347759,-380585,-397137,base
1783776160690677504,65994,34253,-347759,-380585,-397137,base
1783776160690677505,66024,34261,-347759,-380585,-397137,base
1783776160690677506,66024,34277,-347759,-380585,-397137,base
1783776160690677507,66024,34277,-347759,-380585,-397137,base
1783776160690677508,66039,34310,-347759,-380585,-397137,base
1783776160690677509,66055,34326,-347759,-380585,-397137,base
1783776160690677510,66055,34326,-347759,-380585,-397137,base
1783776160690677511,66100,34334,-347759,-380585,-397137,base
1783776160690677512,66115,34351,-347759,-380585,-397137,base
1783776160690677513,66146,34392,-347759,-380585,-397137,base
1783776160690677514,66161,34425,-347759,-380585,-397137,base
1783776160690677515,66176,34416,-347759,-380585,-397137,base
1783776160690677516,66222,34441,-347759,-380585,-397137,base
1783776160690677517,66222,34466,-347759,-380585,-397137,base
1783776160730826017,66222,34491,-347737,-380518,-397155,base
1783776160730826018,66252,34499,-347737,-380518,-397155,base
1783776160730826019,66237,34524,-347737,-380518,-397155,base
1783776160730826020,66298,34565,-347737,-380518,-397155,base
1783776160730826021,66359,34607,-347737,-380518,-397155,base
1783776160730826022,66359,34640,-347737,-380518,-397155,base
1783776160730826023,66390,34648,-347737,-380518,-397155,base
1783776160730826024,66405,34682,-347737,-380518,-397155,base
1783776160730826025,66420,34690,-347737,-380518,-397155,base
1783776160730826026,66466,34740,-347737,-380518,-397155,base
1783776160730826027,66528,34782,-347737,-380518,-397155,base
1783776160730826028,66528,34782,-347737,-380518,-397155,base
1783776160730826029,66589,34824,-347737,-380518,-397155,base
1783776160730826030,66604,34858,-347737,-380518,-397155,base
1783776160730826031,66620,34892,-347737,-380518,-397155,base
1783776160730826032,66666,34934,-347737,-380518,-397155,base
1783776160772911281,66666,34942,-347761,-380587,-397198,base
1783776160772911282,66728,34976,-347761,-380587,-397198,base
1783776160772911283,66712,35027,-347761,-380587,-397198,base
1783776160772911284,66790,35062,-347761,-380587,-397198,base
1783776160772911285,66821,35096,-347761,-380587,-397198,base
1783776160772911286,66852,35147,-347761,-380587,-397198,base
1783776160772911287,66867,35156,-347761,-380587,-397198,base
1783776160772911288,66930,35190,-347761,-380587,-397198,base
1783776160772911289,66930,35225,-347761,-380587,-397198,base
1783776160772911290,66961,35225,-347761,-380587,-397198,base
1783776160772911291,67023,35285,-347761,-380587,-397198,base
1783776160772911292,67101,35320,-347761,-380587,-397198,base
1783776160772911293,67070,35380,-347761,-380587,-397198,base
1783776160772911294,67132,35398,-347761,-380587,-397198,base
1783776160772911295,67148,35459,-347761,-380587,-397198,base
1783776160772911296,67179,35485,-347761,-380587,-397198,base
1783776160772911297,67242,35485,-347761,-380587,-397198,base
1783776160815546731,67242,35555,-347791,-380612,-397128,base
1783776160815546732,67274,35564,-347791,-380612,-397128,base
1783776160815546733,67321,35590,-347791,-380612,-397128,base
1783776160815546734,67352,35617,-347791,-380612,-397128,base
1783776160815546735,67352,35661,-347791,-380612,-397128,base
1783776160815546736,67415,35687,-347791,-380612,-397128,base
1783776160815546737,67431,35732,-347791,-380612,-397128,base
1783776160815546738,67463,35758,-347791,-380612,-397128,base
1783776160815546739,67510,35785,-347791,-380612,-397128,base
1783776160815546740,67558,35803,-347791,-380612,-397128,base
1783776160815546741,67589,35847,-347791,-380612,-397128,base
1783776160815546742,67637,35883,-347791,-380612,-397128,base
1783776160815546743,67669,35910,-347791,-380612,-397128,base
1783776160815546744,67700,35955,-347791,-380612,-397128,base
1783776160815546745,67732,35964,-347791,-380612,-397128,base
1783776160815546746,67732,35964,-347791,-380612,-397128,base
1783776160815546747,67764,35982,-347791,-380612,-397128,base
1783776160863096506,67780,36030,-347725,-380535,-397121,base
1783776160863096507,67828,36042,-347725,-380535,-397121,base
1783776160863096508,67828,36084,-347725,-380535,-397121,base
1783776160863096509,67892,36090,-347725,-380535,-397121,base
1783776160863096510,67876,36096,-347725,-380535,-397121,base
1783776160863096511,67908,36114,-347725,-380535,-397121,base
1783776160863096512,67940,36138,-347725,-380535,-397121,base
1783776160863096513,67972,36138,-347725,-380535,-397121,base
1783776160863096514,67972,36174,-347725,-380535,-397121,base
1783776160863096515,68004,36186,-347725,-380535,-397121,base
1783776160863096516,68052,36199,-347725,-380535,-397121,base
1783776160863096517,68085,36247,-347725,-380535,-397121,base
1783776160863096518,68085,36247,-347725,-380535,-397121,base
1783776160863096519,68085,36278,-347725,-380535,-397121,base
1783776160863096520,68101,36278,-347725,-380535,-397121,base
1783776160863096521,68117,36296,-347725,-380535,-397121,base
1783776160863096522,68165,36302,-347725,-380535,-397121,base
1783776160901960693,68197,36333,-347691,-380578,-397092,base
1783776160901960694,68181,36351,-347691,-380578,-397092,base
1783776160901960695,68214,36369,-347691,-380578,-397092,base
1783776160901960696,68230,36369,-347691,-380578,-397092,base
1783776160901960697,68214,36406,-347691,-380578,-397092,base
1783776160901960698,68230,36412,-347691,-380578,-397092,base
1783776160901960699,68246,36424,-347691,-380578,-397092,base
1783776160901960700,68246,36437,-347691,-380578,-397092,base
1783776160901960701,68294,36449,-347691,-380578,-397092,base
1783776160901960702,68294,36480,-347691,-380578,-397092,base
1783776160901960703,68359,36492,-347691,-380578,-397092,base
1783776160901960704,68327,36504,-347691,-380578,-397092,base
1783776160901960705,68376,36517,-347691,-380578,-397092,base
1783776160901960706,68376,36523,-347691,-380578,-397092,base
1783776160901960707,68392,36566,-347691,-380578,-397092,base
1783776160901960708,68392,36560,-347691,-380578,-397092,base
1783776160901960709,68392,36597,-347691,-380578,-397092,base
1783776160937940333,68424,36610,-347581,-380398,-397028,base
1783776160937940334,68441,36616,-347581,-380398,-397028,base
1783776160937940335,68473,36635,-347581,-380398,-397028,base
1783776160937940336,68473,36659,-347581,-380398,-397028,base
1783776160937940337,68489,36678,-347581,-380398,-397028,base
1783776160937940338,68473,36691,-347581,-380398,-397028,base
1783776160937940339,68489,36715,-347581,-380398,-397028,base
1783776160937940340,68522,36722,-347581,-380398,-397028,base
1783776160937940341,68571,36765,-347581,-380398,-397028,base
1783776160937940342,68571,36791,-347581,-380398,-397028,base
1783776160937940343,68587,36797,-347581,-380398,-397028,base
1783776160937940344,68604,36847,-347581,-380398,-397028,base
1783776160937940345,68620,36841,-347581,-380398,-397028,base
1783776160937940346,68653,36872,-347581,-380398,-397028,base
1783776160937940347,68636,36910,-347581,-380398,-397028,base
1783776160983268312,68685,36929,-347487,-380330,-396964,base
1783776160983268313,68718,36948,-347487,-380330,-396964,base
1783776160983268314,68784,36960,-347487,-380330,-396964,base
1783776160983268315,68767,36986,-347487,-380330,-396964,base
1783776160983268316,68817,37024,-347487,-380330,-396964,base
1783776160983268317,68800,37037,-347487,-380330,-396964,base
1783776160983268318,68833,37037,-347487,-380330,-396964,base
1783776160983268319,68850,37094,-347487,-380330,-396964,base
1783776160983268320,68866,37107,-347487,-380330,-396964,base
1783776160983268321,68899,37107,-347487,-380330,-396964,base
1783776160983268322,68932,37145,-347487,-380330,-396964,base
1783776160983268323,68932,37177,-347487,-380330,-396964,base
1783776160983268324,68998,37170,-347487,-380330,-396964,base
1783776160983268325,68998,37202,-347487,-380330,-396964,base
1783776160983268326,69015,37228,-347487,-380330,-396964,base
1783776160983268327,69048,37260,-347487,-380330,-396964,base
1783776160983268328,69048,37279,-347487,-380330,-396964,base
1783776161022818009,69114,37299,-347388,-380304,-396921,base
1783776161022818010,69114,37312,-347388,-380304,-396921,base
1783776161022818011,69114,37331,-347388,-380304,-396921,base
1783776161022818012,69164,37318,-347388,-380304,-396921,base
1783776161022818013,69164,37318,-347388,-380304,-396921,base
1783776161022818014,69164,37350,-347388,-380304,-396921,base
1783776161022818015,69197,37363,-347388,-380304,-396921,base
1783776161022818016,69147,37370,-347388,-380304,-396921,base
1783776161022818017,69147,37344,-347388,-380304,-396921,base
1783776161022818018,69164,37325,-347388,-380304,-396921,base
1783776161022818019,69097,37247,-347388,-380304,-396921,base
1783776161022818020,69015,37190,-347388,-380304,-396921,base
1783776161022818021,68949,37119,-347388,-380304,-396921,base
1783776161022818022,68817,37011,-347388,-380304,-396921,base
1783776161022818023,68702,36885,-347388,-380304,-396921,base
1783776161022818024,68604,36753,-347388,-380304,-396921,base
1783776161022818025,68408,36616,-347388,-380304,-396921,base
1783776161065365355,68246,36424,-347319,-380259,-396796,base
1783776161065365356,68052,36229,-347319,-380259,-396796,base
1783776161065365357,67860,36036,-347319,-380259,-396796,base
1783776161065365358,67637,35865,-347319,-380259,-396796,base
1783776161065365359,67431,35652,-347319,-380259,-396796,base
1783776161065365360,67226,35476,-347319,-380259,-396796,base
1783776161065365361,67054,35268,-347319,-380259,-396796,base
1783776161065365362,66883,35104,-347319,-380259,-396796,base
1783776161065365363,66682,34892,-347319,-380259,-396796,base
1783776161065365364,66512,34732,-347319,-380259,-396796,base
1783776161065365365,66313,34557,-347319,-380259,-396796,base
1783776161065365366,66115,34383,-347319,-380259,-396796,base
1783776161065365367,65994,34244,-347319,-380259,-396796,base
1783776161065365368,65843,34098,-347319,-380259,-396796,base
1783776161065365369,65723,33938,-347319,-380259,-396796,base
1783776161065365370,65558,33810,-347319,-380259,-396796,base
1783776161065365371,65454,33692,-347319,-380259,-396796,base
1783776161107870888,65365,33574,-347233,-380200,-396828,base
1783776161107870889,65232,33519,-347233,-380200,-396828,base
1783776161107870890,65143,33371,-347233,-380200,-396828,base
1783776161107870891,65055,33287,-347233,-380200,-396828,base
1783776161107870892,64967,33202,-347233,-380200,-396828,base
1783776161107870893,64923,33156,-347233,-380200,-396828,base
1783776161107870894,64850,33080,-347233,-380200,-396828,base
1783776161107870895,64791,33004,-347233,-380200,-396828,base
1783776161107870896,64719,32959,-347233,-380200,-396828,base
1783776161107870897,64660,32914,-347233,-380200,-396828,base
1783776161107870898,64617,32876,-347233,-380200,-396828,base
1783776161107870899,64588,32831,-347233,-380200,-396828,base
1783776161107870900,64530,32794,-347233,-380200,-396828,base
1783776161107870901,64501,32757,-347233,-380200,-396828,base
1783776161107870902,64487,32757,-347233,-380200,-396828,base
1783776161107870903,64472,32742,-347233,-380200,-396828,base
1783776161107870904,64443,32697,-347233,-380200,-396828,base
1783776161152576450,64429,32704,-347459,-380278,-396940,base
1783776161152576451,64443,32682,-347459,-380278,-396940,base
1783776161152576452,64443,32682,-347459,-380278,-396940,base
1783776161152576453,64415,32712,-347459,-380278,-396940,base
1783776161152576454,64458,32690,-347459,-380278,-396940,base
1783776161152576455,64443,32704,-347459,-380278,-396940,base
1783776161152576456,64472,32727,-347459,-380278,-396940,base
1783776161152576457,64487,32757,-347459,-380278,-396940,base
1783776161152576458,64516,32771,-347459,-380278,-396940,base
1783776161152576459,64501,32771,-347459,-380278,-396940,base
1783776161152576460,64530,32809,-347459,-380278,-396940,base
1783776161152576461,64559,32824,-347459,-380278,-396940,base
1783776161152576462,64631,32861,-347459,-380278,-396940,base
1783776161152576463,64646,32899,-347459,-380278,-396940,base
1783776161152576464,64675,32921,-347459,-380278,-396940,base
1783776161152576465,64704,32959,-347459,-380278,-396940,base
1783776161190459757,64748,33004,-347689,-380465,-397156,base
1783776161190459758,64806,33035,-347689,-380465,-397156,base
1783776161190459759,64850,33073,-347689,-380465,-397156,base
1783776161190459760,64879,33118,-347689,-380465,-397156,base
1783776161190459761,64937,33172,-347689,-380465,-397156,base
1783776161190459762,64967,33225,-347689,-380465,-397156,base
1783776161190459763,65011,33248,-347689,-380465,-397156,base
1783776161190459764,65084,33279,-347689,-380465,-397156,base
1783776161190459765,65128,33333,-347689,-380465,-397156,base
1783776161190459766,65173,33379,-347689,-380465,-397156,base
1783776161190459767,65187,33441,-347689,-380465,-397156,base
1783776161190459768,65261,33472,-347689,-380465,-397156,base
1783776161190459769,65335,33535,-347689,-380465,-397156,base
1783776161190459770,65380,33605,-347689,-380465,-397156,base
1783776161190459771,65424,33660,-347689,-380465,-397156,base
1783776161190459772,65484,33692,-347689,-380465,-397156,base
1783776161190459773,65514,33723,-347689,-380465,-397156,base
1783776161232632045,65543,33794,-347833,-380657,-397225,base
1783776161232632046,65588,33826,-347833,-380657,-397225,base
1783776161232632047,65648,33874,-347833,-380657,-397225,base
1783776161232632048,65693,33946,-347833,-380657,-397225,base
1783776161232632049,65768,33970,-347833,-380657,-397225,base
1783776161232632050,65798,34010,-347833,-380657,-397225,base
1783776161232632051,65873,34074,-347833,-380657,-397225,base
1783776161232632052,65918,34115,-347833,-380657,-397225,base
1783776161232632053,65949,34155,-347833,-380657,-397225,base
1783776161232632054,65994,34220,-347833,-380657,-397225,base
1783776161232632055,66024,34253,-347833,-380657,-397225,base
1783776161232632056,66146,34326,-347833,-380657,-397225,base
1783776161232632057,66176,34367,-347833,-380657,-397225,base
1783776161232632058,66191,34441,-347833,-380657,-397225,base
1783776161232632059,66267,34474,-347833,-380657,-397225,base
1783776161232632060,66328,34532,-347833,-380657,-397225,base
1783776161232632061,66359,34573,-347833,-380657,-397225,base
1783776161274993418,66405,34623,-347910,-380698,-397266,base
1783776161274993419,66466,34690,-347910,-380698,-397266,base
1783776161274993420,66543,34715,-347910,-380698,-397266,base
1783776161274993421,66574,34807,-347910,-380698,-397266,base
1783776161274993422,66635,34841,-347910,-380698,-397266,base
1783776161274993423,66666,34892,-347910,-380698,-397266,base
1783776161274993424,66697,34959,-347910,-380698,-397266,base
1783776161274993425,66759,34976,-347910,-380698,-397266,base
1783776161274993426,66759,35036,-347910,-380698,-397266,base
1783776161274993427,66836,35070,-347910,-380698,-397266,base
1783776161274993428,66883,35096,-347910,-380698,-397266,base
1783776161274993429,66930,35130,-347910,-380698,-397266,base
1783776161274993430,66914,35156,-347910,-380698,-397266,base
1783776161274993431,66976,35182,-347910,-380698,-397266,base
1783776161274993432,66992,35216,-347910,-380698,-397266,base
1783776161274993433,67007,35250,-347910,-380698,-397266,base
1783776161274993434,67039,35259,-347910,-380698,-397266,base
1783776161317395819,67054,35276,-347869,-380656,-397247,base
1783776161317395820,67054,35320,-347869,-380656,-397247,base
1783776161317395821,67070,35337,-347869,-380656,-397247,base
1783776161317395822,67085,35320,-347869,-380656,-397247,base
1783776161317395823,67132,35311,-347869,-380656,-397247,base
1783776161317395824,67101,35320,-347869,-380656,-397247,base
1783776161317395825,67101,35346,-347869,-380656,-397247,base
1783776161317395826,67132,35346,-347869,-380656,-397247,base
1783776161317395827,67101,35320,-347869,-380656,-397247,base
1783776161317395828,67070,35294,-347869,-380656,-397247,base
1783776161317395829,67101,35311,-347869,-380656,-397247,base
1783776161317395830,67070,35311,-347869,-380656,-397247,base
1783776161317395831,67070,35276,-347869,-380656,-397247,base
1783776161317395832,67039,35268,-347869,-380656,-397247,base
1783776161317395833,66992,35216,-347869,-380656,-397247,base
1783776161317395834,66961,35190,-347869,-380656,-397247,base
1783776161317395835,66945,35182,-347869,-380656,-397247,base
1783776161355322857,66883,35164,-347819,-380611,-397206,base
1783776161355322858,66883,35113,-347819,-380611,-397206,base
1783776161355322859,66852,35070,-347819,-380611,-397206,base
1783776161355322860,66805,35079,-347819,-380611,-397206,base
1783776161355322861,66743,35002,-347819,-380611,-397206,base
1783776161355322862,66743,34968,-347819,-380611,-397206,base
1783776161355322863,66728,34976,-347819,-380611,-397206,base
1783776161355322864,66651,34926,-347819,-380611,-397206,base
1783776161355322865,66620,34900,-347819,-380611,-397206,base
1783776161355322866,66604,34883,-347819,-380611,-397206,base
1783776161355322867,66589,34833,-347819,-380611,-397206,base
1783776161355322868,66558,34824,-347819,-380611,-397206,base
1783776161355322869,66481,34774,-347819,-380611,-397206,base
1783776161355322870,66512,34765,-347819,-380611,-397206,base
1783776161355322871,66481,34723,-347819,-380611,-397206,base
1783776161397505102,66451,34698,-347799,-380571,-397174,base
1783776161397505103,66435,34690,-347799,-380571,-397174,base
1783776161397505104,66420,34682,-347799,-380571,-397174,base
1783776161397505105,66420,34673,-347799,-380571,-397174,base
1783776161397505106,66390,34657,-347799,-380571,-397174,base
1783776161397505107,66359,34640,-347799,-380571,-397174,base
1783776161397505108,66359,34623,-347799,-380571,-397174,base
1783776161397505109,66344,34598,-347799,-380571,-397174,base
1783776161397505110,66359,34615,-347799,-380571,-397174,base
1783776161397505111,66328,34623,-347799,-380571,-397174,base
1783776161397505112,66344,34632,-347799,-380571,-397174,base
1783776161397505113,66344,34632,-347799,-380571,-397174,base
1783776161397505114,66344,34598,-347799,-380571,-397174,base
1783776161397505115,66344,34640,-347799,-380571,-397174,base
1783776161397505116,66374,34632,-347799,-380571,-397174,base
1783776161397505117,66344,34657,-347799,-380571,-397174,base
1783776161397505118,66344,34665,-347799,-380571,-397174,base
1783776161438964124,66420,34682,-347854,-380630,-397270,base
1783776161438964125,66405,34673,-347854,-380630,-397270,base
1783776161438964126,66451,34715,-347854,-380630,-397270,base
1783776161438964127,66466,34757,-347854,-380630,-397270,base
1783776161438964128,66451,34757,-347854,-380630,-397270,base
1783776161438964129,66481,34749,-347854,-380630,-397270,base
1783776161438964130,66481,34782,-347854,-380630,-397270,base
1783776161438964131,66512,34791,-347854,-380630,-397270,base
1783776161438964132,66574,34807,-347854,-380630,-397270,base
1783776161438964133,66589,34849,-347854,-380630,-397270,base
1783776161438964134,66620,34858,-347854,-380630,-397270,base
1783776161438964135,66589,34866,-347854,-380630,-397270,base
1783776161438964136,66651,34917,-347854,-380630,-397270,base
1783776161438964137,66651,34942,-347854,-380630,-397270,base
1783776161438964138,66697,34968,-347854,-380630,-397270,base
1783776161438964139,66743,34985,-347854,-380630,-397270,base
1783776161482802236,66774,35036,-347713,-380514,-397168,base
1783776161482802237,66774,35045,-347713,-380514,-397168,base
1783776161482802238,66821,35070,-347713,-380514,-397168,base
1783776161482802239,66852,35139,-347713,-380514,-397168,base
1783776161482802240,66867,35147,-347713,-380514,-397168,base
1783776161482802241,66930,35164,-347713,-380514,-397168,base
1783776161482802242,66945,35182,-347713,-380514,-397168,base
1783776161482802243,66961,35225,-347713,-380514,-397168,base
1783776161482802244,67007,35268,-347713,-380514,-397168,base
1783776161482802245,67039,35320,-347713,-380514,-397168,base
1783776161482802246,67039,35320,-347713,-380514,-397168,base
1783776161482802247,67101,35354,-347713,-380514,-397168,base
1783776161482802248,67195,35372,-347713,-380514,-397168,base
1783776161482802249,67179,35415,-347713,-380514,-397168,base
1783776161482802250,67226,35424,-347713,-380514,-397168,base
1783776161482802251,67226,35467,-347713,-380514,-397168,base
1783776161482802252,67274,35485,-347713,-380514,-397168,base
1783776161528333531,67289,35494,-347734,-380525,-397152,base
1783776161528333532,67321,35538,-347734,-380525,-397152,base
1783776161528333533,67368,35573,-347734,-380525,-397152,base
1783776161528333534,67352,35581,-347734,-380525,-397152,base
1783776161528333535,67384,35634,-347734,-380525,-397152,base
1783776161528333536,67431,35643,-347734,-380525,-397152,base
1783776161528333537,67447,35670,-347734,-380525,-397152,base
1783776161528333538,67510,35687,-347734,-380525,-397152,base
1783776161528333539,67510,35740,-347734,-380525,-397152,base
1783776161528333540,67542,35758,-347734,-380525,-397152,base
1783776161528333541,67589,35767,-347734,-380525,-397152,base
1783776161528333542,67589,35820,-347734,-380525,-397152,base
1783776161528333543,67637,35829,-347734,-380525,-397152,base
1783776161528333544,67669,35883,-347734,-380525,-397152,base
1783776161528333545,67685,35901,-347734,-380525,-397152,base
1783776161528333546,67716,35955,-347734,-380525,-397152,base
1783776161528333547,67716,35964,-347734,-380525,-397152,base
1783776161562267410,67764,35973,-347621,-380536,-397109,base
1783776161562267411,67796,36018,-347621,-380536,-397109,base
1783776161562267412,67812,36024,-347621,-380536,-397109,base
1783776161562267413,67844,36042,-347621,-380536,-397109,base
1783776161562267414,67876,36066,-347621,-380536,-397109,base
1783776161562267415,67908,36090,-347621,-380536,-397109,base
1783776161562267416,67924,36102,-347621,-380536,-397109,base
1783776161562267417,67988,36150,-347621,-380536,-397109,base
1783776161562267418,68004,36168,-347621,-380536,-397109,base
1783776161562267419,68004,36186,-347621,-380536,-397109,base
1783776161562267420,68036,36205,-347621,-380536,-397109,base
1783776161562267421,68052,36235,-347621,-380536,-397109,base
1783776161562267422,68069,36235,-347621,-380536,-397109,base
1783776161562267423,68085,36265,-347621,-380536,-397109,base
1783776161562267424,68117,36320,-347621,-380536,-397109,base
1783776161562267425,68165,36333,-347621,-380536,-397109,base
1783776161610511890,68149,36357,-347570,-380441,-397058,base
1783776161610511891,68214,36400,-347570,-380441,-397058,base
1783776161610511892,68214,36400,-347570,-380441,-397058,base
1783776161610511893,68262,36437,-347570,-380441,-397058,base
1783776161610511894,68278,36474,-347570,-380441,-397058,base
1783776161610511895,68327,36517,-347570,-380441,-397058,base
1783776161610511896,68343,36535,-347570,-380441,-397058,base
1783776161610511897,68408,36572,-347570,-380441,-397058,base
1783776161610511898,68376,36610,-347570,-380441,-397058,base
1783776161610511899,68441,36622,-347570,-380441,-397058,base
1783776161610511900,68441,36672,-347570,-380441,-397058,base
1783776161610511901,68489,36697,-347570,-380441,-397058,base
1783776161610511902,68489,36691,-347570,-380441,-397058,base
1783776161610511903,68522,36728,-347570,-380441,-397058,base
1783776161610511904,68538,36759,-347570,-380441,-397058,base
1783776161610511905,68604,36809,-347570,-380441,-397058,base
1783776161610511906,68620,36822,-347570,-380441,-397058,base
1783776161647983058,68636,36847,-347440,-380336,-396987,base
1783776161647983059,68669,36866,-347440,-380336,-396987,base
1783776161647983060,68702,36878,-347440,-380336,-396987,base
1783776161647983061,68718,36897,-347440,-380336,-396987,base
1783776161647983062,68767,36935,-347440,-380336,-396987,base
1783776161647983063,68751,36967,-347440,-380336,-396987,base
1783776161647983064,68784,36986,-347440,-380336,-396987,base
1783776161647983065,68800,37024,-347440,-380336,-396987,base
1783776161647983066,68850,37037,-347440,-380336,-396987,base
1783776161647983067,68850,37049,-347440,-380336,-396987,base
1783776161647983068,68883,37062,-347440,-380336,-396987,base
1783776161647983069,68916,37081,-347440,-380336,-396987,base
1783776161647983070,68916,37113,-347440,-380336,-396987,base
1783776161647983071,68932,37138,-347440,-380336,-396987,base
1783776161647983072,68932,37164,-347440,-380336,-396987,base
1783776161647983073,69015,37183,-347440,-380336,-396987,base
1783776161647983074,68982,37183,-347440,-380336,-396987,base
1783776161691940727,68998,37209,-347413,-380356,-396975,base
1783776161691940728,69015,37222,-347413,-380356,-396975,base
1783776161691940729,69048,37247,-347413,-380356,-396975,base
1783776161691940730,69081,37273,-347413,-380356,-396975,base
1783776161691940731,69114,37286,-347413,-380356,-396975,base
1783776161691940732,69097,37331,-347413,-380356,-396975,base
1783776161691940733,69164,37370,-347413,-380356,-396975,base
1783776161691940734,69147,37344,-347413,-380356,-396975,base
1783776161691940735,69214,37383,-347413,-380356,-396975,base
1783776161691940736,69197,37396,-347413,-380356,-396975,base
1783776161691940737,69214,37428,-347413,-380356,-396975,base
1783776161691940738,69247,37415,-347413,-380356,-396975,base
1783776161691940739,69280,37454,-347413,-380356,-396975,base
1783776161691940740,69264,37486,-347413,-380356,-396975,base
1783776161691940741,69330,37486,-347413,-380356,-396975,base
1783776161691940742,69314,37519,-347413,-380356,-396975,base
1783776161691940743,69330,37532,-347413,-380356,-396975,base
1783776161727202495,69364,37545,-347328,-380221,-396886,base
1783776161727202496,69397,37578,-347328,-380221,-396886,base
1783776161727202497,69431,37591,-347328,-380221,-396886,base
1783776161727202498,69464,37624,-347328,-380221,-396886,base
1783776161727202499,69481,37643,-347328,-380221,-396886,base
1783776161727202500,69498,37676,-347328,-380221,-396886,base
1783776161727202501,69514,37670,-347328,-380221,-396886,base
1783776161727202502,69531,37656,-347328,-380221,-396886,base
1783776161727202503,69565,37683,-347328,-380221,-396886,base
1783776161727202504,69565,37702,-347328,-380221,-396886,base
1783776161727202505,69565,37702,-347328,-380221,-396886,base
1783776161727202506,69565,37735,-347328,-380221,-396886,base
1783776161727202507,69615,37709,-347328,-380221,-396886,base
1783776161727202508,69598,37755,-347328,-380221,-396886,base
1783776161727202509,69598,37762,-347328,-380221,-396886,base
1783776161769471377,69615,37762,-347228,-380184,-396819,base
1783776161769471378,69649,37755,-347228,-380184,-396819,base
1783776161769471379,69615,37788,-347228,-380184,-396819,base
1783776161769471380,69632,37775,-347228,-380184,-396819,base
1783776161769471381,69649,37788,-347228,-380184,-396819,base
1783776161769471382,69632,37808,-347228,-380184,-396819,base
1783776161769471383,69598,37768,-347228,-380184,-396819,base
1783776161769471384,69615,37755,-347228,-380184,-396819,base
1783776161769471385,69548,37722,-347228,-380184,-396819,base
1783776161769471386,69481,37624,-347228,-380184,-396819,base
1783776161769471387,69431,37558,-347228,-380184,-396819,base
1783776161769471388,69330,37473,-347228,-380184,-396819,base
1783776161769471389,69197,37357,-347228,-380184,-396819,base
1783776161769471390,69081,37222,-347228,-380184,-396819,base
1783776161769471391,68916,37068,-347228,-380184,-396819,base
1783776161769471392,68735,36904,-347228,-380184,-396819,base
1783776161769471393,68538,36734,-347228,-380184,-396819,base
1783776161811936377,68376,36523,-347319,-380240,-396913,base
1783776161811936378,68181,36345,-347319,-380240,-396913,base
1783776161811936379,67940,36102,-347319,-380240,-396913,base
1783776161811936380,67716,35901,-347319,-380240,-396913,base
1783776161811936381,67510,35714,-347319,-380240,-396913,base
1783776161811936382,67289,35529,-347319,-380240,-396913,base
1783776161811936383,67101,35328,-347319,-380240,-396913,base
1783776161811936384,66914,35156,-347319,-380240,-396913,base
1783776161811936385,66743,34942,-347319,-380240,-396913,base
1783776161811936386,66558,34799,-347319,-380240,-396913,base
1783776161811936387,66374,34665,-347319,-380240,-396913,base
1783776161811936388,66237,34499,-347319,-380240,-396913,base
1783776161811936389,66070,34367,-347319,-380240,-396913,base
1783776161811936390,65949,34204,-347319,-380240,-396913,base
1783776161811936391,65828,34107,-347319,-380240,-396913,base
1783776161811936392,65693,33962,-347319,-380240,-396913,base
1783776161811936393,65573,33858,-347319,-380240,-396913,base
1783776161854463491,65439,33755,-347527,-380369,-397099,base
1783776161854463492,65335,33652,-347527,-380369,-397099,base
1783776161854463493,65276,33566,-347527,-380369,-397099,base
1783776161854463494,65217,33511,-347527,-380369,-397099,base
1783776161854463495,65114,33426,-347527,-380369,-397099,base
1783776161854463496,65040,33333,-347527,-380369,-397099,base
1783776161854463497,64981,33302,-347527,-380369,-397099,base
1783776161854463498,64894,33225,-347527,-380369,-397099,base
1783776161854463499,64850,33164,-347527,-380369,-397099,base
1783776161854463500,64850,33149,-347527,-380369,-397099,base
1783776161854463501,64806,33073,-347527,-380369,-397099,base
1783776161854463502,64748,33088,-347527,-380369,-397099,base
1783776161854463503,64719,33027,-347527,-380369,-397099,base
1783776161854463504,64690,33019,-347527,-380369,-397099,base
1783776161854463505,64690,32989,-347527,-380369,-397099,base
1783776161854463506,64690,32967,-347527,-380369,-397099,base
1783776161854463507,64675,32936,-347527,-380369,-397099,base
1783776161903621579,64675,32944,-347811,-380544,-397236,base
1783776161903621580,64704,32929,-347811,-380544,-397236,base
1783776161903621581,64660,32929,-347811,-380544,-397236,base
1783776161903621582,64690,32914,-347811,-380544,-397236,base
1783776161903621583,64675,32914,-347811,-380544,-397236,base
1783776161903621584,64660,32914,-347811,-380544,-397236,base
1783776161903621585,64675,32921,-347811,-380544,-397236,base
1783776161903621586,64690,32914,-347811,-380544,-397236,base
1783776161903621587,64719,32914,-347811,-380544,-397236,base
1783776161903621588,64733,32936,-347811,-380544,-397236,base
1783776161903621589,64733,32974,-347811,-380544,-397236,base
1783776161903621590,64762,32997,-347811,-380544,-397236,base
1783776161903621591,64777,33004,-347811,-380544,-397236,base
1783776161903621592,64791,33019,-347811,-380544,-397236,base
1783776161903621593,64821,33035,-347811,-380544,-397236,base
1783776161903621594,64835,33065,-347811,-380544,-397236,base
1783776161903621595,64894,33103,-347811,-380544,-397236,base
1783776161936862180,64908,33133,-347817,-380576,-397219,base
1783776161936862181,64952,33156,-347817,-380576,-397219,base
1783776161936862182,65040,33187,-347817,-380576,-397219,base
1783776161936862183,65025,33225,-347817,-380576,-397219,base
1783776161936862184,65055,33264,-347817,-380576,-397219,base
1783776161936862185,65099,33287,-347817,-380576,-397219,base
1783776161936862186,65143,33333,-347817,-380576,-397219,base
1783776161936862187,65187,33371,-347817,-380576,-397219,base
1783776161936862188,65232,33402,-347817,-380576,-397219,base
1783776161936862189,65261,33457,-347817,-380576,-397219,base
1783776161936862190,65320,33480,-347817,-380576,-397219,base
1783776161936862191,65306,33503,-347817,-380576,-397219,base
1783776161936862192,65335,33550,-347817,-380576,-397219,base
1783776161936862193,65409,33589,-347817,-380576,-397219,base
1783776161936862194,65454,33684,-347817,-380576,-397219,base
1783776161936862195,65484,33692,-347817,-380576,-397219,base
1783776161981489099,65573,33755,-347851,-380552,-397174,base
1783776161981489100,65603,33802,-347851,-380552,-397174,base
1783776161981489101,65693,33866,-347851,-380552,-397174,base
1783776161981489102,65723,33898,-347851,-380552,-397174,base
1783776161981489103,65768,33954,-347851,-380552,-397174,base
1783776161981489104,65828,34010,-347851,-380552,-397174,base
1783776161981489105,65873,34058,-347851,-380552,-397174,base
1783776161981489106,65918,34098,-347851,-380552,-397174,base
1783776161981489107,65949,34155,-347851,-380552,-397174,base
1783776161981489108,66009,34253,-347851,-380552,-397174,base
1783776161981489109,66085,34293,-347851,-380552,-397174,base
1783776161981489110,66130,34334,-347851,-380552,-397174,base
1783776161981489111,66176,34375,-347851,-380552,-397174,base
1783776161981489112,66222,34433,-347851,-380552,-397174,base
1783776161981489113,66283,34499,-347851,-380552,-397174,base
1783776161981489114,66313,34548,-347851,-380552,-397174,base
1783776161981489115,66374,34607,-347851,-380552,-397174,base
1783776162021804514,66435,34665,-347756,-380536,-397137,base
1783776162021804515,66481,34732,-347756,-380536,-397137,base
1783776162021804516,66574,34782,-347756,-380536,-397137,base
1783776162021804517,66620,34833,-347756,-380536,-397137,base
1783776162021804518,66651,34858,-347756,-380536,-397137,base
1783776162021804519,66682,34926,-347756,-380536,-397137,base
1783776162021804520,66728,34968,-347756,-380536,-397137,base
1783776162021804521,66759,35010,-347756,-380536,-397137,base
1783776162021804522,66836,35053,-347756,-380536,-397137,base
1783776162021804523,66898,35113,-347756,-380536,-397137,base
1783776162021804524,66945,35139,-347756,-380536,-397137,base
1783776162021804525,66945,35147,-347756,-380536,-397137,base
1783776162021804526,67007,35164,-347756,-380536,-397137,base
1783776162021804527,67007,35207,-347756,-380536,-397137,base
1783776162021804528,67023,35225,-347756,-380536,-397137,base
1783776162021804529,67054,35242,-347756,-380536,-397137,base
1783776162021804530,67070,35242,-347756,-380536,-397137,base
1783776162071357970,67085,35250,-347685,-380497,-397140,base
1783776162071357971,67085,35250,-347685,-380497,-397140,base
1783776162071357972,67085,35242,-347685,-380497,-397140,base
1783776162071357973,67085,35233,-347685,-380497,-397140,base
1783776162071357974,67054,35216,-347685,-380497,-397140,base
1783776162071357975,67039,35190,-347685,-380497,-397140,base
1783776162071357976,67007,35199,-347685,-380497,-397140,base
1783776162071357977,67007,35173,-347685,-380497,-397140,base
1783776162071357978,66992,35164,-347685,-380497,-397140,base
1783776162071357979,66945,35113,-347685,-380497,-397140,base
1783776162071357980,66930,35096,-347685,-380497,-397140,base
1783776162071357981,66914,35079,-347685,-380497,-397140,base
1783776162071357982,66898,35036,-347685,-380497,-397140,base
1783776162071357983,66867,35027,-347685,-380497,-397140,base
1783776162071357984,66821,35002,-347685,-380497,-397140,base
1783776162071357985,66759,34976,-347685,-380497,-397140,base
1783776162071357986,66759,34934,-347685,-380497,-397140,base
1783776162106767926,66712,34883,-347688,-380457,-397090,base
1783776162106767927,66651,34841,-347688,-380457,-397090,base
1783776162106767928,66651,34816,-347688,-380457,-397090,base
1783776162106767929,66574,34765,-347688,-380457,-397090,base
1783776162106767930,66481,34732,-347688,-380457,-397090,base
1783776162106767931,66451,34707,-347688,-380457,-397090,base
1783776162106767932,66451,34698,-347688,-380457,-397090,base
1783776162106767933,66435,34648,-347688,-380457,-397090,base
1783776162106767934,66390,34632,-347688,-380457,-397090,base
1783776162106767935,66374,34615,-347688,-380457,-397090,base
1783776162106767936,66359,34615,-347688,-380457,-397090,base
1783776162106767937,66344,34582,-347688,-380457,-397090,base
1783776162106767938,66313,34590,-347688,-380457,-397090,base
1783776162106767939,66313,34557,-347688,-380457,-397090,base
1783776162106767940,66298,34565,-347688,-380457,-397090,base
1783776162106767941,66283,34532,-347688,-380457,-397090,base
1783776162106767942,66252,34540,-347688,-380457,-397090,base
1783776162145206537,66283,34540,-347687,-380472,-397141,base
1783776162145206538,66237,34532,-347687,-380472,-397141,base
1783776162145206539,66267,34532,-347687,-380472,-397141,base
1783776162145206540,66252,34524,-347687,-380472,-397141,base
1783776162145206541,66283,34524,-347687,-380472,-397141,base
1783776162145206542,66267,34532,-347687,-380472,-397141,base
1783776162145206543,66252,34532,-347687,-380472,-397141,base
1783776162145206544,66267,34540,-347687,-380472,-397141,base
1783776162145206545,66267,34557,-347687,-380472,-397141,base
1783776162145206546,66313,34565,-347687,-380472,-397141,base
1783776162145206547,66298,34565,-347687,-380472,-397141,base
1783776162145206548,66328,34607,-347687,-380472,-397141,base
1783776162145206549,66344,34598,-347687,-380472,-397141,base
1783776162145206550,66344,34623,-347687,-380472,-397141,base
1783776162145206551,66374,34640,-347687,-380472,-397141,base
1783776162187204957,66405,34632,-347675,-380437,-397166,base
1783776162187204958,66420,34657,-347675,-380437,-397166,base
1783776162187204959,66435,34690,-347675,-380437,-397166,base
1783776162187204960,66451,34690,-347675,-380437,-397166,base
1783776162187204961,66466,34715,-347675,-380437,-397166,base
1783776162187204962,66481,34740,-347675,-380437,-397166,base
1783776162187204963,66528,34791,-347675,-380437,-397166,base
1783776162187204964,66558,34799,-347675,-380437,-397166,base
1783776162187204965,66589,34807,-347675,-380437,-397166,base
1783776162187204966,66589,34858,-347675,-380437,-397166,base
1783776162187204967,66635,34875,-347675,-380437,-397166,base
1783776162187204968,66666,34866,-347675,-380437,-397166,base
1783776162187204969,66697,34917,-347675,-380437,-397166,base
1783776162187204970,66697,34942,-347675,-380437,-397166,base
1783776162187204971,66774,34951,-347675,-380437,-397166,base
1783776162187204972,66821,35002,-347675,-380437,-397166,base
1783776162187204973,66836,35036,-347675,-380437,-397166,base
1783776162234024202,66821,35053,-347489,-380429,-397049,base
1783776162234024203,66852,35079,-347489,-380429,-397049,base
1783776162234024204,66883,35113,-347489,-380429,-397049,base
1783776162234024205,66930,35121,-347489,-380429,-397049,base
1783776162234024206,66976,35164,-347489,-380429,-397049,base
1783776162234024207,67007,35199,-347489,-380429,-397049,base
1783776162234024208,67023,35250,-347489,-380429,-397049,base
1783776162234024209,67039,35242,-347489,-380429,-397049,base
1783776162234024210,67101,35268,-347489,-380429,-397049,base
1783776162234024211,67117,35311,-347489,-380429,-397049,base
1783776162234024212,67148,35337,-347489,-380429,-397049,base
1783776162234024213,67164,35363,-347489,-380429,-397049,base
1783776162234024214,67164,35406,-347489,-380429,-397049,base
1783776162234024215,67242,35415,-347489,-380429,-397049,base
1783776162234024216,67258,35467,-347489,-380429,-397049,base
1783776162234024217,67289,35502,-347489,-380429,-397049,base
1783776162234024218,67336,35529,-347489,-380429,-397049,base
1783776162271530546,67336,35546,-347420,-380336,-396987,base
1783776162271530547,67352,35590,-347420,-380336,-396987,base
1783776162271530548,67399,35608,-347420,-380336,-396987,base
1783776162271530549,67431,35661,-347420,-380336,-396987,base
1783776162271530550,67463,35661,-347420,-380336,-396987,base
1783776162271530551,67494,35723,-347420,-380336,-396987,base
1783776162271530552,67542,35758,-347420,-380336,-396987,base
1783776162271530553,67589,35776,-347420,-380336,-396987,base
1783776162271530554,67573,35785,-347420,-380336,-396987,base
1783776162271530555,67605,35829,-347420,-380336,-396987,base
1783776162271530556,67621,35847,-347420,-380336,-396987,base
1783776162271530557,67669,35883,-347420,-380336,-396987,base
1783776162271530558,67716,35892,-347420,-380336,-396987,base
1783776162271530559,67700,35946,-347420,-380336,-396987,base
1783776162271530560,67780,35982,-347420,-380336,-396987,base
1783776162271530561,67780,36018,-347420,-380336,-396987,base
1783776162271530562,67828,36024,-347420,-380336,-396987,base
1783776162271530563,67876,36042,-347420,-380336,-396987,base
1783776162316976972,67876,36072,-347331,-380196,-396893,base
1783776162316976973,67924,36108,-347331,-380196,-396893,base
1783776162316976974,67956,36126,-347331,-380196,-396893,base
1783776162316976975,67956,36144,-347331,-380196,-396893,base
1783776162316976976,67988,36180,-347331,-380196,-396893,base
1783776162316976977,68020,36199,-347331,-380196,-396893,base
1783776162316976978,68036,36229,-347331,-380196,-396893,base
1783776162316976979,68069,36253,-347331,-380196,-396893,base
1783776162316976980,68117,36278,-347331,-380196,-396893,base
1783776162316976981,68149,36314,-347331,-380196,-396893,base
1783776162316976982,68181,36333,-347331,-380196,-396893,base
1783776162316976983,68197,36369,-347331,-380196,-396893,base
1783776162316976984,68197,36394,-347331,-380196,-396893,base
1783776162316976985,68246,36406,-347331,-380196,-396893,base
1783776162316976986,68278,36431,-347331,-380196,-396893,base
1783776162316976987,68294,36449,-347331,-380196,-396893,base
1783776162316976988,68294,36455,-347331,-380196,-396893,base
1783776162354053766,68327,36504,-347207,-380166,-396829,base
1783776162354053767,68343,36529,-347207,-380166,-396829,base
1783776162354053768,68392,36548,-347207,-380166,-396829,base
1783776162354053769,68408,36597,-347207,-380166,-396829,base
1783776162354053770,68424,36579,-347207,-380166,-396829,base
1783776162354053771,68457,36610,-347207,-380166,-396829,base
1783776162354053772,68457,36622,-347207,-380166,-396829,base
1783776162354053773,68489,36653,-347207,-380166,-396829,base
1783776162354053774,68489,36684,-347207,-380166,-396829,base
1783776162354053775,68555,36691,-347207,-380166,-396829,base
1783776162354053776,68587,36722,-347207,-380166,-396829,base
1783776162354053777,68571,36740,-347207,-380166,-396829,base
1783776162354053778,68620,36747,-347207,-380166,-396829,base
1783776162354053779,68620,36772,-347207,-380166,-396829,base
1783776162354053780,68653,36791,-347207,-380166,-396829,base
1783776162396557480,68669,36809,-347095,-380032,-396736,base
1783776162396557481,68685,36841,-347095,-380032,-396736,base
1783776162396557482,68702,36878,-347095,-380032,-396736,base
1783776162396557483,68718,36891,-347095,-380032,-396736,base
1783776162396557484,68767,36910,-347095,-380032,-396736,base
1783776162396557485,68784,36923,-347095,-380032,-396736,base
1783776162396557486,68817,36942,-347095,-380032,-396736,base
1783776162396557487,68817,36960,-347095,-380032,-396736,base
1783776162396557488,68833,36986,-347095,-380032,-396736,base
1783776162396557489,68850,37011,-347095,-380032,-396736,base
1783776162396557490,68850,37024,-347095,-380032,-396736,base
1783776162396557491,68899,37068,-347095,-380032,-396736,base
1783776162396557492,68916,37081,-347095,-380032,-396736,base
1783776162396557493,68899,37100,-347095,-380032,-396736,base
1783776162396557494,68965,37119,-347095,-380032,-396736,base
1783776162396557495,68965,37119,-347095,-380032,-396736,base
1783776162396557496,69015,37164,-347095,-380032,-396736,base
1783776162437039173,69015,37164,-346913,-379944,-396625,base
1783776162437039174,69048,37196,-346913,-379944,-396625,base
1783776162437039175,69048,37241,-346913,-379944,-396625,base
1783776162437039176,69097,37267,-346913,-379944,-396625,base
1783776162437039177,69081,37273,-346913,-379944,-396625,base
1783776162437039178,69097,37305,-346913,-379944,-396625,base
1783776162437039179,69164,37331,-346913,-379944,-396625,base
1783776162437039180,69164,37350,-346913,-379944,-396625,base
1783776162437039181,69197,37363,-346913,-379944,-396625,base
1783776162437039182,69214,37415,-346913,-379944,-396625,base
1783776162437039183,69230,37396,-346913,-379944,-396625,base
1783776162437039184,69247,37415,-346913,-379944,-396625,base
1783776162437039185,69247,37460,-346913,-379944,-396625,base
1783776162437039186,69297,37467,-346913,-379944,-396625,base
1783776162437039187,69280,37493,-346913,-379944,-396625,base
1783776162478931162,69314,37532,-346986,-380014,-396709,base
1783776162478931163,69347,37539,-346986,-380014,-396709,base
1783776162478931164,69347,37552,-346986,-380014,-396709,base
1783776162478931165,69347,37584,-346986,-380014,-396709,base
1783776162478931166,69380,37604,-346986,-380014,-396709,base
1783776162478931167,69414,37591,-346986,-380014,-396709,base
1783776162478931168,69431,37643,-346986,-380014,-396709,base
1783776162478931169,69431,37630,-346986,-380014,-396709,base
1783776162478931170,69447,37650,-346986,-380014,-396709,base
1783776162478931171,69431,37617,-346986,-380014,-396709,base
1783776162478931172,69397,37643,-346986,-380014,-396709,base
1783776162478931173,69380,37565,-346986,-380014,-396709,base
1783776162478931174,69364,37545,-346986,-380014,-396709,base
1783776162478931175,69280,37467,-346986,-380014,-396709,base
1783776162478931176,69180,37396,-346986,-380014,-396709,base
1783776162478931177,69081,37286,-346986,-380014,-396709,base
1783776162478931178,68949,37164,-346986,-380014,-396709,base
1783776162521213906,68767,37024,-347246,-380244,-396912,base
1783776162521213907,68636,36853,-347246,-380244,-396912,base
1783776162521213908,68457,36697,-347246,-380244,-396912,base
1783776162521213909,68294,36517,-347246,-380244,-396912,base
1783776162521213910,68085,36302,-347246,-380244,-396912,base
1783776162521213911,67892,36096,-347246,-380244,-396912,base
1783776162521213912,67685,35892,-347246,-380244,-396912,base
1783776162521213913,67510,35705,-347246,-380244,-396912,base
1783776162521213914,67289,35520,-347246,-380244,-396912,base
1783776162521213915,67085,35354,-347246,-380244,-396912,base
1783776162521213916,66898,35139,-347246,-380244,-396912,base
1783776162521213917,66712,34985,-347246,-380244,-396912,base
1783776162521213918,66528,34807,-347246,-380244,-396912,base
1783776162521213919,66390,34615,-347246,-380244,-396912,base
1783776162521213920,66206,34458,-347246,-380244,-396912,base
1783776162521213921,66039,34342,-347246,-380244,-396912,base
1783776162521213922,65934,34228,-347246,-380244,-396912,base
1783776162560933452,65828,34074,-347317,-380227,-396983,base
1783776162560933453,65708,33994,-347317,-380227,-396983,base
1783776162560933454,65603,33874,-347317,-380227,-396983,base
1783776162560933455,65514,33747,-347317,-380227,-396983,base
1783776162560933456,65380,33668,-347317,-380227,-396983,base
1783776162560933457,65291,33566,-347317,-380227,-396983,base
1783776162560933458,65232,33488,-347317,-380227,-396983,base
1783776162560933459,65143,33449,-347317,-380227,-396983,base
1783776162560933460,65084,33371,-347317,-380227,-396983,base
1783776162560933461,65025,33317,-347317,-380227,-396983,base
1783776162560933462,64952,33240,-347317,-380227,-396983,base
1783776162560933463,64923,33202,-347317,-380227,-396983,base
1783776162560933464,64894,33149,-347317,-380227,-396983,base
1783776162560933465,64821,33118,-347317,-380227,-396983,base
1783776162560933466,64806,33088,-347317,-380227,-396983,base
1783776162601214147,64791,33065,-347385,-380309,-396980,base
1783776162601214148,64791,33042,-347385,-380309,-396980,base
1783776162601214149,64762,33042,-347385,-380309,-396980,base
1783776162601214150,64704,33019,-347385,-380309,-396980,base
1783776162601214151,64748,33004,-347385,-380309,-396980,base
1783776162601214152,64733,32989,-347385,-380309,-396980,base
1783776162601214153,64748,33004,-347385,-380309,-396980,base
1783776162601214154,64733,33012,-347385,-380309,-396980,base
1783776162601214155,64748,33004,-347385,-380309,-396980,base
1783776162601214156,64777,33019,-347385,-380309,-396980,base
1783776162601214157,64777,33027,-347385,-380309,-396980,base
1783776162601214158,64806,33042,-347385,-380309,-396980,base
1783776162601214159,64806,33073,-347385,-380309,-396980,base
1783776162601214160,64806,33080,-347385,-380309,-396980,base
1783776162601214161,64835,33141,-347385,-380309,-396980,base
1783776162601214162,64879,33141,-347385,-380309,-396980,base
1783776162601214163,64923,33156,-347385,-380309,-396980,base
1783776162644492683,64981,33210,-347351,-380238,-396918,base
1783776162644492684,64996,33240,-347351,-380238,-396918,base
1783776162644492685,65011,33271,-347351,-380238,-396918,base
1783776162644492686,65070,33317,-347351,-380238,-396918,base
1783776162644492687,65099,33364,-347351,-380238,-396918,base
1783776162644492688,65143,33371,-347351,-380238,-396918,base
1783776162644492689,65173,33410,-347351,-380238,-396918,base
1783776162644492690,65261,33496,-347351,-380238,-396918,base
1783776162644492691,65291,33503,-347351,-380238,-396918,base
1783776162644492692,65320,33566,-347351,-380238,-396918,base
1783776162644492693,65380,33621,-347351,-380238,-396918,base
1783776162644492694,65424,33684,-347351,-380238,-396918,base
1783776162644492695,65469,33715,-347351,-380238,-396918,base
1783776162644492696,65529,33779,-347351,-380238,-396918,base
1783776162644492697,65573,33818,-347351,-380238,-396918,base
1783776162644492698,65648,33882,-347351,-380238,-396918,base
1783776162644492699,65708,33922,-347351,-380238,-396918,base
1783776162683616075,65723,33978,-347253,-380248,-396951,base
1783776162683616076,65798,34010,-347253,-380248,-396951,base
1783776162683616077,65828,34058,-347253,-380248,-396951,base
1783776162683616078,65888,34107,-347253,-380248,-396951,base
1783776162683616079,65949,34179,-347253,-380248,-396951,base
1783776162683616080,65979,34228,-347253,-380248,-396951,base
1783776162683616081,66009,34269,-347253,-380248,-396951,base
1783776162683616082,66100,34334,-347253,-380248,-396951,base
1783776162683616083,66146,34375,-347253,-380248,-396951,base
1783776162683616084,66191,34433,-347253,-380248,-396951,base
1783776162683616085,66252,34482,-347253,-380248,-396951,base
1783776162683616086,66328,34507,-347253,-380248,-396951,base
1783776162683616087,66359,34590,-347253,-380248,-396951,base
1783776162683616088,66435,34657,-347253,-380248,-396951,base
1783776162683616089,66481,34715,-347253,-380248,-396951,base
1783776162683616090,66543,34765,-347253,-380248,-396951,base
1783776162721188286,66604,34816,-347178,-380115,-396848,base
1783776162721188287,66666,34866,-347178,-380115,-396848,base
1783776162721188288,66728,34934,-347178,-380115,-396848,base
1783776162721188289,66759,34976,-347178,-380115,-396848,base
1783776162721188290,66805,35045,-347178,-380115,-396848,base
1783776162721188291,66836,35087,-347178,-380115,-396848,base
1783776162721188292,66898,35121,-347178,-380115,-396848,base
1783776162721188293,66961,35173,-347178,-380115,-396848,base
1783776162721188294,67023,35225,-347178,-380115,-396848,base
1783776162721188295,67039,35285,-347178,-380115,-396848,base
1783776162721188296,67101,35346,-347178,-380115,-396848,base
1783776162721188297,67148,35363,-347178,-380115,-396848,base
1783776162721188298,67164,35389,-347178,-380115,-396848,base
1783776162721188299,67242,35450,-347178,-380115,-396848,base
1783776162721188300,67274,35485,-347178,-380115,-396848,base
1783776162721188301,67321,35538,-347178,-380115,-396848,base
1783776162764105043,67336,35546,-347148,-380129,-396793,base
1783776162764105044,67352,35581,-347148,-380129,-396793,base
1783776162764105045,67384,35599,-347148,-380129,-396793,base
1783776162764105046,67384,35617,-347148,-380129,-396793,base
1783776162764105047,67431,35634,-347148,-380129,-396793,base
