window_start_ns,window_end_ns,red_Mean_NN,red_Median_NN,red_Heart_Rate,red_Mean_HR,red_SDNN,red_SDSD,red_RMSSD,red_NN_Count,red_SD1,red_SD2,red_SD1_SD2,infrared_Mean_NN,infrared_Median_NN,infrared_Heart_Rate,infrared_Mean_HR,infrared_SDNN,infrared_SDSD,infrared_RMSSD,infrared_NN_Count,infrared_SD1,infrared_SD2,infrared_SD1_SD2,ppg0_Mean_NN,ppg0_Median_NN,ppg0_Heart_Rate,ppg0_Mean_HR,ppg0_SDNN,ppg0_SDSD,ppg0_RMSSD,ppg0_NN_Count,ppg0_SD1,ppg0_SD2,ppg0_SD1_SD2,ppg1_Mean_NN,ppg1_Median_NN,ppg1_Heart_Rate,ppg1_Mean_HR,ppg1_SDNN,ppg1_SDSD,ppg1_RMSSD,ppg1_NN_Count,ppg1_SD1,ppg1_SD2,ppg1_SD1_SD2,ppg2_Mean_NN,ppg2_Median_NN,ppg2_Heart_Rate,ppg2_Mean_HR,ppg2_SDNN,ppg2_SDSD,ppg2_RMSSD,ppg2_NN_Count,ppg2_SD1,ppg2_SD2,ppg2_SD1_SD2,label
1783334795035043641,1783334805035043641,1377.0821183471076,1176.6845440000002,23.795672461896462,59.96025363487958,802.9998624008332,1139.987894849379,1135.3019546333196,121.0,806.0931709185728,982.2038779859986,0.820698420140084,1136.6612601904762,1050.6112,109.82618059336829,69.32425661065112,599.0860983061895,821.5051552649287,818.7420489943145,147.0,580.8918660675387,741.006495474738,0.7839227720876869,1060.452368202532,735.4278400000001,41.99236316805258,67.38639010524372,554.3439449335737,772.3872661778786,769.9264825395907,158.0,546.1602736165169,682.2381522097687,0.8005419688821334,1117.1734129395973,756.4400640000001,83.98472633610515,65.4649672988713,622.9039171193361,867.0146337795654,864.0805656906142,149.0,613.0719269335018,766.8702537771609,0.7994467433230886,1045.0954912000002,714.4156160000001,41.99236316805258,69.33849385432383,580.992528104697,758.7445730908797,756.3666424633367,160.0,536.5134328210531,728.8218600098786,0.7361379539491051,base
1783334796035043641,1783334806035043641,1350.5437522580646,1218.7089920000003,38.58757696523751,60.63664808438978,761.025973757961,1059.037191007819,1054.723597318432,124.0,748.8523792903818,936.9797876603703,0.7992193525969852,1164.047821874126,1050.6112,109.82618059336829,68.8510354115409,667.1180822058253,952.5694488333907,949.2094511696774,143.0,673.5683168212225,814.3991235869972,0.8270739706281982,1042.7316160000003,735.4278400000001,83.98472633610515,68.07601236036344,543.7436835843118,756.7243890444329,754.3447497809096,160.0,535.0849469825656,669.4448719887284,0.7992965057645178,1112.247057066667,756.4400640000001,83.98472633610515,66.26531051038492,638.5709315016517,897.9712664041514,894.956466911331,150.0,634.9615717850472,783.5544462868585,0.8103604986150362,1042.7316160000003,714.4156160000001,83.98472633610515,69.14936907892903,575.3650333377657,751.5070191621033,749.1438386387323,160.0,531.395709358812,721.7334294689825,0.736276979368668,base
1783334797035043641,1783334807035043641,1340.0376402580648,1197.6967680000002,44.61688586605587,61.16363366067117,758.9264988659871,1063.2989746134697,1058.969177801483,124.0,751.865915377887,932.355985666664,0.8064150677815181,1223.0350381176474,1134.660096,118.97836230948229,66.27169489901748,745.2770670347054,1106.918827138792,1102.8189323910447,136.0,782.7098088928997,896.9718450582079,0.8726135755600073,1062.4642494358977,756.4400640000001,41.99236316805258,67.10661812058937,551.6784713931949,784.1753046835199,781.6416137155048,156.0,554.495675580744,674.5113375463687,0.8220702080380163,1112.378677261745,756.4400640000001,36.608726864456095,65.96730700757496,628.974913421016,900.1291101101244,897.0841026344327,149.0,636.4873977022814,767.2423213750909,0.829578061545844,1076.2624864415586,714.4156160000001,21.632429510814962,67.70134259659676,599.7734590378883,805.3706236010714,802.8471974727237,154.0,569.4830293167562,746.5259164909496,0.7628442854249659,base
1783334798035043641,1783334808035043641,1311.6922194645672,1134.660096,39.65945410316077,62.27033168716963,743.9525621948451,1057.851438684567,1053.6685327135824,127.0,748.0139257818025,909.487994978932,0.8224560740893893,1200.5689425035976,1092.6356480000002,178.46754346422347,68.43467447743956,741.6106856502865,1104.597666056102,1100.6003994007792,139.0,781.0685001511032,891.5934147228933,0.8760366409770521,1067.0438367179488,756.4400640000001,64.89728853244489,66.64762749474822,552.1487258969918,793.2687958453188,790.7068856474148,156.0,560.9257448459119,672.6199412772953,0.8339415923065294,1102.3764140927155,756.4400640000001,83.98472633610515,66.35788008153106,621.7619684147977,878.2658216210338,875.3333732954653,151.0,621.0277181526077,761.7993025575505,0.8152117179257877,1073.927990503226,714.4156160000001,83.98472633610515,68.09918024323562,618.0417105167666,849.3416333036489,846.5795393765862,155.0,600.5752284530681,763.9409724325917,0.7861539701695492,base
1783334799035043641,1783334809035043641,1270.0365620763362,1134.660096,57.109613908551516,63.12496864775326,688.0545728458405,968.12338183743,964.4447069274607,131.0,684.5666083225,844.1104606703193,0.8109917365304021,1210.7913423768118,1092.6356480000002,59.489181154741146,68.08015626108447,745.2037850241943,1105.5666770757662,1101.5305225705893,138.0,781.7536944141523,897.2669296612258,0.8712610133857412,1061.8534090191083,756.4400640000001,40.79258136325108,66.69966889693781,506.74294227137597,689.4746888681047,687.2783870334696,157.0,487.53222795512187,628.2777908188859,0.775981954287579,1111.4065681066668,756.4400640000001,40.79258136325108,65.9060692649095,624.5492772429319,894.8921243058467,891.898523934188,150.0,632.7842895270991,761.5219109606627,0.8309469240731884,1073.2607401558444,714.4156160000001,40.79258136325108,67.67491458276267,603.9700678121826,855.4857567503472,852.6918388759309,154.0,604.9197798066758,739.3211180707788,0.8182097941219149,base
1783334800035043641,1783334810035043641,1276.2501592615386,1134.660096,64.89728853244489,62.197337763629754,685.5805149250588,974.6391910245518,970.8585973128492,130.0,689.1739811836314,838.1890578619893,0.8222178215276896,1209.1998103357666,1092.6356480000002,118.97836230948229,68.75842803625692,752.2913510675278,1112.6026869593973,1108.5053780151497,137.0,786.7289047153633,906.8700949004191,0.8675210585720681,1061.5857373757963,756.4400640000001,43.264859021629924,66.24445280200959,491.49551081811114,674.4921494645098,672.3406559488452,157.0,476.93797274344524,607.7834806790971,0.7847169064393561,1103.7679521059604,756.4400640000001,41.99236316805258,66.02665422732319,607.2438601816546,870.1184884744292,867.2187191662298,151.0,615.2666836360577,740.4145227238437,0.8309759800126678,1080.000846640523,714.4156160000001,64.89728853244489,66.84860236296883,556.976967579322,785.6399336974326,783.0513272080846,153.0,555.5313246884042,682.7438454301055,0.8136745990561634,base
1783334801035043641,1783334811035043641,1276.1317110229008,1134.660096,25.95891541297796,62.86832437280183,675.3788954151534,956.4904110120829,952.8242961643264,131.0,676.3408557665517,826.7737466531394,0.8180482973781465,1219.6292353868614,1092.6356480000002,49.232425783234056,68.07836415564012,769.3672626335671,1118.467567836649,1114.3589355946838,137.0,790.8760017545194,933.3324941032157,0.8473679066691293,1029.4684652919257,756.4400640000001,41.99236316805258,67.49459287331251,448.0366962694501,634.3922222632403,632.4120934916581,161.0,448.5830422943407,548.5074197228911,0.8178249302825608,1108.9941579597316,756.4400640000001,21.309557428563995,65.85695311570844,612.7760005126529,868.2837944721143,865.4397641531934,149.0,613.9693590656185,750.0064444208746,0.8186187780555692,1104.9628194133336,819.4767360000001,41.99236316805258,65.03238082194106,550.4255644450922,796.0547818422458,793.3789598784676,150.0,562.8957344366297,668.9624803125511,0.8414458971953628,base
1783334802035043641,1783334812035043641,1255.0459207218046,1134.660096,50.990726704063846,62.43047155435804,655.9082856446096,908.7765140884762,905.3303773574657,133.0,642.6020356950336,808.6795843934734,0.7946312088204854,1189.9872469640288,1050.6112,47.591344923792924,68.98637230465994,747.3860829895513,1082.2856555680328,1078.3644677445743,139.0,765.291526233084,907.9297076485863,0.8428973298110097,1021.219868269939,756.4400640000001,41.99236316805258,67.99479342332772,448.8716374552004,644.2244281979529,642.2481438892916,163.0,455.53546178479854,547.0056812791628,0.8327801289367547,1117.1734129395977,924.5378560000001,83.98472633610515,64.99580578086704,602.1564816669205,860.8613898814606,857.9549112985956,149.0,608.7209264468571,734.7885911470106,0.828430018893787,1076.2624864415586,756.4400640000001,83.98472633610515,65.96727283323673,519.4541163787934,767.5186939627438,765.0206012379117,154.0,542.7176731884986,626.4135388464853,0.8663887983454043,base
1783334803035043641,1783334813035043641,1234.5076566616544,1134.660096,54.913090296684146,62.08357776108473,596.216945918887,799.2862282241955,796.258028319149,133.0,565.1807120863471,742.4517994755449,0.7612355609961224,1197.0964187428574,1071.623424,89.23377173211173,68.48829176993588,748.3426379472163,1092.4584294099477,1088.5231409780015,140.0,772.4847636001792,906.4585222404744,0.8522008946320511,987.4471811878791,714.4156160000001,50.990726704063846,69.59350056471305,412.5278544161027,596.499095713591,594.6777201770848,165.0,421.7885555507237,501.40369817296266,0.8412154858204193,1130.4008614054057,924.5378560000001,29.13755811660791,63.83808568062324,564.10983160641,790.4352523684632,787.7472965461046,148.0,558.9221270386404,692.9955499015311,0.8065306149773379,1049.5539811823903,714.4156160000001,95.18268984758585,67.35996793401058,507.07734026726115,733.662646382701,731.3547038706954,159.0,518.7778323604759,616.1896123359452,0.841912654765169,base
1783334804035043641,1783334814035043641,1235.5187712000002,1134.660096,64.89728853244489,61.238939527115626,588.9512665079731,820.8589661731689,817.7903237827244,135.0,580.4349413788266,724.7584618726229,0.8008667327306607,1218.7089920000003,1092.6356480000002,67.98763560541846,67.4872955245205,750.101190307505,1100.0978872875273,1096.018706574827,136.0,777.8866760700048,907.0555390922054,0.8575954200649337,1044.5701856,714.4156160000001,57.109613908551516,68.85728952124236,594.9663456820231,764.3601763917343,761.9556705880525,160.0,540.4842639955409,749.6054196542608,0.721025021730536,1116.8913696644297,756.4400640000001,15.028845765408292,64.90194888818108,592.0459087262537,785.4937186088107,783.148769557359,149.0,555.4279350077278,739.4502150824738,0.7511363492480406,1051.139809408805,714.4156160000001,67.98763560541846,67.64910136945265,536.6777842087845,773.6716774221798,771.2272142389442,159.0,547.0684895171944,652.9962649320354,0.8377819581772553,base
1783334805035043641,1783334815035043641,1226.1250710588236,1134.660096,64.89728853244489,61.793658483691615,584.1220755020206,798.6036399150216,795.6579496710965,136.0,564.6980492641716,723.1564524749788,0.7808795003232168,1233.339725748148,1134.660096,50.990726704063846,66.688603325244,749.8659715967717,1107.740047225291,1103.6053651807583,135.0,783.2904991849095,904.3372975062283,0.8661486166111765,1044.5701856,714.4156160000001,16.410808594411353,69.18308000862454,617.2861865977673,740.1231864618834,737.9250554712747,160.0,523.3461240605933,790.6572516231064,0.6619127605371841,1099.8240404210526,756.4400640000001,41.99236316805258,65.5747699752552,561.817541699657,758.4297174489452,755.9141890683018,152.0,536.2907962615463,698.1933766840459,0.7681121221867943,1059.3884581265825,714.4156160000001,36.608726864456095,68.13318642214001,580.6451901864339,787.9811517612109,785.4897230970639,158.0,557.1868158575382,720.4645028664138,0.7733716423789584,base
1783334806035043641,1783334816035043641,1215.309955764706,1008.5867520000003,71.38701738568939,62.115612018737615,587.1192934376754,816.6127692051173,813.5828939286539,136.0,577.4324267084635,722.9827285255838,0.798680803739325,1178.4728183829789,1134.660096,36.608726864456095,67.74044475648074,606.4154751894156,831.138608130224,828.2045931677981,141.0,587.7037459148299,750.1877169197372,0.7834089157416964,1058.0585705316457,714.4156160000001,37.57211441352073,69.2166309767077,638.8399148240508,763.7896377398807,761.3537244278008,158.0,540.0808322458863,818.7729971518945,0.6596221835900303,1085.5406113246756,714.4156160000001,43.264859021629924,66.66403327943459,577.4269860539571,767.9970277262023,765.495734226444,154.0,543.0559062363106,720.6864712186868,0.7535258783448489,1092.635648,714.4156160000001,13.597527121083692,67.81578967401893,656.6906104301355,856.1492891729422,853.5477988165037,153.0,605.3889680822299,824.1584885908622,0.7345540651013833,base
1783334807035043641,1783334817035043641,1199.1976411428573,1008.5867520000003,64.89728853244489,63.807257975681786,629.1544180278073,861.8091539189721,858.7037381385443,140.0,609.3910968247462,778.4547571973494,0.7828214693153411,1145.3101273424659,1092.6356480000002,52.8792721375477,69.32750818902922,585.99439598293,790.7865666518557,788.1240651786106,146.0,559.1705437507549,728.3151898371614,0.7677590026315059,1058.0585705316455,714.4156160000001,41.99236316805258,70.02979628168994,695.0382199087179,852.6789684055942,849.9712730356771,158.0,602.9350807347456,885.6584547541177,0.6807760683571145,1124.7218819459463,714.4156160000001,41.99236316805258,66.00713858977018,665.9162703382518,886.6431398570336,883.6222004449113,148.0,626.9513766854409,830.8760099067313,0.7545667093647563,1064.7977970955415,714.4156160000001,41.99236316805258,68.73072267441415,624.2951933408575,825.0005492300819,822.3520655118098,157.0,583.3634828432171,780.5975277308487,0.7473294010282361,base
1783334808035043641,1783334818035043641,1209.87776742029,1050.6112,50.990726704063846,63.14955912632188,621.8004124127648,870.878136311595,867.7017354787274,138.0,615.8038357730313,763.9792691408448,0.8060478348654034,1147.4123422896553,1092.6356480000002,54.913090296684146,67.66982639787048,559.9608575541408,737.5748496418257,735.0191554227324,145.0,521.5441778143831,700.7910953197801,0.7442220389178829,1071.8928114871796,714.4156160000001,41.99236316805258,69.54932585120183,705.928363923588,864.6330792985914,861.853244535021,156.0,611.3879136102398,899.873390833025,0.6794154820427235,1145.3101273424659,756.4400640000001,41.99236316805258,65.15801449909652,670.174194957931,902.5901477431506,899.4843364522391,146.0,638.2276141013497,833.4264571480024,0.7657875612509037,1058.5905255696205,714.4156160000001,40.79258136325108,69.22700521816907,620.740045835516,806.1265603915122,803.5551772520636,158.0,570.0175573474252,779.8566542420436,0.7309260673058374,base
1783334809035043641,1783334819035043641,1250.6222946165415,1176.6845440000002,35.693508692844695,61.8708548877337,641.8954956133844,896.5706363080155,893.1749444953439,133.0,633.9711767461356,789.3667893350116,0.8031389023602242,1151.7596989793105,1092.6356480000002,64.89728853244489,67.84905257994814,568.032108281746,756.1052963784949,753.4834953654434,145.0,534.6471823602981,708.7997935066767,0.7542992919272935,1051.404114113208,714.4156160000001,41.99236316805258,70.47336308941993,695.5395553845439,858.6549191998029,855.9333436714801,159.0,607.1607160653676,885.0019653325934,0.6860557827543242,1140.1290310136988,756.4400640000001,83.98472633610515,64.98944086671314,653.0622102673874,872.0073444979538,869.0091876994595,146.0,616.602306538977,814.1752260687236,0.7573336633150396,1049.0153348860763,714.4156160000001,29.13755811660791,70.09377388372144,630.8730598152798,826.0193524976148,823.3846893473357,158.0,584.0838855423846,790.837936954369,0.738563311456423,base
1783334810035043641,1783334820035043641,1211.095867362319,1092.6356480000002,52.8792721375477,63.979485574595486,646.4545521518443,900.4485080959856,897.2098779933851,138.0,636.7132461839813,795.6790163518273,0.8002136955971254,1174.6129162816903,1092.6356480000002,64.89728853244489,66.50797293185617,578.6034427134377,786.1891586554996,783.3965199220867,142.0,555.9196853806502,717.663249402409,0.7746247085155314,1025.6027861595092,714.4156160000001,83.98472633610515,71.56039106509725,686.4253325594309,849.3431527187274,846.7176652849264,163.0,600.5763028417736,872.9338615216526,0.687997486768219,1104.9628194133336,735.4278400000001,83.98472633610515,66.12758788780593,615.0450715887379,811.7233985151373,809.0452521386787,150.0,573.975119537844,769.3095353932318,0.7460912586303212,1038.343193440994,714.4156160000001,41.99236316805258,71.166807970604,643.7536391737184,832.7301230196284,830.1357709855125,161.0,588.8291168854872,809.615730734489,0.7272945602863933,base
1783334811035043641,1783334821035043641,1221.4697221605838,1092.6356480000002,46.056140248831866,62.75689416330795,641.4592521399207,886.3610762022238,883.101789562796,137.0,626.7519275623987,791.5370837555381,0.791816252737904,1164.6355763916085,1092.6356480000002,46.056140248831866,66.83431397110678,555.3407720795974,777.4149888434076,774.6838555549878,143.0,549.7154104072376,682.4318501127624,0.8055242590397925,1049.2813124050633,714.4156160000001,83.98472633610515,70.69734194185627,709.627471401066,877.7219389758346,874.9222217866101,158.0,620.6431350460177,902.5205514525787,0.6876775648456004,1074.1991159741938,714.4156160000001,40.79258136325108,67.12730278035566,585.765337938876,771.8469802349515,769.3525824884707,155.0,545.7782337624933,733.0109972141194,0.7445703213686798,1010.8929717073174,714.4156160000001,40.79258136325108,72.41821915300645,626.2756645785005,816.1542882943132,813.6601303248319,164.0,577.1082317473894,786.0759890183555,0.7341634139825043,base
1783334812035043641,1783334822035043641,1201.7782791366908,1050.6112,33.99381780270923,64.7348211996005,640.9109099601728,871.2597565368683,868.0974923977047,139.0,616.07368202216,794.8334405218384,0.7750978388851937,1168.1020863098597,1092.6356480000002,118.97836230948229,67.7689747512605,571.6389626216178,789.5435584369322,786.7469062495522,142.0,558.2916042129119,705.4767533426777,0.7913678254706825,1060.247379159236,714.4156160000001,83.98472633610515,70.35053116859864,726.6374934891978,912.792530578505,909.8622099167143,157.0,645.4417881884899,920.709803857084,0.7010263011044007,1069.3188574967742,714.4156160000001,64.89728853244489,67.73654033348676,602.995858025342,800.0808076819719,797.4800792070217,155.0,565.7425646091323,753.1106724022558,0.7512077379072841,1008.8414456242425,714.4156160000001,83.98472633610515,72.52373868530499,624.3158310952194,812.380789705954,809.9002318856142,165.0,574.4399653067627,783.9323166201351,0.732767297798638,base
1783334813035043641,1783334823035043641,1193.9175910215827,1092.6356480000002,109.82618059336829,65.39151062249493,644.6359059145707,861.2180544750604,858.0964027060703,139.0,608.9731263996007,803.5463695706343,0.7578568573771274,1171.6177665815603,1134.660096,46.056140248831866,67.85958798521048,567.5295773953679,792.4451499983803,789.6156223911586,141.0,560.3433392822456,697.9880468160906,0.8027979015375426,1036.3387459622645,714.4156160000001,35.693508692844695,70.08803189441527,623.7325565258313,802.8407471587261,800.296255912991,159.0,567.6941365288097,785.4592846328212,0.7227543777704402,1069.0140628496736,714.4156160000001,83.98472633610515,67.7785211515523,604.2003396712211,803.1890872934995,800.5426580650912,153.0,567.9404502002674,754.2134468642128,0.7530235009221711,1028.285712,714.4156160000001,62.07566729190382,71.67414900392882,646.5875847714498,850.941865539484,848.263209376636,160.0,601.7067635185005,809.398230124825,0.743400147323902,base
1783334814035043641,1783334824035043641,1176.3885971830987,1071.623424,67.98763560541846,67.29755101619695,650.5876129932147,872.5784872149801,869.4805704480361,142.0,617.0061654272116,810.0494924835285,0.7616894660788368,1220.5767452444447,1134.660096,89.23377173211173,66.76411323945426,714.357810060069,953.08338659411,949.5246406927024,135.0,673.931725696935,890.7986170494489,0.7565477907107309,996.7595121437125,714.4156160000001,27.99490877870172,71.16609288443566,535.2395389929904,680.0448026558953,678.0162562714222,167.0,480.86429146865106,676.2747184377322,0.7110487474372835,1062.4642494358977,714.4156160000001,43.264859021629924,67.808044291062,583.5938075865087,819.3745497248216,816.7278491080092,156.0,579.3853004420953,716.4633984527397,0.8086739695193423,1007.0585902545456,714.4156160000001,41.99236316805258,71.33166003690812,570.4418558701855,772.0127780588538,769.6565480539708,165.0,545.8954705280806,708.3832927770851,0.7706216056959769,base
1783334815035043641,1783334825035043641,1159.0519084755247,1050.6112,59.489181154741146,67.46148230495096,633.0720360491586,852.4348295142654,849.4381000690577,143.0,602.7624484691356,787.3367265742153,0.7655713599082546,1218.3999887058826,1092.6356480000002,109.82618059336829,67.6779098593878,728.0015365385384,980.2679421522387,976.6402954203438,136.0,693.1541092756303,905.3955847043322,0.7655814993862468,976.450409411765,714.4156160000001,83.98472633610515,71.29474287681037,481.44335304478295,650.6021176955485,648.676119316061,170.0,460.04516927685063,598.1259277898961,0.769144335502625,1078.6274986666667,714.4156160000001,64.89728853244489,66.83352996583947,584.478661432212,825.6258687589748,822.9077883282616,153.0,583.8056505225055,716.1117877455849,0.8152437377974231,1014.9929178536588,714.4156160000001,83.98472633610515,70.42501232645446,555.3480502416188,764.6286120300758,762.3113006384295,164.0,540.6740766557244,686.0456874221826,0.7881021432950156,base
1783334816035043641,1783334826035043641,1166.326405408451,1092.6356480000002,62.07566729190382,67.29994926958388,634.3417727954914,881.8977389491085,878.7656860911003,142.0,623.5958715239983,781.2445608999567,0.7982082727150708,1223.0350381176472,1050.6112,109.82618059336829,68.0643965699428,764.6324827514654,1036.5590682508812,1032.7151235911558,136.0,732.9579462606074,949.0584765250541,0.772300089394184,935.1620142022473,714.4156160000001,41.99236316805258,72.97704144530316,434.27511066890673,584.0402479774964,582.4020663475881,178.0,412.97881983076053,540.2906538878666,0.7643641748362934,1040.3677408000003,714.4156160000001,19.55808695498339,68.49352857589611,539.7159989452746,765.86986400504,763.6011292189901,160.0,541.5517743443827,660.2632481724366,0.8202058434167899,962.189818080925,714.4156160000001,64.89728853244489,72.23264656929607,465.7665496574833,648.1874846810736,646.3071223139665,173.0,458.3377658982385,573.4459030591984,0.7992694052797568,base
1783334817035043641,1783334827035043641,1150.1274275555556,1092.6356480000002,36.608726864456095,67.90733799476914,599.5239778937521,833.3480368843365,830.4295886020327,144.0,589.2660479694115,738.4041999436026,0.7980264034446419,1271.401184492308,1050.6112,89.23377173211173,65.98360540921945,799.9515837698633,1115.3162941976118,1111.0124632414322,130.0,788.6477147949818,984.3081142234639,0.8012203733758289,914.3780993406596,714.4156160000001,129.79457706488978,73.94205099402491,405.08081465165895,540.3436519675538,538.8549750148409,182.0,382.08066047736105,505.16147640362993,0.7563535192696961,1013.7116846829268,714.4156160000001,83.98472633610515,69.71671148087977,508.05596418705096,695.2406290065048,693.1396636316235,164.0,491.6093633269003,628.8098619111566,0.7818092449007406,957.8675906206897,714.4156160000001,36.608726864456095,72.18258536665007,450.04489366356756,605.3683614612556,603.6210940984251,174.0,428.0600735050429,559.8777539434232,0.7645598891723412,base
1783334818035043641,1783334828035043641,1118.4750045405406,1050.6112,71.38701738568939,69.15516474502887,576.1377140862581,792.4731683708488,789.7958991513648,148.0,560.3631512634158,711.9451527597789,0.7870875292727653,1250.6222946165417,1050.6112,59.489181154741146,68.7058238036483,813.7530858719774,1143.674257704954,1139.3375252439848,133.0,808.699823091664,998.6943814791827,0.8097570569025185,910.6070997569062,714.4156160000001,83.98472633610515,73.88528263642154,400.42375724521906,517.6491954789976,516.2245362727857,181.0,366.0332563989599,503.67469495473256,0.726725523568058,1014.9929178536585,714.4156160000001,64.89728853244489,69.75535277751919,517.4131490446284,697.6714407702706,695.534932750886,164.0,493.328206808847,643.2311977756842,0.7669531709823669,925.0047943111111,714.4156160000001,83.98472633610515,73.46635764951998,416.42351867181884,581.9413420587267,580.3135784106461,180.0,411.4946692225259,512.008947584668,0.8036864808001805,base
1783334819035043641,1783334829035043641,1072.4420820779224,1008.5867520000003,44.61688586605587,71.67981243764523,541.4092053301035,751.0439794248954,748.6018901147798,154.0,531.0682908206734,667.2563903588731,0.795898396019927,1207.1370425507248,987.5745280000001,36.608726864456095,71.36325848394934,805.1729663235681,1095.9018462734095,1091.915733311169,138.0,774.9196270147853,998.1767364701606,0.7763350904721779,909.6111394972679,714.4156160000001,64.89728853244489,73.84874203443877,398.11765461599816,525.6765731286368,524.2377401591041,183.0,371.70946957016514,497.9069882516409,0.7465439898230634,977.9336252235296,714.4156160000001,83.98472633610515,71.60283077857027,497.86536521878503,671.8593984834001,669.8686995937225,170.0,475.0763366715271,618.7819332658714,0.7677605164781072,914.5541473591162,714.4156160000001,83.98472633610515,73.42212791056335,375.26135949887396,501.68455556732835,500.28904645085487,181.0,354.7445512582172,467.67545107926003,0.7585272018010976,base
1783334820035043641,1783334830035043641,1073.2607401558441,1029.5989760000002,36.608726864456095,71.46330108524874,523.3464775775458,724.6941889747362,722.3371171093645,154.0,512.4361753105213,645.3585470900742,0.7940332976468651,1204.7008426666669,1008.5867520000003,95.18268984758585,71.81636470348386,798.7200942580741,1088.8955292282965,1084.9457919016743,138.0,769.9654127210429,989.688945856177,0.7779872817059182,904.559020065574,714.4156160000001,83.98472633610515,74.23908175407713,398.08995022762366,515.7472298652725,514.3433692125947,183.0,364.6883636159113,500.4522111710949,0.7287176587001459,995.5012951377247,714.4156160000001,83.98472633610515,71.04276077226041,517.2265079920015,694.9544375343872,692.908403917096,167.0,491.40699539624813,643.6661429475812,0.7634501220553825,915.666028088889,714.4156160000001,83.98472633610515,72.70527201632741,339.00083569672415,457.8195536049443,456.55638231098015,180.0,323.72731091385424,421.2403675936069,0.7685097056656528,base
1783334821035043641,1783334831035043641,1053.305074871795,966.562304,89.23377173211173,72.86864999097985,522.288625443858,701.9691220229689,699.8170680574308,156.0,496.36712636600834,649.908189260333,0.7637496104348658,1201.7782791366906,1008.5867520000003,178.46754346422347,71.47068929322697,792.0552948113835,1082.1349473421583,1078.2339173003415,139.0,765.1849594245875,980.7900738754912,0.7801720060247325,889.0305683850268,714.4156160000001,83.98472633610515,75.1179387395529,389.84661823827565,510.83851800427,509.46344547505146,187.0,361.21738017210555,488.5916225585944,0.7393032616493266,1019.9307747730063,714.4156160000001,83.98472633610515,69.76324318122191,527.806820719291,717.4263723826216,715.2086657709433,163.0,507.2970529138169,654.5876030357507,0.7749872600109577,904.559020065574,714.4156160000001,83.98472633610515,73.14224905840794,325.8125627083198,431.85556559930126,430.6675150248377,183.0,305.3679989284178,407.041576073443,0.750213287483242,base
1783334822035043641,1783334832035043641,1079.3504999225809,1008.5867520000003,75.14422882704146,70.30854089167103,516.7326216341376,708.4196430960906,706.1247445683792,155.0,500.9283335589994,639.1874582942625,0.7836954981810472,1205.4062890359717,1008.5867520000003,25.495363352031923,71.60427896624991,791.397686063912,1075.9504101570542,1072.0920511678598,139.0,760.8118312425003,981.4291995530524,0.7752080655323661,880.501599319149,714.4156160000001,83.98472633610515,75.06857354749023,342.6310532136372,439.76406523029885,438.5866492881717,188.0,310.96015264650754,431.79158049411166,0.7201626124591564,1011.1649389938652,714.4156160000001,83.98472633610515,69.82427820087482,499.3990536680225,667.5941013666287,665.5304361467382,163.0,472.06031615648254,622.3972674780583,0.758454994619854,906.9515380869568,714.4156160000001,95.18268984758585,73.03047049382484,329.6264738931214,439.94054957642084,438.73712000268637,184.0,311.08494592442366,410.9991518142397,0.7568992406705147,base
1783334823035043641,1783334833035043641,1051.1431550379748,966.562304,83.98472633610515,72.56339649898248,512.0626416209649,702.9043390078057,700.6634924118292,158.0,497.02842463786726,633.1648051168679,0.7849906069023009,1159.3978916312058,966.562304,79.31890820632154,73.20517345752111,703.7965203489013,975.5910980582895,972.1191379223985,141.0,689.8470811022465,867.5912554064835,0.795129131147178,871.2331614315792,714.4156160000001,83.98472633610515,75.72128852806487,343.037083785079,461.312838190546,460.0908152804745,190.0,326.19743613294764,426.7862439602387,0.7643110356746587,1003.0172468433735,714.4156160000001,62.07566729190382,69.75054743263944,473.38898318824465,625.6837730160676,623.7867519587941,166.0,442.4252387780459,591.881924757037,0.7474890181173518,888.8058387165778,714.4156160000001,89.23377173211173,74.2630259958584,325.517166804097,443.27213723532356,442.0789972830352,187.0,313.4407341501512,403.48519781528506,0.7768332911524647,base
1783334824035043641,1783334834035043641,1063.9947821656053,966.562304,95.18268984758585,71.23105494519727,509.47576351922845,696.5858683588481,694.3496841282046,157.0,492.56059119526117,630.7322246624863,0.780934558177739,1151.7596989793105,966.562304,89.23377173211173,72.96927287257567,694.5078924256167,976.8774385614992,973.4907921928788,145.0,690.756661194981,852.1209085513188,0.8106322169342478,879.6228375026457,714.4156160000001,83.98472633610515,75.18056386725695,346.6252228515035,475.7899139023855,474.52282799392253,189.0,336.4342745405404,428.6071391039807,0.7849479018101958,994.5786026666669,714.4156160000001,71.38701738568939,70.60138153162018,488.00193802662847,649.0336215003374,647.0970795912262,168.0,458.93607498095156,609.0817864425351,0.7534884233880317,889.7047573903745,714.4156160000001,71.38701738568939,74.23950977346632,331.4817261857757,460.9448787841134,459.7046094027296,187.0,325.9372495414578,408.2189660842302,0.7984373011081637,base
1783334825035043641,1783334835035043641,1051.6684188176102,924.5378560000001,83.98472633610515,71.95885056506752,512.3621884653089,694.8870127997826,692.7139256522496,159.0,491.3593189091896,635.8561426914662,0.7727523348746036,1138.4019989041099,987.5745280000001,33.99381780270923,74.27689366101846,697.0962108570678,973.7427242879309,970.3791815109508,146.0,688.5400834750586,857.2295673310871,0.8032155092582386,893.7498914224602,714.4156160000001,67.98763560541846,74.75432877029631,377.6249834421171,510.68819300006425,509.31432694544856,187.0,361.1110843422498,469.04226741510274,0.7698902837314365,1021.4776869693253,714.4156160000001,16.996908901354615,69.50988729815376,525.5355175983884,680.2193920695033,678.3393983785911,163.0,480.98774482693665,660.8332279614585,0.7278504234883738,898.5549983655917,714.4156160000001,67.98763560541846,74.03716682698985,352.38686523831313,475.57259040468205,474.28638781751044,186.0,336.2806036216031,437.9619656989808,0.767830610781245,base
1783334826035043641,1783334836035043641,1036.2550221118015,882.5134080000001,158.63781641264308,72.43268387746372,498.46171910566835,671.7127189620244,669.6770833436353,161.0,474.97261858730104,619.7811522010956,0.7663553770560457,1171.9493949295775,1008.5867520000003,40.79258136325108,72.35226001869346,728.7979216797357,1012.6382457938898,1009.0585473920371,142.0,716.0433704897093,897.7381394807023,0.7976082768455236,915.666028088889,714.4156160000001,83.98472633610515,73.59912559136153,394.37412143995783,531.6092205414201,530.122198829881,180.0,375.90448478613297,490.3160251122873,0.7666575545844072,1016.8369503803683,714.4156160000001,64.89728853244489,69.27308182462389,500.6018367849507,669.0425713388004,667.0112034174812,163.0,473.0845390961502,623.9390254015407,0.7582223900671914,921.9838840220997,714.4156160000001,95.18268984758585,72.7677303156346,370.96916656973235,505.78778815962096,504.40037134575664,181.0,357.645974849013,459.65304679511615,0.7780781120513895,base
1783334827035043641,1783334837035043641,1045.6207968000003,924.5378560000001,33.20326390032065,70.36587262498983,477.55890642040026,644.6764872167627,642.6949191361226,160.0,455.8551157824955,593.4838455344518,0.7681002932303623,1155.8172318896554,1008.5867520000003,38.58757696523751,72.21619632953737,694.5896058343053,933.7048310819521,930.4880902584038,145.0,660.2290176846882,864.2674720071715,0.7639174666048403,953.3546203428573,714.4156160000001,83.98472633610515,72.26790750605922,481.1997494861352,655.513294716954,653.6305359560962,175.0,463.517895852294,596.3907929565727,0.7772049825826971,1019.1573186748468,714.4156160000001,43.264859021629924,68.64892949464658,486.94622222653356,657.0709992261566,655.0547076173465,163.0,464.619359273836,605.225306952188,0.7676799927841422,931.1484433258429,714.4156160000001,83.98472633610515,72.55959272713783,391.88370482209115,549.7052778190217,548.1502385570025,178.0,388.7003295998653,481.2501460723454,0.8076887514158443,base
1783334828035043641,1783334838035043641,1030.7735723726707,882.5134080000001,36.608726864456095,71.91816970685845,466.19354328771163,592.2727110705165,590.4584495301765,161.0,418.80005030970295,589.0467710942808,0.7109792818857016,1200.266608345324,1008.5867520000003,29.744590577370573,69.62446013327734,739.7457722122248,1032.798412536699,1029.104781144275,139.0,730.2987611034014,909.8238701952922,0.8026814694877635,950.7130836114287,714.4156160000001,44.61688586605587,72.20199236676507,466.1510703449961,637.380175869783,635.5461680749567,175.0,450.69584455139784,577.0877477642565,0.780983214939974,1020.7042308711658,714.4156160000001,44.61688586605587,68.57379769965908,489.87868673855536,659.2273515503377,657.1897543987374,163.0,466.14413062489194,609.3579245265997,0.7649759063805263,960.2827887816094,714.4156160000001,29.13755811660791,70.9017420501204,406.7163427095324,571.7352799569893,570.092115622928,174.0,404.2778935011763,499.1152765315457,0.8099890195919993,base
1783334829035043641,1783334839035043641,1060.1863906835445,924.5378560000001,142.77403477137878,70.17568962143356,485.93368468486835,607.7983686602063,605.8995830312723,158.0,429.778348073753,616.3670802259999,0.6972766097698933,1235.8300634074076,1050.6112,101.98145340812769,66.75085301578835,741.4167376244551,1058.9609331950548,1055.0051701331254,135.0,748.7984568738577,905.0127033092103,0.8273899958927098,949.609259636364,714.4156160000001,43.264859021629924,72.45743176247184,470.5060968175891,647.4754845435316,645.6230828928998,176.0,457.8343057727769,581.331100590554,0.7875620370347964,1020.9620495705523,714.4156160000001,89.23377173211173,68.44805036978435,486.28733305924146,654.7362054585495,652.7289882727749,163.0,462.96841076808903,604.7982026289218,0.7654923720931535,960.5243085977014,714.4156160000001,43.264859021629924,71.24183905942687,416.01354738047826,580.210330405708,578.5440470317068,174.0,410.2706591443633,511.8335045020047,0.8015705410757384,base
1783334830035043641,1783334840035043641,1049.813267443038,882.5134080000001,109.82618059336829,71.49256836332056,501.8891176532927,637.9798168266594,635.9452952907013,158.0,451.1198547382823,634.0589965989418,0.7114793058028746,1273.9873043692307,1071.623424,40.79258136325108,65.6705872152772,786.9544444731753,1108.0919697895247,1103.823729009628,130.0,783.5393460165319,965.2086002383943,0.8117823917265218,945.3113047272728,714.4156160000001,95.18268984758585,72.78140162919402,468.30930246423134,655.8623055131756,654.0016444609055,176.0,463.7646837530096,575.4027846654944,0.8059826891915639,1028.9464224596277,714.4156160000001,44.61688586605587,67.8716324368985,484.62920655388893,663.7255504221055,661.6598867279628,161.0,469.3248375502445,599.6649348755705,0.7826451243937228,960.2827887816094,714.4156160000001,44.61688586605587,71.30832113163089,421.0224867289112,582.8622397580388,581.1935517083726,174.0,412.1458422304885,519.2184232371316,0.7937812369232089,base
1783334831035043641,1783334841035043641,1091.2532648421054,945.5500800000001,47.591344923792924,68.58284618605653,503.44423487845285,643.0863074609604,640.9555205229074,152.0,454.7306888938622,635.2339691434632,0.7158475632325078,1265.8273124848488,1071.623424,109.82618059336829,66.14784920011638,790.0888059363492,1127.5130533594938,1123.2020571513638,132.0,797.2721259068476,964.706805800519,0.8264398272232223,1329.0658757723577,714.4156160000001,95.18268984758585,64.3471183095242,1167.2031260354574,1690.74353859558,1683.8001449031221,123.0,1195.536221388274,1417.7703786326656,0.8432509519216222,1429.199867508772,1344.7823360000002,83.98472633610515,56.9860345752275,953.4077889625396,1253.6658348980698,1248.1187803193995,114.0,886.4756131983198,1193.7559707541607,0.7425936580977139,1474.2630676756767,1344.7823360000002,83.98472633610515,57.136246470816545,1109.1463409014048,1394.0661482969538,1387.726848937596,111.0,985.7536268833873,1405.188992489293,0.7015096418718199,base
1783334832035043641,1783334842035043641,1102.3764140927155,1008.5867520000003,83.98472633610515,66.70814419189198,484.8060901728142,617.4654086514588,615.4537441490343,151.0,436.6139776055692,612.1748176926453,0.7132178014953565,1304.7432949921263,1092.6356480000002,109.82618059336829,64.71707559514168,803.3970369135441,1138.8343567735444,1134.5674457270375,127.0,805.2774963227932,983.1875074475732,0.8190477301866381,1290.3186513920004,714.4156160000001,83.98472633610515,64.4819633938287,1064.4962893099187,1497.3209239167636,1491.2711176653393,125.0,1058.76577891405,1306.0674609718421,0.8106516780735236,1385.026087050848,1344.7823360000002,83.98472633610515,58.854009302834676,949.6243237458237,1220.5447402390828,1215.378900220721,118.0,863.0554625646287,1196.3027822286897,0.7214356393594374,1361.9423189333334,756.4400640000001,83.98472633610515,60.8011350245036,1007.2688870883305,1299.826697933057,1294.4094089038592,120.0,919.1162724757827,1267.5937285374362,0.7250874249246005,base
1783334833035043641,1783334843035043641,1109.725590186667,966.562304,57.109613908551516,67.1600749198969,511.3676218243686,660.4193581319049,658.2009655670527,150.0,466.98700656193705,643.3935476454373,0.7258186039802893,1316.4325099682546,1155.6723200000001,52.8792721375477,63.04042470755634,783.0331730376594,1118.195591708221,1113.7224034326152,126.0,790.6836855897869,955.872143555782,0.8271856135994247,1231.5408845190843,714.4156160000001,83.98472633610515,66.22586271040126,976.3219188685839,1351.9912127408795,1346.7911397715018,131.0,956.0021546337,1203.926459005835,0.7940702253716865,1334.9540376774196,714.4156160000001,83.98472633610515,62.236750869529004,987.3816353514961,1226.3026241995617,1221.515637081015,124.0,867.1269013583685,1254.5479090609122,0.6911867574730196,1350.9826643934427,714.4156160000001,83.98472633610515,61.90824326548186,1006.6989809405201,1266.8539021194338,1261.7228837740179,122.0,895.8009849612903,1275.0121466576522,0.7025823144583875,base
1783334834035043641,1783334844035043641,1133.7965799452058,1008.5867520000003,41.99236316805258,66.24076903076683,525.0120813459869,670.4426005394457,668.1390502971504,146.0,474.0745092377857,662.4968309086214,0.7155875879248924,1305.7359984881891,1092.6356480000002,83.98472633610515,65.31361204841501,807.1622463243841,1142.8609761723687,1138.3168282060446,127.0,808.1247462049593,988.1745701385138,0.8177955298846471,1206.9668668235297,714.4156160000001,83.98472633610515,67.17270647133687,952.6323111170713,1279.663620185735,1274.926298799527,136.0,904.8588234710597,1185.5934780361224,0.763211708088943,1253.0343044885499,714.4156160000001,83.98472633610515,64.18173225527941,914.904351403952,1113.713898937069,1109.5446063417537,131.0,787.5146502401108,1167.908507659898,0.6742948142556383,1282.4022960000002,714.4156160000001,83.98472633610515,63.472532390251885,938.7326074264225,1186.3528525052598,1181.672941353617,128.0,838.8781468864732,1187.6782156078211,0.7063177010931015,base
1783334835035043641,1783334845035043641,1152.7539555555559,1008.5867520000003,79.31890820632154,66.67259401084246,566.7153543051924,760.5001041513372,757.8591396631421,144.0,537.7547807384861,705.5086700437995,0.7622227813374727,1276.8966892307697,1113.647872,79.31890820632154,63.81500520581632,723.9504379627291,1042.1262356572342,1038.1251323447707,130.0,736.8945280856403,881.3068140503484,0.8361384665789525,1209.8133059270076,714.4156160000001,36.608726864456095,67.70628901197024,978.7970482182192,1327.4486979608866,1322.5629773207725,137.0,938.6479760053961,1214.7252001057211,0.7727245437270115,1255.6395675151518,714.4156160000001,25.495363352031923,64.44800888712227,925.0630897334611,1135.4757795660764,1131.1556170952151,132.0,802.902623604254,1178.6251009032253,0.6812196880831396,1274.4158184186049,714.4156160000001,19.55808695498339,63.81411349738203,914.4718500349093,1224.6286837866803,1219.9027982593266,129.0,865.9432467411178,1139.117498647205,0.7601878188768904,base
1783334836035043641,1783334846035043641,1209.1998103357666,1050.6112,31.727563282528614,63.86502418296137,598.4523537071794,780.3804183563075,777.5357979187131,137.0,551.8122857249399,751.0273230561154,0.7347432893379693,1259.1416048484853,1029.5989760000002,59.489181154741146,66.42175421536635,753.3935781601118,1066.9275834370833,1062.8584323234738,132.0,754.4317292833375,922.2907080476684,0.8179977556971602,1192.7082543884894,714.4156160000001,40.79258136325108,68.04415731883155,940.3132546463196,1236.565084219967,1232.0767804370475,139.0,874.3835564304529,1177.3294916246364,0.7426838133680502,1259.771048061069,714.4156160000001,41.99236316805258,65.17808735407205,985.4016629103124,1251.6824844678454,1246.859069185067,131.0,885.0731726596388,1245.1327696482488,0.710826342567205,1250.2273280000002,714.4156160000001,41.99236316805258,65.03477991140858,948.8378830163587,1296.6379363352762,1291.6794955371192,132.0,916.8614775264047,1174.8485740758165,0.7804082140948633,base
1783334837035043641,1783334847035043641,1207.1370425507248,1071.623424,109.82618059336829,64.34913910154873,602.3894484791481,813.287408124271,810.3393738308018,138.0,575.0810413383032,748.5900034228689,0.7682189699418779,1269.5292546976746,1134.660096,109.82618059336829,64.43890123504264,701.5273759847045,967.964020810185,964.2327354676927,129.0,684.4539230594783,866.0500748318279,0.7903167991670544,1188.991703771429,714.4156160000001,41.99236316805258,68.3224949865246,908.7153947238331,1155.840742508491,1151.687005685534,140.0,817.3028269994481,1147.8394407344342,0.7120358457769186,1242.230138268657,714.4156160000001,83.98472633610515,66.88333155085014,1048.8657189344517,1348.866656262324,1343.8242006270127,134.0,953.7927595595132,1321.1276541718794,0.7219535194404645,1246.1986685112786,714.4156160000001,41.99236316805258,66.7866504143907,1049.7964389710623,1449.9978939996079,1444.4951761770228,133.0,1025.3033435533355,1295.5777295870064,0.7913869775147905,base
1783334838035043641,1783334848035043641,1255.957934545455,1176.6845440000002,52.8792721375477,61.82147370386868,616.814880646221,882.5740401345652,879.1999200470565,132.0,624.0740886783592,752.4539586535255,0.8293850826369563,1316.6557369448826,1260.7334400000002,37.57211441352073,62.880819367588394,715.4753512576733,997.1617106956113,993.2036134234311,127.0,705.099807572445,880.4698104962104,0.8008222419063621,1143.3548093793106,714.4156160000001,79.31890820632154,70.42300876573728,904.921250129799,1162.4450096893065,1158.412334391102,145.0,821.9727491077705,1140.1514538582423,0.7209329482730005,1151.2947733333338,714.4156160000001,79.31890820632154,70.02125339020671,976.0567016378774,1269.7521190320901,1265.314500212952,144.0,897.8503337935791,1225.6858319642126,0.7325289322751953,1210.1200537226282,714.4156160000001,79.31890820632154,70.09096320302513,1110.3095822166401,1490.9172507604576,1485.425856319677,137.0,1054.2376982007238,1381.979078919214,0.7628463514984593,base
1783334839035043641,1783334849035043641,1223.6896673185186,1134.660096,31.727563282528614,63.73018393228649,611.6277914230732,871.8250070621281,868.6274925814822,135.0,616.4733745016405,747.0993238836538,0.8251558458077848,1293.5650400000004,1176.6845440000002,29.744590577370573,64.3570976971556,723.0724371618239,989.2784953204786,985.4195591529814,128.0,699.5255325231346,894.9857615852848,0.7816052082036119,1179.0689098439718,714.4156160000001,83.98472633610515,69.9454728302648,1043.6090827746941,1418.066712730442,1412.993112519416,141.0,1002.7245887466115,1294.4155186265136,0.7746543318721864,1154.5049742222225,714.4156160000001,83.98472633610515,71.6811514619435,1091.1420069111932,1471.798091394631,1466.6514247802402,144.0,1040.7184109625616,1356.3312106687486,0.7673040351621991,1146.5428709517246,714.4156160000001,83.98472633610515,72.74557917898319,1082.5737553066153,1472.756257765438,1467.6336117827802,145.0,1041.3959369008642,1342.2664126992527,0.775848912740543,base
1783334840035043641,1783334850035043641,1231.1606802962965,1176.6845440000002,49.232425783234056,62.894457227949815,599.0439285966702,859.1088246426419,855.9029373058916,135.0,607.4816756820167,730.1987836420639,0.8319401364270118,1253.4660542556396,1176.6845440000002,44.61688586605587,65.84415402717157,679.8023274633183,922.242366019103,918.760254366725,133.0,652.1238309096337,843.5814503822147,0.7730419280961734,1191.1965835971228,714.4156160000001,83.98472633610515,70.51790723913673,1125.99556017355,1545.1992656659081,1539.5905685068776,139.0,1092.6208790368373,1392.4158180685388,0.784694388600414,1191.1965835971225,714.4156160000001,83.98472633610515,71.93470544353819,1219.912974532781,1664.2342635967057,1658.1934938997997,139.0,1176.7913332722308,1511.276417414934,0.7786737884027555,1131.2295288163268,714.4156160000001,83.98472633610515,73.07635269925619,1075.5135882607558,1464.9479436012848,1459.9224067582445,147.0,1035.8746250057566,1333.0194438573074,0.7770889087771187,base
1783334841035043641,1783334851035043641,1197.5456009208638,1092.6356480000002,62.07566729190382,66.54279942823197,618.4460310201442,900.8373828573239,897.5677515437934,139.0,636.9882221647558,749.715938860066,0.8496394289459668,1291.3559059844963,1302.757888,46.056140248831866,64.82770979291615,692.4426894649075,978.0752222443442,974.2471798140305,129.0,691.6036221595153,848.4079038379522,0.8151781932144908,1008.0804333493979,714.4156160000001,43.264859021629924,71.82217071869997,587.2859452341598,682.1572999278819,680.0992239659931,166.0,482.3580526149109,757.2812670850485,0.6369602333775125,1011.9179582439026,714.4156160000001,83.98472633610515,73.81087136765896,743.1893576620599,937.4884098009263,934.6082542700187,164.0,662.904411854028,940.7123434166913,0.7046834417483481,1003.2055726829269,714.4156160000001,36.608726864456095,74.70704934647132,786.5382474932517,1060.6889655524446,1057.4469392384417,164.0,750.020360271878,977.7625269605767,0.7670782419974239,base
1783334842035043641,1783334852035043641,1233.028433540741,1134.660096,15.028845765408292,65.81035724625984,671.3939740659669,948.8029658398974,945.4559907336345,135.0,670.9050111552997,822.4858477977223,0.8157040184359482,1279.4828091076924,1260.7334400000002,24.198988944301487,66.24084645230147,702.9905274891993,973.4372482228654,969.7580742067519,130.0,688.3240792779607,866.8888881639672,0.7940164981648352,991.9782875209581,714.4156160000001,95.18268984758585,72.84685592050315,584.7683456417316,661.8016689059999,659.8052792325259,167.0,467.96444788400686,757.9001740911817,0.6174486612899324,1050.0792449620255,714.4156160000001,67.98763560541846,71.97758209475563,764.4425658293474,975.4102510256796,972.3002130441106,158.0,689.7192029391306,964.8256751621078,0.7148640637317675,1079.3504999225809,714.4156160000001,21.632429510814962,72.51681810312292,880.7281600779423,1182.6891501696966,1178.8753386861142,155.0,836.2875181207474,1096.209732408117,0.7628900687495439,base
1783334843035043641,1783334853035043641,1176.388597183099,1113.647872,36.608726864456095,68.11791386599798,612.1000227455252,892.225827163982,889.0603226228424,142.0,630.8989327374283,741.8329623476783,0.8504595572847327,1285.3015788307696,1281.745664,39.65945410316077,64.72271224440865,680.3415281449153,989.1258116361053,985.3105977276475,130.0,699.4175688545376,825.31007629007,0.8474603533238758,970.4715549767443,714.4156160000001,95.18268984758585,73.59327219227757,564.2795720779504,725.4740465962942,723.3872391211106,172.0,512.987617923085,710.8056857241289,0.7216988105553518,1083.9032951688312,714.4156160000001,95.18268984758585,70.06642311567138,777.8908980979601,1033.7769976010247,1030.3932495320896,154.0,730.9907252383538,971.1100753751114,0.7527372475833839,1070.0070990769232,714.4156160000001,95.18268984758585,71.66730514472464,800.9561860376122,1106.9625604504663,1103.3860686392331,156.0,782.7407330141483,988.2915037295792,0.7920140262870512,base
1783334844035043641,1783334854035043641,1263.941413129771,1218.7089920000003,33.99381780270923,63.93041750482426,634.9537190655736,892.3858476381531,888.9704790909801,131.0,631.0120842998432,779.2588308413262,0.8097592986127233,1312.68492296063,1344.7823360000002,20.69188909730127,64.22264687277311,698.1918091027694,1011.4663189427686,1007.5717622144826,127.0,715.2146930662269,848.0433809702705,0.8433704090089466,1018.836617365854,714.4156160000001,52.8792721375477,72.15699824930978,668.4822631640101,813.1123464745647,810.6183995644681,164.0,574.9572540586702,853.4923258778667,0.6736525175751206,1139.5533536438359,714.4156160000001,31.727563282528614,69.07014150347815,866.9044429870709,1181.3581592689509,1177.3054311475944,146.0,835.3463654291326,1074.3113382179376,0.7775645064072404,1133.2109771034486,714.4156160000001,6.154053222904257,71.08054107270856,1085.6023568334112,1342.502823379772,1339.3038030642,145.0,949.2928501739227,1380.7557700871105,0.6875168445713125,base
1783334845035043641,1783334855035043641,1265.545399694657,1260.7334400000002,43.264859021629924,64.05313511810061,648.7539826449051,913.3066304955462,909.8149276062309,131.0,645.8053117260372,795.7582608232665,0.811559670216816,1305.0561000000002,1302.757888,52.8792721375477,64.88273208273003,714.8983465908178,1029.0418297325753,1024.991504126189,128.0,727.6424559285166,870.3031196552892,0.8360793377561627,1013.4554380487807,714.4156160000001,95.18268984758585,73.08240695567514,705.394138334328,866.8217218757871,864.1711296548831,164.0,612.9355176181685,898.5081003607769,0.682170274672045,1066.7744492307695,714.4156160000001,95.18268984758585,71.94635969000039,823.8874996970055,1125.616732265421,1121.9971642692694,156.0,795.9312244019218,1020.2097663348432,0.7801642864695819,1060.5785370256413,714.4156160000001,95.18268984758585,73.30624131298909,1017.8428902158107,1432.891206742654,1428.2689347194107,156.0,1013.2070889903059,1248.484679816154,0.8115494770344366,base
1783334846035043641,1783334856035043641,1229.5241072941178,1197.6967680000002,109.82618059336829,65.41481945095674,627.6525583334131,868.7943211395265,865.5706393896847,136.0,614.3303559341223,774.0765949529055,0.7936299326702908,1323.1030572698412,1386.8067840000003,67.98763560541846,64.79485293409269,715.3096162678486,1020.3524137778671,1016.2828832725779,126.0,721.4981109823918,873.5307276649938,0.8259561892127191,1046.38232472956,714.4156160000001,21.632429510814962,72.57137665948265,763.0340892186398,894.8044046264007,891.9682900652745,159.0,632.7222623469193,981.9741910991024,0.6443369572052876,1066.50506174359,714.4156160000001,21.632429510814962,72.75554557093349,879.0055992951803,1231.1285305610181,1227.1593778390522,156.0,870.5393324719256,1079.99181593854,0.8060610456713555,1054.6520123076925,714.4156160000001,21.632429510814962,73.62951383023145,984.4939357099211,1354.429792836459,1350.0589306549934,156.0,957.7264911557509,1216.4853484397036,0.7872897872417093,base
1783334847035043641,1783334857035043641,1265.5453996946565,1260.7334400000002,37.57211441352073,63.28036010086503,625.0348931356866,847.9168554404608,844.6568259968612,131.0,599.5677583643234,775.6265124654188,0.7730109127633191,1337.722228736,1428.8312320000002,75.14422882704146,63.96964048716779,723.8179374614862,1045.4172194543473,1041.215356721925,125.0,739.2216050453541,880.1139258636266,0.8399158146713568,1025.344967460123,714.4156160000001,44.61688586605587,72.15565343956973,683.6866659136659,818.7706039133213,816.2477016874709,163.0,578.9582462633143,875.9329819330603,0.660961806673423,1071.3540365128206,714.4156160000001,44.61688586605587,72.80039385596643,901.7978792365653,1288.4662517524546,1284.3087926784467,156.0,911.083223944174,1100.655490839381,0.8277642109879128,1044.5701856000003,714.4156160000001,44.61688586605587,73.78427573017765,970.5685242015337,1329.7317557669592,1325.548778500889,160.0,940.2623416619108,1200.8163409812994,0.7830192757816191,base
1783334848035043641,1783334858035043641,1257.54976969697,1218.7089920000003,52.8792721375477,63.56323927212619,659.937598397296,889.6887815235613,886.3013800669919,132.0,629.104970560907,820.4564190525672,0.7667743903903808,1295.1471611968504,1344.7823360000002,49.232425783234056,66.03855093905283,706.2746664114801,1031.0659142383445,1026.9716483017228,127.0,729.0736998082407,855.4961010742577,0.8522232876254295,1036.9532544,714.4156160000001,89.23377173211173,72.11158493867849,734.6976189121006,993.164044841196,990.0359613394947,160.0,702.2730309378701,912.6705196722907,0.7694704888572853,1089.064943267974,714.4156160000001,89.23377173211173,70.86069429617027,806.6289997741649,1109.4877703721577,1105.832151600961,153.0,784.5263260736957,996.7747530921887,0.787064804400335,985.9582030769233,714.4156160000001,89.23377173211173,75.31270324778392,899.3390841582075,1263.7118711287767,1259.945235208982,169.0,893.5792335410985,1103.8023615127386,0.8095464049528454,base
1783334849035043641,1783334859035043641,1294.5499880000002,1218.7089920000003,35.693508692844695,61.42948123868425,670.5492191459621,880.6155011219679,877.187159355063,128.0,622.6891924613333,839.8818937150897,0.7414009006754062,1380.5031168000003,1428.8312320000002,31.03783364595191,61.91902069318826,758.803435348593,1106.045448180518,1101.3952445517843,120.0,782.0922367089585,919.6364355730159,0.8504363316375617,1065.523100903226,714.4156160000001,16.996908901354615,71.06144801566454,771.0461432133786,1027.1610633215266,1023.983932201297,155.0,726.3125532454363,961.9040219416381,0.755077987697097,1096.277766826667,714.4156160000001,41.99236316805258,70.18200235008139,785.8878196721607,1076.877853495957,1073.2687958506274,150.0,761.4676327166046,972.277147926768,0.7831796050542972,987.3243824761905,714.4156160000001,83.98472633610515,74.18324457195334,861.3799204643241,1230.21475071138,1226.5325510591308,168.0,869.8931925437349,1051.4721354088679,0.8273097909584399,base
1783334850035043641,1783334860035043641,1321.768947809524,1281.745664,33.99381780270923,59.32166038324888,663.1794964060323,904.0898381875047,900.4692923003324,126.0,639.2880553842331,821.7478202150828,0.7779613643719882,1362.1478103801655,1386.8067840000003,41.99236316805258,62.42741157458432,767.2515968758664,1110.8285698173372,1106.195977901397,121.0,785.4744144535935,932.1292817718615,0.8426668165176664,1101.8197988874174,714.4156160000001,28.554806954275758,70.47921257983822,836.1336651386044,1058.5309834432114,1055.0396484958662,151.0,748.4944364887599,1057.410540532351,0.7078560386885608,1085.0712473600001,714.4156160000001,19.829727051580385,70.73836688056204,773.5004225741079,1048.6537493962212,1045.2613200122532,150.0,741.5101773147663,960.0453822158403,0.7723699223502518,1031.1748928000002,714.4156160000001,36.608726864456095,72.30858124077203,894.3949441425434,1271.2210783245391,1267.231803281578,160.0,898.889044870557,1093.5647556141041,0.8219806282672079,base
1783334851035043641,1783334861035043641,1343.4267086451614,1302.757888,49.232425783234056,57.5799850558301,656.463323964487,874.8525018552391,871.289201019144,124.0,618.6141365998562,818.8690166445506,0.7554494357775663,1356.5908585785126,1386.8067840000003,95.18268984758585,61.31900968323449,745.3906550496698,1053.5757444997578,1049.2024364872038,121.0,744.9905534294442,913.0766643175133,0.8159123790402567,1055.161617936306,714.4156160000001,44.61688586605587,69.79250402365209,636.1869886434539,772.3677950739217,769.9018977345826,157.0,546.1465054668716,812.606772259261,0.6720919934600599,1080.3557768311691,714.4156160000001,44.61688586605587,69.77728354048836,705.3002388637257,938.7796503839749,935.7068749142747,154.0,663.8174568264449,880.0966116789068,0.7542552124591421,967.2952885581398,714.4156160000001,44.61688586605587,72.4380687018649,581.4998208652854,792.4549364969064,790.1430185143038,172.0,560.3502593817174,720.6163172855157,0.7775986276476455,base
1783334852035043641,1783334862035043641,1308.0523066456694,1218.7089920000003,118.97836230948229,60.428430507560805,687.0318863909597,912.9608004537288,909.3821625226348,127.0,645.5607729583301,857.701154274939,0.7526639899465419,1382.6043392000001,1407.8190080000004,40.79258136325108,57.74898342694796,676.4928159298437,961.1116784356972,957.0651350618958,120.0,679.608585299466,827.2551875951024,0.8215223010872171,1084.1208905620915,714.4156160000001,95.18268984758585,69.08581218021827,672.2764113699853,794.3449932664856,791.7278975550249,153.0,561.6867313403144,863.8085172578054,0.6502444929848704,1084.1208905620917,714.4156160000001,95.18268984758585,70.5277288005815,742.1018695664668,977.9002087608247,974.6782803813816,153.0,691.4798689385196,928.6324165429907,0.7446217218139809,1002.5109281927713,714.4156160000001,95.18268984758585,72.40820218024064,709.722302805493,965.0435500303635,962.1282158311495,166.0,682.3888383668093,880.104670386007,0.7753496388872916,base
1783334853035043641,1783334863035043641,1324.946796544,1218.7089920000003,50.990726704063846,59.894464610158586,718.4427591795389,1013.1989210372641,1009.1302686061226,125.0,716.4398277563428,880.7252596793445,0.8134657430140985,1397.7543292773114,1386.8067840000003,57.109613908551516,58.73417282117892,825.5308809758247,1118.6565315383723,1113.9132650167344,119.0,791.0096192694061,1024.7703947719592,0.7718896089356957,1072.0301122064518,714.4156160000001,52.8792721375477,69.56330664382742,666.0226806197104,794.9012043601936,792.329733836607,155.0,562.0800319764464,853.9352674684469,0.6582232323566791,1070.662080418301,714.4156160000001,44.61688586605587,70.26728954274685,709.8977700354695,924.1541046923359,921.1132569012274,153.0,653.4756342893332,891.2881046540123,0.7331811463398863,1027.004874271605,714.4156160000001,95.18268984758585,71.43231427180649,730.246079484703,981.3452099616844,978.3330602685216,162.0,693.9158526488434,908.7128632999935,0.7636249916490517,base
1783334854035043641,1783334864035043641,1299.146412,1218.7089920000003,49.232425783234056,61.41385252596599,707.9145312484184,1006.9063350957317,1002.9387240987209,128.0,711.9902975658861,865.3443679780647,0.8227826099215266,1426.657553655173,1386.8067840000003,22.308442933027933,56.835073247587324,832.5369479603305,1140.069881483713,1135.1742883564905,116.0,806.1511442236771,1030.192072271784,0.7825250901474607,1061.9254744615387,714.4156160000001,95.18268984758585,68.98453201966488,609.5782952281668,683.9238126172761,681.714252507771,156.0,483.6071657166336,791.3491332277545,0.6111173253505654,1085.7237322105266,714.4156160000001,41.99236316805258,69.7992594484948,735.1346692536615,956.5776522681393,953.4166541808464,152.0,676.4025446503085,923.0849162848856,0.7327630781495241,997.5681467317077,714.4156160000001,50.990726704063846,71.19739772104955,590.9673231301985,749.7250983456942,747.4271704176626,164.0,530.1357010659916,746.9690912233114,0.7097157128654257,base
1783334855035043641,1783334865035043641,1274.8485217709924,1218.7089920000003,27.456545148342073,63.065195547991024,693.9979581231922,980.1639071916032,976.4903653980302,131.0,693.0805454494845,850.3446421998805,0.8150584022690535,1437.6015515826089,1386.8067840000003,31.03783364595191,56.85381065018107,838.8191454593559,1153.5274095104062,1148.5423628960311,115.0,815.6670535493597,1036.6189012628417,0.7868533484732803,1075.9896004155846,714.4156160000001,89.23377173211173,68.31728019199039,615.9542773278617,690.439540817622,688.1795583373768,154.0,488.2144813114666,799.7641237489117,0.6104480893978472,1139.8411923287674,714.4156160000001,89.23377173211173,68.04835126013904,801.8496535735889,1062.2262490721569,1058.5571024848498,146.0,751.1073838732727,1001.9204473498347,0.7496676865513784,1064.7097244903227,714.4156160000001,83.98472633610515,68.83487017716374,665.4182050105084,854.3147272699046,851.5364606367078,155.0,604.0917369200854,838.5102037609626,0.7204345686081791,base
1783334856035043641,1783334866035043641,1269.4615945846153,1218.7089920000003,41.99236316805258,64.22986230429566,719.3273798796785,998.8554382883776,995.0992410270285,130.0,706.2974538387729,886.2481098651549,0.7969522822973782,1397.4011826554622,1344.7823360000002,29.13755811660791,58.597659003264596,839.5307280110896,1181.770228002214,1176.818088693036,119.0,835.6377420247378,1029.7953527772202,0.8114600049137285,1065.1581243076926,714.4156160000001,44.61688586605587,69.51751440761475,644.3314182736456,739.5566979426302,737.1783890806362,156.0,522.945556187165,832.8204643145506,0.6279211169691575,1072.0301122064518,714.4156160000001,95.18268984758585,69.84052333280344,674.88290803238,827.7436102337684,825.0519344803013,155.0,585.3031198801322,860.0255856878769,0.6805647757699992,1047.1534922531646,714.4156160000001,95.18268984758585,70.04985859609761,668.3466171760315,851.5462195789345,848.8787432441345,158.0,602.1341063580334,843.8552366143708,0.7135514247370839,base
1783334857035043641,1783334867035043641,1244.4254452537314,1155.6723200000001,59.489181154741146,64.72433472702365,688.52764235792,925.5966959402704,922.431361365405,134.0,654.4957003432281,856.7136731125663,0.7639608434931934,1424.880215521368,1344.7823360000002,79.31890820632154,57.495060768046734,867.0585306422213,1178.6510809443685,1173.5946401117803,117.0,833.4321719886173,1075.3029333476513,0.7750673286028915,1087.6915952941179,714.4156160000001,43.264859021629924,68.82555296643925,666.9247977533546,787.1741343704035,784.5929433982691,153.0,556.616168387963,857.1269405760487,0.6493975886627462,1116.8913696644297,714.4156160000001,43.264859021629924,68.0587522896693,698.2682046486149,891.0031830372947,887.9995571863482,149.0,630.0343927844697,881.2975111735833,0.7148941019310061,1080.6286628571431,714.4156160000001,43.264859021629924,68.04069863982139,656.6839693546165,840.7538298607542,838.0132875825595,154.0,594.5027344031001,828.1007913341758,0.7179110811442174,base
1783334858035043641,1783334868035043641,1251.5007961212123,1218.7089920000003,37.57211441352073,64.03598952345769,654.9278373265058,937.51246399893,933.9317799090884,132.0,662.9214207405524,798.8294806603045,0.8298659936693725,1439.6996237241378,1344.7823360000002,44.61688586605587,58.11969098629515,902.9092165211005,1251.062351348287,1245.6175593892142,116.0,884.6346723255608,1113.1939879541296,0.7946815037614209,1085.5406113246756,714.4156160000001,59.489181154741146,68.91051042901603,663.5575371087655,803.5173576359922,800.8894870866311,154.0,568.1725723855063,848.0608316047379,0.6699667656038132,1105.9944129271526,714.4156160000001,71.38701738568939,68.52616952236042,693.2611031810169,891.7187014880468,888.7417326692815,151.0,630.5403407330606,873.1731521992868,0.7221252040845508,1091.5369696209152,714.4156160000001,44.61688586605587,66.96472940586226,635.7981622508479,811.6738758383451,809.0101196975214,153.0,573.9401017172617,802.3558973818916,0.7153186056088617,base
1783334859035043641,1783334869035043641,1231.1606802962965,1218.7089920000003,41.99236316805258,63.6796001946359,611.2618405274577,848.6801496726789,845.5075024938881,135.0,600.1074888919653,753.138484116912,0.7968089555211321,1359.1321475121956,1344.7823360000002,27.99490877870172,59.912583257614635,802.4761138354978,1101.3546034020583,1096.8471992470663,123.0,778.775308556616,992.3156433032383,0.7848060380910802,1050.075856713376,714.4156160000001,79.31890820632154,70.06936774149936,621.158013165028,800.4692294283742,797.9326490311612,157.0,566.0172202599737,781.9762194739918,0.7238291985921436,1110.2859161600002,714.4156160000001,35.693508692844695,68.50787972044847,706.9903150753044,917.6511754761466,914.5677122235513,150.0,648.8773689429897,888.3409769099745,0.7304372823147927,1071.8963100259743,714.4156160000001,62.07566729190382,68.02120860730048,631.0758248285377,795.3359181770332,792.7555508078242,154.0,562.3874210642093,798.9828456734302,0.7038792185709516,base
1783334860035043641,1783334870035043641,1208.586314744526,1134.660096,118.97836230948229,65.00930002592543,606.3320989499399,819.8964386960399,816.8976500541143,137.0,579.7543316726702,753.1398846744655,0.7697830688163078,1310.4903864320006,1218.7089920000003,31.03783364595191,63.9725460514291,812.9486587387983,1100.0294377155449,1095.6230685800895,125.0,777.8382749134867,1009.5815234691192,0.7704561314084696,1046.6466294339623,714.4156160000001,89.23377173211173,70.30049568220905,659.802171441862,915.1397939857167,912.2392238983363,159.0,647.1015540609603,813.2082145703753,0.7957390769875947,1090.1473583157897,714.4156160000001,43.264859021629924,69.20762671895547,718.9968263714909,980.9017159532807,977.6611361518046,152.0,693.6022550280854,890.7136625058183,0.7787039586625345,1044.4937170632913,714.4156160000001,83.98472633610515,69.11239445455283,588.4536501319453,773.9391597140556,771.480896015317,158.0,547.2576280596271,736.7563647315817,0.7427932139534437,base
1783334861035043641,1783334871035043641,1192.593799314286,1092.6356480000002,40.79258136325108,65.29241569735416,601.7400784529176,819.992064380854,817.06420168834,140.0,579.821949242858,745.7114037086689,0.7775420174067502,1319.903862784,1218.7089920000003,79.31890820632154,64.5401979217816,836.4138254857866,1113.2226366298248,1108.7260439279921,125.0,787.1672753313171,1043.724108781277,0.7541909482674181,1061.4562188387097,714.4156160000001,41.99236316805258,69.3191191258707,671.3813916865652,947.5663949871846,944.4852248919619,155.0,670.0306235199288,822.8216258574672,0.8143084752077171,1084.6702297516342,714.4156160000001,41.99236316805258,70.44152333859574,782.2608383228888,1072.1327078554593,1068.6104721419758,153.0,758.112308056491,967.7277006130846,0.7833942415580375,1025.0871487607365,714.4156160000001,95.18268984758585,70.02265557808188,572.898021462315,793.7175010772371,791.2641336104368,163.0,561.2430273581551,706.3479440840731,0.7945702002232389,base
1783334862035043641,1783334872035043641,1179.7078855827342,1092.6356480000002,83.98472633610515,65.6105725585967,559.2508889121859,780.7914376665905,777.958293241451,139.0,552.1029202664396,687.8330438520492,0.8026699577771307,1301.4237785396826,1218.7089920000003,41.99236316805258,64.28092523149832,737.6397832738309,976.6824232594339,972.7693010901692,126.0,690.6187645524556,921.817639644929,0.749192394298803,1027.523694617284,714.4156160000001,83.98472633610515,70.16184983250068,622.9897663341529,893.2419746646001,890.4636103146623,162.0,631.617457525801,759.4486102354039,0.831678995804628,1071.623424,714.4156160000001,41.99236316805258,70.01499417384935,734.8253073061987,1007.410014795046,1004.1656246714728,156.0,712.3464528968171,908.965197374443,0.7836894690296597,1038.082172024845,714.4156160000001,89.23377173211173,69.76930543984858,594.6838921629511,815.9126896328138,813.3590084387376,161.0,576.9373956955176,735.4382937542686,0.7844810374917589,base
1783334863035043641,1783334873035043641,1206.615625669065,1134.660096,33.99381780270923,64.20752426368708,565.4998241958032,797.7846861429216,794.8903647090721,139.0,564.1189614984414,693.1558273360533,0.8138414758287061,1309.761962666667,1218.7089920000003,79.31890820632154,64.00794324366323,747.1894855464509,1000.5765113288863,996.6016106509604,126.0,707.5144362566339,930.750189828919,0.7601550276199052,1020.7042308711658,714.4156160000001,52.8792721375477,70.69399027521756,635.4089250499917,908.2549377167385,905.4510583562609,163.0,642.2332255056712,775.4077934188325,0.8282522189698605,1059.7120358726118,714.4156160000001,32.448644266222445,71.22234109510707,743.8737982070963,1014.434733054857,1011.204271222475,157.0,717.3136788142546,921.6436395978025,0.7782983009867938,1046.38232472956,714.4156160000001,95.18268984758585,69.48173922051912,599.8602496147887,818.5477641627925,815.9534848763388,159.0,578.8006747645975,743.0743755384494,0.7789269739589455,base
1783334864035043641,1783334874035043641,1174.3169694647888,1092.6356480000002,39.65945410316077,65.20746773069816,551.8897951831904,800.2264161562532,797.3892547074515,142.0,565.8455253486949,670.1299223106795,0.8443818228524987,1286.1435713488374,1218.7089920000003,37.57211441352073,65.50719672753401,750.0550694314111,1033.9671859674775,1029.9205414576352,129.0,731.1252087219754,926.2252312181643,0.7893600650032013,1160.2274175104897,714.4156160000001,67.98763560541846,68.79553724430279,918.0179591570258,1212.6808770221319,1208.4042357293295,143.0,857.4948715575993,1147.983109325163,0.7469577423152802,1134.0883348027212,714.4156160000001,62.07566729190382,69.99666635990133,942.7280738867873,1096.910090038317,1093.6481496342572,147.0,775.6325630180404,1215.1829105865572,0.6382846205791768,1262.7188469921266,714.4156160000001,89.23377173211173,66.73894559091508,1210.8846050024085,1576.5243075052847,1570.2745340395181,127.0,1114.7710285424128,1520.2387411932782,0.7332868176135267,base
1783334865035043641,1783334875035043641,1178.164278084507,1092.6356480000002,40.79258136325108,64.8851281915151,561.6896310328933,827.9423239864766,825.027190865356,142.0,585.4436317221872,677.9515913822341,0.8635478390552368,1308.9958920000001,1218.7089920000003,59.489181154741146,64.75363519372729,820.6673671394639,1100.231487111864,1095.9333198357378,128.0,777.9811454117586,1021.9405675806902,0.7612782681223103,1201.9601177971015,714.4156160000001,26.43963606877385,68.12990262437138,1005.1111886060517,1276.7999824432445,1272.1743454375796,138.0,902.833925804483,1270.0167141145712,0.7108834992253781,1157.4733677714287,714.4156160000001,83.98472633610515,68.9607258622856,997.4442965236705,1248.4259849714283,1243.937756028872,140.0,882.7704797827919,1264.9697187471443,0.6978589816814813,1608.3531457864085,714.4156160000001,95.18268984758585,62.50654172543309,2036.7023476519441,2845.822895975092,2831.8470853344897,103.0,2012.3006677999263,2504.3234449742845,0.8035306588844355,base
1783334866035043641,1783334876035043641,1164.719249777778,1050.6112,109.82618059336829,66.05256925377584,576.1815477852282,864.4395641698279,861.4456322393015,144.0,611.251077750429,690.7650917575611,0.8848899358755679,1277.0941029618323,1218.7089920000003,57.109613908551516,65.12383130101408,774.7798416484902,1023.4524280753113,1019.5185184237567,131.0,723.6901521138899,968.8673221429273,0.7469445357216116,1228.3590504296296,714.4156160000001,95.18268984758585,69.46879190634179,1229.4643974110036,1660.1636823830715,1654.0540412892508,135.0,1173.9129976926995,1527.7858311708726,0.768375366325416,1171.5076192463769,714.4156160000001,95.18268984758585,70.1133806375849,1309.8329896276084,1854.2301847603062,1847.450628879147,138.0,1311.1387375247975,1603.6778126901104,0.8175823891492335,1788.3737315555552,714.4156160000001,95.18268984758585,65.63910121182678,2716.595045184802,3503.7041925904095,3483.9648889643863,90.0,2477.4929938524156,3419.179947260941,0.7245868986325513,base
1783334867035043641,1783334877035043641,1169.63148979021,1008.5867520000003,26.43963606877385,68.17231137854782,615.5730804689731,889.0743610470122,885.9383359396775,143.0,628.6705096754392,748.4965797706316,0.8399109984819013,1245.993521671642,1176.6845440000002,67.98763560541846,66.82873490062126,754.8806637733902,1029.8687490213913,1025.9992932404245,134.0,728.2271761651324,935.164275956469,0.7787157774181599,1161.696803804196,714.4156160000001,50.990726704063846,71.21754565845312,1179.1911395578777,1599.918200101029,1594.2749792905806,143.0,1131.3130086352132,1463.2323552566706,0.7731601919346335,1142.7195791780823,714.4156160000001,50.990726704063846,70.37786120695799,1214.5024361930919,1673.6886962932208,1667.9104177634597,146.0,1183.4766267442085,1499.9079545135378,0.7890328357702744,1624.1213138823534,714.4156160000001,83.98472633610515,68.55753217752891,2561.1926088429072,3273.5148525031996,3257.318158246513,102.0,2314.724550519893,3231.167016233193,0.7163741579716719,base
1783334868035043641,1783334878035043641,1153.1743633006995,1008.5867520000003,75.14422882704146,67.95277219265633,589.2847920890771,885.5929382335396,882.4852221387642,143.0,626.2087719958552,706.005962660837,0.8869737723400558,1280.4526040615385,1197.6967680000002,142.77403477137878,65.6295962483658,798.4763161624905,1096.536272419383,1092.3035617942871,130.0,775.3682340447652,987.1833192279913,0.7854349024567472,1150.419264,714.4156160000001,95.18268984758585,70.57597286108252,1110.4939288486105,1476.7500924923163,1471.5817974225279,144.0,1044.220004519178,1386.0720843809781,0.7533663048884851,1183.2883858285716,714.4156160000001,44.61688586605587,70.33862093568882,1342.382982603527,1878.0652867590607,1871.3045201884481,140.0,1327.9926997783896,1649.909645597217,0.8048881363425794,1623.4044262399998,714.4156160000001,95.18268984758585,69.5484137337574,2603.163967758356,3308.8741714133866,3292.313366716927,100.0,2339.7273646994245,3288.732767421093,0.7114373620980324,base
1783334869035043641,1783334879035043641,1136.6749667945205,945.5500800000001,54.913090296684146,69.32032160868424,592.9476032678353,895.5121721541246,892.4358457947835,146.0,633.2227295652765,709.0050830728161,0.8931145131159002,1274.7415893333336,1134.660096,38.58757696523751,66.92674435605338,817.3581832829448,1125.1902301820141,1120.7921561872295,129.0,795.6296418865545,1009.7700411652785,0.7879315185152402,1084.3413490526318,714.4156160000001,83.98472633610515,71.09306594985587,923.8549845073642,1164.9582673110476,1161.1307041474581,152.0,823.7498906149725,1169.5016561143102,0.7043597469984746,1138.1379813517244,714.4156160000001,83.98472633610515,70.82918093310342,1235.2465932960731,1709.270308502931,1703.387502971933,145.0,1208.6366260232444,1523.5704924999968,0.7932922250548554,1540.095960990476,714.4156160000001,19.55808695498339,68.38743508153239,2445.055560949926,3125.151389945582,3111.2367600173884,105.0,2209.8157400650857,3084.6313539456564,0.7163954088836048,base
1783334870035043641,1783334880035043641,1153.3376284444446,966.562304,75.14422882704146,68.68745562689674,612.4254316997243,901.6809517533721,898.5244201446031,144.0,637.5847154515496,739.5084070492171,0.8621737215884226,1288.6403,1134.660096,83.98472633610515,65.47805668242196,829.686384574562,1166.9834215289404,1162.3806722824563,128.0,825.1818908953929,1017.9864522507005,0.810602036079135,1043.9194089171976,714.4156160000001,64.89728853244489,71.97128563145499,881.852642449931,975.0148671276663,972.9130401428147,157.0,689.4396243036734,1147.895756683444,0.6006117021423929,1137.6195641690144,714.4156160000001,89.23377173211173,70.96404328394048,1235.8458471603462,1724.1989643778093,1718.073930145476,142.0,1219.1927798263714,1520.3336471632044,0.8019244868396271,1430.6583819130435,714.4156160000001,38.58757696523751,67.9139084385886,2134.565545905101,2643.5958270198475,2634.5034853731468,115.0,1869.3045360021933,2713.9621248961994,0.6887732584233055,base
1783334871035043641,1783334881035043641,1158.0398945352115,987.5745280000001,178.46754346422347,69.57040836945265,627.3197794495858,926.3490321935483,923.059993708454,142.0,655.0276824096535,756.6568436324837,0.8656865895312081,1263.5987432727275,1092.6356480000002,36.608726864456095,66.0706948706256,803.307257758688,1153.8194752729262,1149.4100126234748,132.0,815.8735752305901,978.6624828590263,0.8336618492282741,989.4618535089821,714.4156160000001,43.264859021629924,72.98169348796081,685.8744728751363,857.5113185423577,854.9341470066026,167.0,606.3520682855187,870.0667616490296,0.6969029217209783,1113.5068503624163,714.4156160000001,43.264859021629924,69.32805369249819,809.9877633116972,1091.68439118,1088.0007254845814,149.0,771.9374359188856,1007.083239331715,0.7665080757685248,1280.9312367131786,714.4156160000001,11.799507005899072,69.76604580954294,1679.6896131714864,2237.2458185881264,2228.7510093357696,129.0,1581.9716895049128,2095.5660762655134,0.7549137712346099,base
1783334872035043641,1783334882035043641,1187.4908306285713,1008.5867520000003,36.608726864456095,67.81709416806217,627.3942455081728,916.9419249383976,913.6376689896832,140.0,648.3758530781872,759.639029517379,0.8535315167917576,1248.635492848485,1050.6112,26.938497126675237,66.26223330728035,792.822696569165,1139.5415263145005,1135.23619677339,132.0,805.7775407006519,965.6588081934577,0.8344329631374567,964.3633503255817,714.4156160000001,44.61688586605587,72.98395019023768,611.2310465196163,807.6319571438554,805.2778352730436,172.0,571.0820335993833,764.2901542666418,0.7472057966615477,1113.2248070872483,714.4156160000001,29.13755811660791,68.82180443744201,787.685647437296,1067.8354773024348,1064.2655997357435,149.0,755.0737071921253,977.6651812921409,0.7723234105506086,1228.670342637037,714.4156160000001,29.13755811660791,69.42704304993347,1514.5971330253647,1655.7268656340339,1652.5115132590881,135.0,1170.775694482573,1975.5128669137373,0.5926439225433281,base
1783334873035043641,1783334883035043641,1176.0841947428573,1050.6112000000003,31.727563282528614,68.08998162275654,614.8263776882951,898.9817669383158,895.7740709383544,140.0,635.6761035651475,744.2989285769099,0.8540602158067756,1238.1531395820898,1050.6112,34.82293531009238,66.08794681180646,764.570540880646,1067.3009576380218,1063.2811652061225,134.0,754.6957447127413,940.4006542007974,0.8025257546785971,932.0928129438204,714.4156160000001,89.23377173211173,73.5744041634253,457.2912206085547,623.7417087903618,621.9772308315976,178.0,441.0519919945496,566.539575908112,0.7785016453397503,1084.395560156863,714.4156160000001,43.264859021629924,69.46397121042396,757.3773354374008,1063.831672124956,1060.3368681630182,153.0,752.2425894005802,929.6808053382996,0.8091407126845522,1128.6566034285715,714.4156160000001,43.264859021629924,69.36597962404508,878.8598887177723,1043.457297684622,1039.8891865782657,147.0,737.8357310713861,1128.0906989117527,0.654057100003716,base
1783334874035043641,1783334884035043641,1144.651922797203,1008.5867520000003,29.13755811660791,69.69736490348593,590.0933211163965,870.9647328558408,867.9410262120333,143.0,615.8650687766949,711.8815658399196,0.8651229338268664,1213.801027270073,1050.6112,29.744590577370573,66.5831483547266,686.0052591593372,957.1425570662913,953.6933018485494,137.0,676.8019926638066,843.9051857594485,0.8019881902428859,933.3226276158196,714.4156160000001,44.61688586605587,73.2458161426862,444.60127197405035,608.4827072632071,606.7636281940739,177.0,430.2622485405626,550.2524700737804,0.7819360601559336,1074.7413669161292,714.4156160000001,44.61688586605587,68.40405252709043,634.6627413093802,860.0749972810681,857.2877701817238,155.0,608.1648629064448,787.8206269041622,0.771958542512784,1155.3804835555557,714.4156160000001,44.61688586605587,66.71200655779768,837.7071653848792,1088.6095464332923,1084.7971784638335,144.0,769.7631923473928,1052.2542010977738,0.7315372954028886,base
1783334875035043641,1783334885035043641,1168.1020863098595,1029.5989760000002,95.18268984758585,68.51776588583455,607.4999616803357,861.7369401846757,858.7106639227075,142.0,609.3400340035305,743.279737624743,0.8197990650878819,1238.4667548656714,1071.623424,64.89728853244489,65.48513046251689,692.197149788961,977.0001921116371,973.3388437293266,134.0,690.8434610626983,848.3168302617712,0.8143696275005174,936.1063838202249,714.4156160000001,89.23377173211173,73.75936096606239,505.11885706617676,654.1842459444174,652.333693517922,178.0,462.57811645270573,635.0597315349281,0.7284009573944527,1075.012492387097,714.4156160000001,89.23377173211173,67.83653395157393,597.8720630636484,817.87464561074,815.2149292950706,155.0,578.3247080718986,740.0488319028299,0.7814683074154679,1106.0834713600002,714.4156160000001,64.89728853244489,67.75507137977516,735.4873890120579,961.3186801164982,958.0883855329632,150.0,679.7549575916773,922.4153064679255,0.7369293991819876,base
1783334876035043641,1783334886035043641,1176.9825897304968,1092.6356480000002,54.913090296684146,66.7270881230877,584.6534928430507,811.4452360085613,808.5514404275548,141.0,573.7784289431722,720.4363751414213,0.7964317859860142,1278.0564949007637,1134.660096,129.79457706488978,63.72670910616011,701.3633168687496,1002.3641262979899,998.5016463837136,131.0,708.7784709234376,855.9424887666139,0.8280678669717225,867.0536369740935,714.4156160000001,83.98472633610515,76.17705224168566,359.17077609685526,484.67819387960554,483.41436332201573,193.0,342.71923758551725,446.4068266709589,0.7677284869080452,998.2072196626508,714.4156160000001,43.264859021629924,70.68055790904323,526.0754687245847,739.0575848017115,736.8146127556063,166.0,522.5926299006421,645.7238335189031,0.8093129024721736,884.2922206137569,714.4156160000001,83.98472633610515,75.56612498452918,398.0618250769372,521.1473743231298,519.7594960286507,189.0,368.5068423814492,499.00680028050846,0.7384806022168418,base
1783334877035043641,1783334887035043641,1203.5922840863311,1092.6356480000002,21.309557428563995,65.0247744855722,596.7438846071681,828.4730237411479,825.5098895631047,139.0,585.8188931174892,735.2650133560049,0.7967452312787308,1269.0109827878791,1155.6723200000001,89.23377173211173,63.699415324854606,676.1587906053937,945.0150745248941,941.4152293498396,132.0,668.2265675200632,831.3350993769446,0.8037992958806559,877.3721191489363,714.4156160000001,95.18268984758585,75.87397838143791,375.0755545446381,488.3877847075964,487.2150096014049,188.0,345.34231441541704,470.8850031281918,0.7333899192397989,986.8150500240965,714.4156160000001,95.18268984758585,71.06989130830468,509.46101223712236,714.0988230954772,711.9317808373793,166.0,504.9441202481447,625.7929079917415,0.8068869330408078,896.5972770594595,714.4156160000001,83.98472633610515,74.8190114748981,404.3826300085302,523.558114689471,522.1534447185783,185.0,370.2114932421692,508.4509298260092,0.7281164641961708,base
1783334878035043641,1783334888035043641,1188.308327489362,1092.6356480000002,33.99381780270923,66.15571378962647,611.0002608726361,844.6790169591812,841.7187762342302,141.0,597.2782608178238,753.838163765988,0.7923162948317317,1298.0885048888888,1218.7089920000003,34.82293531009238,62.836424937017064,746.0630394085345,1039.9662433211186,1035.8220861055433,126.0,735.367182857462,918.0619100753179,0.800999556551837,896.824436237838,714.4156160000001,43.264859021629924,74.87448562381313,398.9622507296691,541.470384720934,540.0093578440801,185.0,382.8773808478612,495.0194042985665,0.7734593382059265,1002.0440235688624,714.4156160000001,83.98472633610515,70.20844557816135,512.5583043351636,718.4419133572048,716.2746628285258,167.0,508.01514882351756,629.5969623249354,0.8068894534489998,899.6846878279573,714.4156160000001,83.98472633610515,74.69146057146075,410.20853600994207,529.0017111897529,527.5700395222054,186.0,374.0606972415618,516.3151977430242,0.724481283674582,base
1783334879035043641,1783334889035043641,1140.7047083835616,924.5378560000001,118.97836230948229,70.6396588137338,622.8539599449413,845.794206171894,842.8838398019893,146.0,598.0668186724391,772.6914979729639,0.7740046580574194,1306.3693640000001,1155.6723200000001,64.89728853244489,61.04202071360463,739.2027599646987,1029.3358668440871,1025.29671353107,128.0,727.8503715639871,909.9221719388636,0.7999039852090672,908.0935067826089,714.4156160000001,83.98472633610515,74.26231960645792,404.61164550312475,548.7053077192285,547.2179848244576,184.0,387.9932439613177,502.14717829903145,0.7726683743909551,999.2198569638555,714.4156160000001,83.98472633610515,69.75211656600955,475.7983836978625,655.1698314551384,653.1818979577993,166.0,463.2750306507757,587.7553290670857,0.788210685194652,905.2479454426231,714.4156160000001,44.61688586605587,74.30368028406718,410.5908489155055,529.7678351540812,528.321777561139,183.0,374.6024286919679,516.7264272662571,0.7249531065670538,base
1783334880035043641,1783334890035043641,1130.1169124324326,924.5378560000001,89.23377173211173,71.4573905376272,619.6142440293514,840.8443754195166,838.0124442728654,148.0,594.5667597817073,768.8230010148435,0.7733467378016545,1308.010944,1113.647872,62.07566729190382,60.15324948123272,716.7378821869404,966.2870847588504,962.48216926009,128.0,683.2681502059633,891.0660474850905,0.7667985466783211,928.5068316444446,714.4156160000001,83.98472633610515,73.74967148136831,445.1373757286725,597.6283659811813,595.9566749696137,180.0,422.5870702147291,554.0800037764262,0.7626824056715913,996.5078687425153,714.4156160000001,89.23377173211173,70.36307371143684,494.32376288528144,671.9297610679216,669.9183173813294,167.0,475.126090532184,613.0575537043234,0.7750105804280433,918.3034598681321,714.4156160000001,83.98472633610515,73.58097806229819,421.23002248535556,530.96245021206,529.4936716024508,182.0,375.44714910037226,533.2815230272165,0.7040317972561951,base
1783334881035043641,1783334891035043641,1137.2506441643839,924.5378560000001,118.97836230948229,71.19584739642785,638.7872942649954,849.637054574437,846.7332040485929,146.0,600.7841228369492,797.2625875471057,0.7535586546025557,1310.0954900317463,1218.7089920000003,35.693508692844695,60.40090244249714,707.1520556838481,932.3602546387095,928.6242984727736,126.0,659.2782585638477,884.762198903352,0.7451474072705774,960.2827887816094,714.4156160000001,44.61688586605587,73.30724604492119,540.0134237278401,729.7564018567424,727.6533457045282,174.0,516.0157003671978,670.8896288509777,0.7691514046072973,1012.661849987879,714.4156160000001,83.98472633610515,69.98730004116405,534.32440695599,727.3636234474511,725.1426606339086,165.0,514.3237505281112,662.3750324092005,0.7764842051147446,918.303459868132,714.4156160000001,83.98472633610515,73.6145407343952,420.5809414660043,543.6803902882033,542.1764803011912,182.0,384.4400907709373,529.0364495503857,0.7266797799993987,base
1783334882035043641,1783334892035043641,1116.8913696644297,924.5378560000001,109.82618059336829,72.16025750409759,626.0392719684295,790.3963193158797,787.7217403160317,149.0,558.8945972131463,792.2554857471798,0.7054474311226134,1320.1013109841274,1281.745664,54.913090296684146,60.78234093178425,732.8228947280929,990.7496104082309,986.7855838650175,126.0,700.5657679775901,910.3090642437368,0.7695911152544697,1000.7858065628744,714.4156160000001,83.98472633610515,72.26961053860803,636.1062562813956,858.4565636410229,855.8669451808398,167.0,607.0204575046682,790.5854923068579,0.7678112783646418,994.8287481904763,714.4156160000001,43.264859021629924,71.09107410524624,539.0099448076035,731.8093712810355,729.6261446235137,168.0,517.4673689686841,668.7130941063629,0.7738256862761204,918.303459868132,714.4156160000001,43.264859021629924,73.6637829327954,421.50789408924317,547.9728192249736,546.4696124367829,182.0,387.47529637988896,529.4046249389552,0.731907652723223,base
1783334883035043641,1783334893035043641,1126.9934737297299,903.5256320000001,142.77403477137878,73.11429527233182,662.183455562026,803.533469206618,800.8008010403006,148.0,568.1839649863514,845.9062292041154,0.6716867016346911,1315.7654552380955,1218.7089920000003,142.77403477137878,61.73457992828863,767.5733256761087,1019.4184560394665,1015.3371025580152,126.0,720.8377031322271,958.4018590604312,0.7521246920773923,1006.5614773975905,714.4156160000001,44.61688586605587,72.19427512666073,651.2011637829424,872.1146435410258,869.4762488200931,166.0,616.678178419948,811.1596165705272,0.7602427017103979,1008.3320583757577,714.4156160000001,62.07566729190382,70.74492868920316,546.7610882337409,762.4058888517062,760.0969750305096,165.0,539.1023740235987,672.7404331346148,0.8013527171418352,944.0068093107348,714.4156160000001,44.61688586605587,72.98216718288478,497.82496992977207,679.8223625876901,677.8977596123344,177.0,480.7070025880156,616.538555325277,0.779686847539326,base
1783334884035043641,1783334894035043641,1157.5561745655173,924.5378560000001,142.77403477137878,71.00494676986129,667.760179242984,801.1228125066101,798.3416240405189,145.0,566.4793732866631,855.1946408775133,0.6623981795599185,1297.4634693543312,1176.6845440000002,50.990726704063846,63.381613697447804,784.6884656267727,1043.6431993878102,1039.5128240773672,127.0,737.9671834263446,979.3743892242086,0.7535087618647147,996.507868742515,714.4156160000001,95.18268984758585,72.61747169836951,644.0095489019261,863.516038036333,860.9113060631024,167.0,610.5980461588318,801.9236941051394,0.7614166418167674,990.5762742857145,714.4156160000001,83.98472633610515,70.94627886891865,508.89780113908034,715.4372425781089,713.3267986382667,168.0,505.8905257403857,624.4928598402387,0.8100821614995014,928.5068316444448,714.4156160000001,83.98472633610515,74.00100411153008,494.10891819608685,676.5395000166616,674.6470781278653,180.0,478.3856682023378,611.4415935403118,0.7823898034682821,base
1783334885035043641,1783334895035043641,1126.425575783784,903.5256320000001,47.591344923792924,71.52275125410041,639.1329730047377,776.0156569332925,773.3949450634618,148.0,548.7259333244646,816.3527665245871,0.6721676655308277,1271.401184492308,1092.6356480000002,79.31890820632154,63.41654057982735,766.6744489954384,1014.5263529592864,1010.5869024756646,130.0,717.3784638699683,958.2606593577242,0.7486256029239398,1012.661849987879,714.4156160000001,44.61688586605587,71.80336435449105,650.332025265004,866.882046626959,864.2405427222608,165.0,612.9781736587955,811.1672857552426,0.7556741801884653,978.9224357647062,714.4156160000001,89.23377173211173,71.86475521014528,514.3601434467487,721.2207194334824,719.1174719943991,170.0,509.9800614436558,631.7379858755387,0.8072651523983696,929.7028719553075,714.4156160000001,21.309557428563995,74.3821530679481,505.3281313523682,642.9892436078486,641.2433125826109,179.0,454.66205438511867,638.2430953980656,0.712365018381516,base
1783334886035043641,1783334896035043641,1156.5478293333335,966.562304,39.65945410316077,69.72732666160506,638.7447105641448,788.1221747112884,785.3724449338296,144.0,557.286534141841,812.8379112587168,0.685605981737315,1264.9038050687025,1092.6356480000002,95.18268984758585,64.32847894388519,780.3232584260505,1032.9975196067792,1029.0413578330758,131.0,730.4395510628372,975.2116726141346,0.749006160995627,1014.480424585366,714.4156160000001,54.913090296684146,71.41135755246223,648.1692972247449,864.54857026607,861.8925393540269,164.0,611.3281567002724,808.3228427691271,0.7562920708834648,999.2198569638558,714.4156160000001,44.61688586605587,70.60927300815631,520.1816744820559,719.112465348302,716.9430993571332,166.0,508.4893006835605,641.7922284346257,0.7922958212251962,941.7296756363638,714.4156160000001,19.55808695498339,73.34395338456187,472.1140117723696,603.348603674667,601.7236843475839,176.0,426.63188907779175,595.6306706630877,0.716269174995375,base
1783334887035043641,1783334897035043641,1148.376408888889,966.562304,158.63781641264308,70.4150911570973,629.275095613787,753.2619046262024,750.6382280984957,144.0,532.6366007706822,806.3023115923754,0.6605916826888072,1280.104084,1092.6356480000002,46.056140248831866,61.738658148904186,724.0711216853911,910.848431126596,907.4513644824015,128.0,644.067102282744,917.1405357937438,0.7022556272963478,999.4730162891568,714.4156160000001,43.264859021629924,72.21684613899596,638.6425135623135,846.2300869828159,843.6729666907689,166.0,598.3750329496311,797.9362006010529,0.7499033538005915,999.4730162891568,714.4156160000001,43.264859021629924,70.88919309901726,535.725611356766,757.3310532277469,755.0450375359383,166.0,535.51392334049,656.2135934902592,0.816066489101828,970.2486590877195,714.4156160000001,43.264859021629924,72.84407491678482,575.2690717759687,794.9118179809748,792.581534926195,171.0,562.0875369396738,709.8575986016594,0.7918314011809182,base
1783334888035043641,1783334898035043641,1143.3548093793106,966.562304,29.744590577370573,70.14517971616635,620.2640331348725,757.7119526321984,755.1175373082143,145.0,535.7832598923276,791.1530135258614,0.6772182507458954,1266.1456795151519,1113.647872,49.232425783234056,61.19000172266533,655.9786726074658,887.3607039418561,883.9710681517491,132.0,627.4587711157549,814.7169957148673,0.770155494995162,1003.5235654939762,714.4156160000001,95.18268984758585,72.32132033536833,653.2686616239196,844.4767917449866,841.9140361644371,166.0,597.1352659975399,821.7266124270516,0.7266836158973132,997.5144423473056,714.4156160000001,38.58757696523751,70.43755551768078,501.1869013569159,695.4713561687771,693.3918846624563,167.0,491.77251206794693,617.6216628087816,0.7962358538907044,962.9185657341042,714.4156160000001,44.61688586605587,73.31530677416262,586.0314452931718,825.1845205018082,822.790393802954,173.0,583.4935701769982,718.7721033302961,0.8117921765097587,base
1783334889035043641,1783334899035043641,1194.3469931594204,1050.6112,18.5420824378414,65.94393773299004,632.2924367909259,774.3269565128528,771.5582125705962,138.0,547.5318418057791,806.0346719281991,0.679290681746942,1302.426986834646,1218.7089920000003,71.38701738568939,60.44999900249949,672.2972748041727,924.5967975027795,920.9226279952883,127.0,653.7886653775805,830.8113154803175,0.7869279741328574,1003.7767248192773,714.4156160000001,25.95891541297796,72.82780437354673,669.9897774527221,850.3937776311412,847.8681511417481,166.0,601.319206841825,846.7468390988274,0.7101522900065322,995.6756264096389,714.4156160000001,62.07566729190382,70.6576390096392,507.29124372398655,696.3610271997578,694.2499245112192,166.0,492.4016044869786,627.2632157773822,0.784999968277645,968.0542962366866,714.4156160000001,83.98472633610515,73.59011032260359,617.1521608014541,870.6786772093543,868.0835400342888,169.0,615.6627968892675,756.4609966330386,0.8138724926064196,base
1783334890035043641,1783334900035043641,1197.6967680000002,1050.6112,54.913090296684146,64.83085964887879,645.4969671468966,779.5119388127756,776.6705171125263,138.0,551.1981779503868,825.4834665235703,0.6677277017693586,1326.8202735483871,1302.757888,36.608726864456095,59.982101469221135,682.5887605759601,982.0282751609244,978.029098204327,124.0,694.3988526832185,831.1196958473345,0.8354980108794946,981.482226366864,714.4156160000001,38.58757696523751,73.0250047264143,588.2591662227422,751.8625140810892,749.6416882638399,169.0,531.6470822267042,742.141080435565,0.7163692945210348,993.4881479281438,714.4156160000001,44.61688586605587,70.41755104529653,487.4124790899792,666.9189264582532,664.92102812107,167.0,471.58289540028323,603.2798984950696,0.7816983403171311,993.2365045269462,714.4156160000001,44.61688586605587,72.1193647729318,611.7175522937039,866.135381599491,863.5333237869613,167.0,612.4502017545981,748.8985931044181,0.8178012449132814,base
1783334891035043641,1783334901035043641,1188.1732420143885,1092.6356480000002,109.82618059336829,65.19020642643457,627.1264838691695,771.6039755829108,768.8575044591724,139.0,545.6064035251754,798.5812918897971,0.6832196159191621,1292.9847605581397,1218.7089920000003,109.82618059336829,61.27146051598217,656.285451183641,927.5777132701264,923.9556579624644,129.0,655.8964911308174,803.9409700542518,0.8158515557262319,957.6260708045979,714.4156160000001,41.99236316805258,73.18173851624086,507.7142976933151,636.2239102338297,634.3943538948243,174.0,449.8782412793622,643.7021051512309,0.6988919838527919,962.138677894737,714.4156160000001,62.07566729190382,71.70803755074556,458.52443261098927,638.1321502304526,636.2555961761655,171.0,451.2275707211057,564.5229404665713,0.7993077665686564,966.3165469941523,714.4156160000001,35.693508692844695,72.85818589594133,545.3375862492887,759.4685722938083,757.2567651629912,171.0,537.0253775670176,671.2585477123565,0.8000276188619059,base
1783334892035043641,1783334902035043641,1182.6454586099294,1008.5867520000003,71.38701738568939,65.59724838485884,628.7152283345372,785.2427764149178,782.4499524399464,141.0,555.2504920807404,797.7556782634307,0.6960157191101666,1262.6436421818184,1218.7089920000003,62.07566729190382,62.617739460393445,644.1464879546098,887.747680658666,884.3598798900985,132.0,627.7324049763724,795.5032430856623,0.7891010004452945,951.3465555862072,714.4156160000001,20.99618158402629,73.49396752244816,508.729244071314,630.1327994438133,628.3878982215191,174.0,445.57117553478315,646.7952159014604,0.68889064819964,979.3197257142859,714.4156160000001,71.38701738568939,70.60791614391975,457.12182163136066,635.7945139136148,633.888279092159,168.0,449.57461222952173,562.905012983971,0.7986686951788144,961.7039863121389,714.4156160000001,16.224322133111222,72.87248529359843,522.5294184573797,674.1656977648595,672.3682618423894,173.0,476.7071365328926,657.6086520842924,0.724910073828816,base
1783334893035043641,1783334903035043641,1161.509048888889,987.5745280000001,118.97836230948229,66.34114310960565,671.4098406268245,909.0588351812845,905.9298348106078,144.0,642.8016668542303,833.6578175281434,0.7710617633985422,1263.5987432727275,1218.7089920000003,39.65945410316077,61.78707169313616,608.9078307048505,814.7374085619488,811.6269017719009,132.0,576.1063464805086,758.6753135299804,0.7593582342886431,924.772629452514,714.4156160000001,83.98472633610515,74.50617835262693,464.14307668736956,594.9027529494319,593.2293241690586,179.0,420.6597707570887,585.1326942727876,0.7189134616377769,961.7039863121389,714.4156160000001,71.38701738568939,71.14509974910432,430.4040770318569,600.3405565878057,598.5932853317147,173.0,424.5048785845437,529.52161719825,0.8016762013053215,954.79545856,714.4156160000001,20.109018981884336,73.3997960619711,524.1816202069286,694.8446039224943,692.9677876268438,175.0,491.3293313044765,654.8514992160203,0.7502912215864048,base
1783334894035043641,1783334904035043641,1176.6845440000002,987.5745280000001,129.79457706488978,66.4768200262191,693.211442044864,950.6448110177346,947.2689039469875,142.0,672.207392370444,857.4105303675152,0.7839971268865956,1307.682628,1281.745664,24.616212891617028,60.11767563693635,635.3134989873687,816.9405825874528,813.8255672782185,128.0,577.6642257740766,800.2490269419669,0.721855580357948,918.303459868132,714.4156160000001,43.264859021629924,74.91018434353488,462.35329114083396,588.6472507181868,587.0306555225748,182.0,416.2364627096477,583.8790415942343,0.7128813214003158,971.6931959069769,714.4156160000001,28.554806954275758,70.41848074212088,427.2931034140162,583.3116588721972,581.6601091014081,172.0,412.4636295337048,529.2406537732184,0.7793498602064063,938.9394926741576,714.4156160000001,83.98472633610515,74.31083906751387,527.5595950028475,719.8864996845035,717.8500415743531,178.0,509.0366256115598,653.5128992239826,0.7789236084184691,base
1783334895035043641,1783334905035043641,1182.0493671489364,1008.5867520000003,36.608726864456095,66.90325990746369,698.0153114847828,972.7396631625717,969.2601106846844,141.0,687.8308121513726,859.0082287510338,0.8007266858798933,1353.323890471545,1386.8067840000003,36.608726864456095,57.95558837132713,629.4235495505395,854.2256013500885,850.717542913265,123.0,604.028715377804,780.9754573334048,0.7734285497782797,903.1848932324326,714.4156160000001,52.8792721375477,75.29260855058432,433.0920915185563,556.2128316742452,554.7040265247678,185.0,393.3018650598305,545.7053609247984,0.7207220108545535,944.0068093107348,714.4156160000001,50.990726704063846,71.80253594221024,400.83776105806,531.0391906144768,529.5292688433299,177.0,375.5014127593121,500.8404595157595,0.7497425689657098,908.0935067826089,714.4156160000001,79.31890820632154,75.76029024007582,495.2741652331231,681.941875435644,680.0761326659293,184.0,482.20572449561575,611.8266234208536,0.7881411269740116,base
1783334896035043641,1783334906035043641,1187.4141902978724,966.562304,142.77403477137878,66.81307039288218,714.6346084788354,996.0874611203524,992.6326101692723,141.0,704.3401984130927,879.4075788399252,0.8009257770352929,1332.2427829677422,1386.8067840000003,24.198988944301487,59.093471696740735,623.2767594888435,816.2325301837718,812.9261207863965,124.0,577.1635571179984,781.2739289169176,0.7387467260274792,918.303459868132,714.4156160000001,25.95891541297796,75.09698865676891,471.8369512812145,625.601675952143,623.9334840980849,182.0,442.36718738742934,589.4199292102107,0.7505127761461616,945.5500800000002,714.4156160000001,23.40557947071783,72.20399507359114,424.56876038086614,552.0050750971776,550.5317257276765,176.0,390.3265318506037,533.2352800119572,0.7319968248197138,893.7498914224602,714.4156160000001,89.23377173211173,75.59793048812307,439.81405636081826,608.0936035058473,606.4689032621857,187.0,429.9871106351484,542.6125235275467,0.7924386039595699,base
1783334897035043641,1783334907035043641,1136.0992894246579,966.562304,178.46754346422347,69.87577196167051,681.3953780802675,950.0237149733026,946.7520846763543,146.0,671.7682111456581,838.4289223216138,0.8012226120319522,1299.7797775118115,1218.7089920000003,22.308442933027933,62.06540915637892,700.4311020654011,947.7344587342311,943.9811998216471,127.0,670.149462535137,869.8605097445442,0.7704102612175633,908.0935067826089,714.4156160000001,29.13755811660791,75.59734836030727,463.81981231828433,629.5150400177964,627.8048354784378,184.0,445.1343536555047,575.4870460712257,0.7734915263416933,923.1447803756909,714.4156160000001,83.98472633610515,73.13121762748789,390.5963532607213,494.9927528417432,493.61585795527856,181.0,350.0127321725933,493.83860320927386,0.7087593596328647,874.8125929214661,714.4156160000001,83.98472633610515,76.91925135892636,436.07684633805866,604.7733173612008,603.17970901191,191.0,427.63931378678905,537.483339719731,0.7956326869773865,base
1783334898035043641,1783334908035043641,1171.9493949295777,987.5745280000001,31.03783364595191,68.40633297449118,708.0157600185603,998.2461088924822,994.7003322057528,142.0,705.8665928909588,868.0142910053808,0.8131969717611288,1290.3785932403102,1218.7089920000003,31.727563282528614,61.617940426923866,694.0677266325498,935.4363660486733,931.7772352237611,129.0,661.4533978015185,862.959859769946,0.7664938181224946,870.4751546666668,714.4156160000001,44.61688586605587,76.87460095282687,395.8538610387521,565.652108619772,564.1778097946467,192.0,399.97644179751035,483.1252235208556,0.8278939337561706,909.3814977049183,714.4156160000001,25.95891541297796,74.27231168295125,396.6070832494201,479.40550656863473,478.088038358415,183.0,338.9908846328536,507.0867253588311,0.6685067221844007,848.8509675102042,714.4156160000001,83.98472633610515,77.87423809182206,381.7978141244671,523.9302454937148,522.5852856049905,196.0,370.4746294573383,472.137073533382,0.7846759981900558,base
1783334899035043641,1783334909035043641,1127.277422702703,966.562304,75.14422882704146,69.58564291618464,646.200357300524,948.9872146690832,945.7549389037575,148.0,671.0352947518426,781.0285655142864,0.8591686967428442,1241.6029077014928,1155.6723200000001,83.98472633610515,63.607830737418595,674.4736762852863,897.6464690460405,894.2690636390826,134.0,634.7319053706156,841.6574030779224,0.7541452175783343,857.0832292102565,714.4156160000001,79.31890820632154,77.80139821347605,409.8990788494734,600.9832935756247,599.4324055023742,195.0,424.9593622671499,495.72096979454307,0.8572551660327763,904.2108132173914,714.4156160000001,38.58757696523751,74.55049405413573,390.1140986196671,487.18386954303304,485.8726506058524,184.0,344.491017838581,495.0161504415184,0.6959187443305033,844.75540142132,714.4156160000001,79.31890820632154,78.21158289039849,387.0270762963709,535.281654425932,533.9228318821822,197.0,378.5012876893306,477.4393188477392,0.7927736002196312,base
1783334900035043641,1783334910035043641,1130.0860064217688,966.562304,39.65945410316077,70.49260844402856,662.3703979844888,968.0921620546168,964.8023828404962,147.0,684.5445326023656,801.9778548653102,0.8535703678717323,1253.7293653333336,1134.660096,36.608726864456095,63.692154872161815,740.3751559074708,1033.961967489214,1030.0129831718657,132.0,731.1215187006079,910.5171087994347,0.8029739492370775,855.7901692717951,714.4156160000001,83.98472633610515,77.55146284034203,397.04464769947174,583.192505721385,581.6978159340931,195.0,412.3793755327658,479.8546966022093,0.8593838477621918,892.401513411765,714.4156160000001,83.98472633610515,75.35635610229589,388.7386260599548,476.38130627258346,475.1127384999736,187.0,336.85245209584934,495.4802231577659,0.6798504488212279,838.3771786934675,714.4156160000001,83.98472633610515,78.74711330767444,386.28769175398213,536.9236071028168,535.5754856918949,199.0,379.6623235615433,475.77791209256867,0.7979822390066632,base
1783334901035043641,1783334911035043641,1099.5475637894738,966.562304,44.61688586605587,71.29184340244443,637.6523465619025,932.841111822375,929.7477693897754,152.0,659.6182759391999,771.7855240773177,0.8546652604397891,1328.1059677460319,1176.6845440000002,35.693508692844695,60.74088590789761,811.0100810014189,1135.8467038453653,1131.3306102927786,126.0,803.164906677446,996.4626281566011,0.8060160852828522,861.1745691191712,714.4156160000001,83.98472633610515,77.26706884288188,395.9730980734144,576.8677460881466,575.363525154751,193.0,407.907095106728,479.9950933879544,0.8498151350414711,917.1489420659341,714.4156160000001,83.98472633610515,74.53626788834332,426.97456205517784,531.9224665526623,530.4510322911037,182.0,376.125983164862,542.1062402136272,0.6938233786363398,851.6383033469391,714.4156160000001,83.98472633610515,78.56830617789925,438.90501212326234,601.8346764612268,600.2895271172231,196.0,425.56138087894533,542.8848633790085,0.7838888309211245,base
1783334902035043641,1783334912035043641,1089.8708816842106,924.5378560000001,39.65945410316077,72.77837830077539,657.3450397450333,969.0166842763596,965.8239017864354,152.0,685.1982685347176,793.3830531044329,0.8636411703698504,1361.3165450491806,1197.6967680000002,35.693508692844695,59.0804132668427,813.4960137508017,1143.2441168622502,1138.5381895719404,122.0,808.3956675849229,998.3985932942074,0.8096923142866502,882.9581111534394,714.4156160000001,83.98472633610515,76.12627740534312,412.27797284209396,575.9642966161274,574.4304342481038,189.0,407.26825985860376,506.964038209265,0.8033474352484371,906.9515380869566,714.4156160000001,83.98472633610515,74.80159802635283,404.78990869516025,516.0667197924479,514.6547698967346,184.0,364.91427710993776,511.0073634924825,0.714107668852224,851.4238928979594,714.4156160000001,83.98472633610515,78.18058533495585,418.62210968173605,577.4174958080054,575.9350754138641,196.0,408.2958268615955,516.8522035480529,0.7899663076963845,base
1783334903035043641,1783334913035043641,1099.9198856533335,966.562304,46.056140248831866,72.28538317484215,614.2582996661836,920.5107482821403,917.4209211987858,150.0,650.8993922654045,736.7438550757281,0.8834812639170232,1339.0209197419358,1176.6845440000002,35.693508692844695,60.19377181118833,850.5814493498476,1216.236240742082,1211.2994959700718,124.0,860.0088933535604,1037.8679856477736,0.8286303318401286,898.4145504864867,714.4156160000001,83.98472633610515,75.372707322318,426.7435704980364,585.4482287415086,583.8551693838656,185.0,413.9744125767738,527.7620134006261,0.7843960005937833,919.401534577778,714.4156160000001,83.98472633610515,74.17890825851987,414.23011004321563,557.4689840605682,555.922318290583,180.0,394.19009893040317,515.2477569921567,0.7650496165797063,861.1745691191712,714.4156160000001,83.98472633610515,77.12076337968746,387.16410611402733,524.4093406336889,523.0419084740671,193.0,370.81340087964753,480.6670375532137,0.7714558559439298,base
1783334904035043641,1783334914035043641,1120.4626473513515,1029.5989760000002,47.591344923792924,71.36229196531325,619.1956575226309,925.112642665589,921.9613404768071,148.0,654.1534229902453,743.5376077810987,0.8797852538251588,1324.2744053760002,1176.6845440000002,31.727563282528614,61.23385528690888,835.3492446612709,1221.796193395278,1216.9079490056079,125.0,863.9403735777114,1011.147979557648,0.8544153685157575,909.1518559125685,714.4156160000001,64.89728853244489,74.90094116786383,437.0914458059663,597.956070457545,596.3121889034084,183.0,422.8187922721911,541.0268001164478,0.7815117332102324,924.3043868444446,714.4156160000001,64.89728853244489,73.92997063881188,409.67584058383153,556.4257002889788,554.874228499969,180.0,393.4523859008104,508.19897553086207,0.7742093251758566,894.4881163010755,714.4156160000001,26.43963606877385,76.14690218069654,481.2983091070713,666.8539712850219,665.0679976580236,186.0,471.53696515681827,593.3991657762932,0.7946370543678586,base
