window_start_ns,window_end_ns,red_Mean_NN,red_Median_NN,red_Heart_Rate,red_Mean_HR,red_SDNN,red_SDSD,red_RMSSD,red_NN_Count,red_SD1,red_SD2,red_SD1_SD2,infrared_Mean_NN,infrared_Median_NN,infrared_Heart_Rate,infrared_Mean_HR,infrared_SDNN,infrared_SDSD,infrared_RMSSD,infrared_NN_Count,infrared_SD1,infrared_SD2,infrared_SD1_SD2,ppg0_Mean_NN,ppg0_Median_NN,ppg0_Heart_Rate,ppg0_Mean_HR,ppg0_SDNN,ppg0_SDSD,ppg0_RMSSD,ppg0_NN_Count,ppg0_SD1,ppg0_SD2,ppg0_SD1_SD2,ppg1_Mean_NN,ppg1_Median_NN,ppg1_Heart_Rate,ppg1_Mean_HR,ppg1_SDNN,ppg1_SDSD,ppg1_RMSSD,ppg1_NN_Count,ppg1_SD1,ppg1_SD2,ppg1_SD1_SD2,ppg2_Mean_NN,ppg2_Median_NN,ppg2_Heart_Rate,ppg2_Mean_HR,ppg2_SDNN,ppg2_SDSD,ppg2_RMSSD,ppg2_NN_Count,ppg2_SD1,ppg2_SD2,ppg2_SD1_SD2,label
1783770424369838558,1783770434369838558,1266.8367633587789,1302.43648,29.144748520457124,63.52845805344376,659.9014323152824,880.8446270075805,877.5273550835449,131.0,622.8512089287954,822.7806430097219,0.7570076109841537,1354.781891147541,1344.45056,44.62789617194998,62.171248157747236,752.8954966475306,992.6992394162738,988.6062883948616,122.0,701.9443638699753,941.9874270710047,0.7451738141055512,913.0600883060112,714.2393600000001,64.91330352283632,74.11354237823555,406.5298383216206,559.0295663467729,557.492850273012,183.0,395.2935972475781,502.39875087338817,0.7868124603422787,923.1491500552488,714.2393600000001,64.91330352283632,75.02111092405654,541.6473512216752,784.4344785416641,782.2533296532848,181.0,554.678939173344,657.9736646627131,0.8430108512894365,938.7078435955059,714.2393600000001,62.090985978365175,73.47175105614103,454.46377927911664,655.2087220027171,653.3567805343138,178.0,463.30253042069273,552.9466845964508,0.8378792084788756,base
1783770425369838558,1783770435369838558,1264.5917361832062,1302.43648,29.751930781299983,63.85028114293172,666.1961874819249,877.4047588229391,874.1010450730993,131.0,620.4188548090475,833.7715171014294,0.744111356749037,1352.7156249180332,1344.45056,21.63776784094544,62.44202330272267,737.33697596142,1001.7403026920879,997.6621438511542,122.0,708.3373610214401,914.5822673387312,0.7744927780882671,941.1628655367235,714.2393600000001,28.001817205929395,73.32069637376449,463.6554863619318,628.2108104517089,626.4761565731361,177.0,444.21212408510013,575.5785041807425,0.7717663548213558,935.8754337078651,714.2393600000001,84.00545161778817,74.96527124905924,579.2404501724978,845.967682579025,843.5745584561691,178.0,598.1894850162972,701.5152658638616,0.8527105739882557,947.8376448000002,714.2393600000001,21.001362904447042,73.22796864014435,471.23157739803895,669.9129501888931,668.0774770575221,175.0,473.69998988325216,576.1272071915988,0.8222142331940191,base
1783770426369838558,1783770436369838558,1313.6843439370084,1302.43648,102.00661982159994,61.30714602643972,676.8660056336956,869.9954983227163,866.5547986451651,127.0,615.1797164657623,852.6852510683999,0.7214616597331228,1329.9977164799998,1344.45056,95.20617850015994,64.33577327763396,736.6700927442628,1007.1772530352902,1003.1078905736025,125.0,712.181865478093,912.0110450700437,0.7808917110465438,925.4833376536315,714.2393600000001,84.00545161778817,74.08794753491937,453.3031621621012,634.6658806372376,632.8806003619088,179.0,448.7765479863226,557.0164437797689,0.805679173384975,935.9407764971753,714.2393600000001,84.00545161778817,74.9671229758001,577.6105643860232,852.3532916968968,849.9359269050464,177.0,602.7047925255512,696.8797562808426,0.8648619608956772,935.9407764971753,714.2393600000001,84.00545161778817,73.99851967437672,470.15250330263837,683.2387805004021,681.2949962473012,177.0,483.1227748614613,570.4234785916124,0.8469545749664822,base
1783770427369838558,1783770437369838558,1333.5200676422764,1344.45056,39.66924104173331,59.66677621429638,673.1251693734893,858.936809200112,855.4099569580139,123.0,607.3600423961349,849.5598135143044,0.7149114550083512,1323.9476889600003,1344.45056,102.00661982159994,65.03605059061493,751.317164780657,1054.5368623483791,1050.277456245128,125.0,745.6701663777237,922.4656989152489,0.808344599972201,940.06504,714.2393600000001,84.00545161778817,73.56438299682073,470.76396993167987,662.7198258985507,660.8299079298898,176.0,468.61368291963333,577.4409397175782,0.8115352596039148,939.7386594350285,714.2393600000001,68.00441321439995,74.88151602133885,588.581753383429,864.5492391932911,862.091749915361,177.0,611.3286297032466,711.3336868758562,0.8594118920308316,924.3097600000002,714.2393600000001,68.00441321439995,73.96208563005344,442.36723431807314,631.3717535083242,629.6084752525824,180.0,446.44724835537744,540.1110693314829,0.8265841485307144,base
1783770428369838558,1783770438369838558,1294.2942164341084,1302.43648,95.20617850015994,62.61701627877424,706.6316268464466,943.6759239061835,939.9990239389946,129.0,667.2796450365428,880.9230668902161,0.7574777754340513,1363.2006452892563,1344.45056,75.16277250012627,61.831092845076306,735.8253744115659,1046.960448458949,1042.635075279,121.0,740.3128327394317,899.3588928211592,0.8231561823080183,934.2231946067418,714.2393600000001,21.001362904447042,74.17137270645574,477.9722290547309,659.8647835969325,658.1094690100534,178.0,466.59486314758465,589.9656942036881,0.7908847374208352,950.2384493714288,714.2393600000001,84.00545161778817,74.56361280078877,614.987149045603,893.0221800942055,890.4617879629458,175.0,631.4620392946069,746.3552997382852,0.8460609035884565,929.0040706145254,714.2393600000001,21.001362904447042,74.09775226699908,462.92419773049465,642.9430751160027,641.2475100378185,179.0,454.62940833145734,570.3101579219317,0.7971616882785567,base
1783770429369838558,1783770439369838558,1279.8135138461541,1281.42944,46.06750572588384,64.0874755440177,729.4735090799339,994.2407259632871,990.3872938539902,130.0,703.0343594604761,903.9549466692374,0.7777316359083111,1302.7672995275595,1302.43648,84.00545161778817,63.05293560107554,687.5861506944789,960.9635292969317,957.1614040204306,127.0,679.5038280388179,845.3914496220065,0.8037741904565505,928.2999240223464,714.2393600000001,84.00545161778817,74.72974631754612,479.04855577581304,676.7349745867112,674.8313562599443,179.0,478.5238895963695,586.9262995679827,0.815304902759674,954.9752091954026,714.2393600000001,84.00545161778817,75.23133432579243,656.8582718636944,964.6550049926697,961.8629441294876,174.0,682.1140955358596,793.9053841404316,0.8591881465502222,918.0424662983429,714.2393600000001,84.00545161778817,74.13090770794366,429.2726629933282,606.4399814775837,604.753079791346,181.0,428.81782328544375,525.9350488445641,0.8153436897341623,base
1783770430369838558,1783770440369838558,1253.6355101538463,1260.4224000000002,29.751930781299983,64.9112011923644,665.4082874025765,958.9892076589676,955.2649636571108,130.0,678.1077718203702,809.7044539746995,0.8374756597813636,1352.3068513821138,1344.45056,30.384950585157426,59.81478544928453,682.4434280610278,943.1060549807117,939.3016640897974,123.0,666.8766868549542,842.0782667139998,0.7919414539188547,938.632741818182,714.2393600000001,84.00545161778817,74.20286292350465,495.58854883247034,683.9396708301808,681.9827578898856,176.0,483.61837916651604,611.7782695829623,0.7905125160725136,954.9096101734107,714.2393600000001,84.00545161778817,75.08221013831478,664.9358188064496,975.4304491126892,972.5907620126604,173.0,689.7334851434222,803.9982251221463,0.8578793629036126,926.891630837989,714.2393600000001,84.00545161778817,73.78952427206684,440.2007086995454,632.2571532859807,630.4786486284378,179.0,447.0733205422194,536.2984718501825,0.8336278099019298,base
1783770431369838558,1783770441369838558,1289.4088582945737,1302.43648,29.751930781299983,62.956666445116944,666.5970744967308,974.7276341095079,970.9153571765778,129.0,689.236519888753,806.957142158752,0.854117875510618,1319.7756241269847,1323.44352,29.751930781299983,60.85510912304866,638.7526439076418,909.9100972801978,906.2662024289724,126.0,643.403600056939,780.4010404368323,0.8244525144364128,937.43916,714.2393600000001,84.00545161778817,74.66004592007558,525.2726234954562,729.8886367221901,727.8091623955504,176.0,516.1092045372652,647.0226444905574,0.7976679161571405,948.0777252571431,714.2393600000001,84.00545161778817,74.95720649770006,621.2700395887298,900.358836793121,897.7686825173597,175.0,636.6498389976479,754.5140260017029,0.843787944369123,921.7278891620114,714.2393600000001,84.00545161778817,74.70521964188974,480.7939698849416,709.1438609511337,707.1579413653064,179.0,501.4404329153568,580.1762051948305,0.8642898974923778,base
1783770432369838558,1783770442369838558,1299.8106,1302.43648,19.834620520866654,62.18069156680763,664.2120048582233,952.3039724007768,948.6064063240161,128.0,673.3805966354761,809.7125791495314,0.8316291656759867,1317.4415085714288,1302.43648,25.054257500042084,61.15740336427959,663.6089403919742,957.6519486792063,953.8288093403035,126.0,677.1621869275783,807.1426997960443,0.8389621650529571,956.6096018497112,714.2393600000001,84.00545161778817,74.47210439016237,584.563327800409,833.0515917690461,830.6264000386086,173.0,589.05642961814,714.0972131166326,0.8248966930528129,945.6769206857145,714.2393600000001,84.00545161778817,74.67069290308643,568.7996518065588,813.379663140752,811.0389973867868,175.0,575.1462754860554,694.0241124685685,0.8287122380234347,909.0738848351651,714.2393600000001,89.25579234389996,75.47356763069547,476.58561492310383,703.9012604052091,701.954126975472,182.0,497.7333545182812,574.8029667662264,0.865919947001092,base
1783770433369838558,1783770443369838558,1306.3753000000002,1302.43648,57.12370710009596,62.62054452223591,692.8224337269911,1018.1078552231075,1014.0970310353608,128.0,719.9109684075511,837.1797585548954,0.8599240020449505,1353.4043803278687,1281.42944,31.045492989182588,60.52622483855462,764.6984083456219,1090.0766779890891,1085.5673815223583,122.0,770.8006110193895,934.0559514711755,0.8252188852341744,978.1172659649123,714.2393600000001,44.62789617194998,73.31008458932159,593.4214975241638,828.6892602542813,826.2566603514865,171.0,585.971795422266,729.8059159341237,0.8029145593760287,955.7602998857145,714.2393600000001,44.62789617194998,73.45097779153708,522.1872693610042,747.3209756503708,745.1792093183396,175.0,528.4357296053239,636.9748255650676,0.8296022203648984,929.2114026666667,714.2393600000001,44.62789617194998,74.83195461366489,515.164309344735,751.5426257813873,749.4486743602503,180.0,531.4208870407628,624.1670062200341,0.8514081675977342,base
1783770434369838558,1783770444369838558,1333.35884288,1302.43648,44.62789617194998,60.78559189375325,693.2044743320104,1006.097268946107,1002.0358790321203,125.0,711.4182014050579,841.4314932438849,0.8454855886869648,1311.6994267716536,1176.39424,178.5115846877999,61.401212812371895,736.3347858435633,1055.8245422522496,1051.638310368318,127.0,746.5806935697482,897.6003942072605,0.83175174430389,935.8754337078653,714.2393600000001,89.25579234389996,74.97864964160725,552.7939932739782,775.3600170583192,773.1679438580921,178.0,548.2623259228546,678.8715703182842,0.8076083163503307,930.6470793296093,714.2393600000001,89.25579234389996,74.59943195780453,497.94375109478045,712.8628934741886,710.8783786800819,179.0,504.07018603186214,607.3323491183252,0.8299742089543386,915.3067428571431,714.2393600000001,89.25579234389996,75.5318980750441,504.21386255186695,741.0327598981589,739.0021577540108,182.0,523.9892896053709,609.2461329941909,0.8600617406140633,base
1783770435369838558,1783770445369838558,1291.6047250000001,1260.4224000000002,44.62789617194998,62.76051404766946,678.8144650825387,990.0278001297672,986.1423817952468,128.0,700.0553710349584,822.5201485393168,0.8511103007970819,1351.6236956097562,1260.4224000000002,38.59709939195673,60.242291460609664,776.4681436337531,1085.8166792753539,1081.4035709845978,123.0,767.7883370410614,954.4925829507289,0.8043942412496408,948.8975454545454,714.2393600000001,89.25579234389996,74.7249179447204,578.4507461636089,807.1080794843685,804.7987884446862,176.0,570.711596153848,711.5860232482333,0.8020275518463323,943.5365423728815,714.2393600000001,89.25579234389996,74.39582377621069,524.735930146809,737.8568888840982,735.7577572427591,177.0,521.7436096751547,643.8846136192753,0.8103060682603269,917.615208791209,714.2393600000001,37.58138625006313,75.53301475951272,514.4741112574886,761.0656221789375,758.9759727744688,182.0,538.1546623706856,620.1306330062339,0.8678085450509841,base
1783770436369838558,1783770446369838558,1269.1484012307694,1260.4224000000002,33.21145761633486,63.81252780427834,673.8659013474345,1000.2702490890996,996.3861688234746,130.0,707.2978761500593,811.2061163442916,0.8719089537163554,1311.6994267716539,1260.4224000000002,29.144748520457124,60.973505607463785,748.2250637513756,1035.7042971698402,1031.5915613704576,127.0,732.3535318328411,922.7733439244341,0.7936440044076669,956.906891034483,714.2393600000001,44.62789617194998,74.05056688930368,572.4635005204275,790.7738151586491,788.4934444198692,174.0,559.1615270834383,706.4687623462637,0.791487970715646,940.6881301694916,714.2393600000001,44.62789617194998,74.31670957944384,515.4620906852266,727.4953363715697,725.434481500988,177.0,514.4168856299253,631.7356787110996,0.814291329372857,914.8450496703299,714.2393600000001,44.62789617194998,75.27069565519288,496.68319800268466,729.7490591795265,727.7387150846022,182.0,516.0105083103464,600.2124424010194,0.8597131146534692,base
1783770437369838558,1783770447369838558,1291.6886920930235,1260.4224000000002,102.00661982159994,64.57510475116707,713.2013651869142,1039.5246587630652,1035.4561055131956,129.0,735.0549354219953,864.3838820598401,0.8503801964358105,1327.3088153600002,1176.39424,25.96532140913453,60.59191933190393,774.0965007973149,1078.1555366496427,1073.880637740238,125.0,762.3710911387836,952.8095007876574,0.8001296067142022,943.5365423728815,714.2393600000001,89.25579234389996,74.53709303066753,554.221261509398,741.5955775287985,739.5782766842224,177.0,524.3872617685674,690.5298062108318,0.7593984460222737,917.615208791209,714.2393600000001,89.25579234389996,75.72698471667847,508.16092704342697,715.563049314654,713.5836557539083,182.0,505.9794845369158,623.2555143447579,0.8118331453013505,912.6009180327871,714.2393600000001,89.25579234389996,76.02762103243613,515.9091976441247,750.7515281438866,748.7716276025559,183.0,530.8614965367054,625.6337875906429,0.8485179462271182,base
1783770438369838558,1783770448369838558,1274.319364923077,1260.4224000000002,44.62789617194998,63.24120131180981,665.6464731102024,953.255869492574,949.5539468205893,130.0,674.0536895240776,811.7858499306278,0.8303343666087303,1284.6612923076927,1113.3731200000002,43.27553568189088,64.27574079264579,782.3971700476517,1102.9594520341789,1098.6800083380754,130.0,779.9101079071664,959.2501108622631,0.8130414571504305,921.7564181215472,714.2393600000001,95.20617850015994,75.24972119118897,524.1230191123866,709.0914298718155,707.1191422303579,181.0,501.403358543626,650.927964023326,0.7702900877763768,896.9780197849467,714.2393600000001,95.20617850015994,76.48043833496361,484.522966865705,669.2788244456303,667.46766626318,186.0,473.2515952700661,597.9477189753791,0.7914598220744322,892.1813458823531,714.2393600000001,95.20617850015994,76.6044210176967,483.4677173434599,710.2134883801157,708.3018833885085,187.0,502.1967737237331,584.2784162172416,0.8595162165583239,base
1783770439369838558,1783770449369838558,1283.5464285271319,1302.43648,36.61776096159998,61.54148612385157,605.5933150377691,832.8716525591119,829.6118684164967,129.0,588.9291933825942,748.3767293467461,0.7869421513101661,1346.8223225806453,1302.43648,44.62789617194998,61.23768355984707,789.205663751843,1124.8032400671252,1120.3007440122776,124.0,795.3559985520644,964.0516465312418,0.8250138894672688,901.7043582608698,714.2393600000001,84.00545161778817,75.87861802526355,496.60996546826783,674.788404208193,672.9423510975671,184.0,477.14745648166235,615.9610929201035,0.774638953606041,876.9886383157898,714.2393600000001,84.00545161778817,77.15942999617421,454.43088288101575,613.909872527955,612.283618353259,190.0,434.09983390188603,564.6180317127822,0.7688380631150477,872.3970747643983,714.2393600000001,84.00545161778817,77.35411982224363,454.7010761223971,661.398380396918,659.6555621360084,191.0,467.67927984446044,551.4926861308456,0.8480244463903918,base
1783770440369838558,1783770450369838558,1316.4411733333332,1302.43648,34.00220660719997,62.07080850470572,748.0299884501709,1018.4323248730113,1014.3629447971272,126.0,720.1404030972874,927.2521917768455,0.7766392028875332,1339.0293883870968,1197.40128,95.20617850015994,63.752275870227415,826.7827689211401,1161.851992101977,1157.120184419702,124.0,821.5534223504069,1014.7238447390413,0.8096325188472215,867.3377876439794,714.2393600000001,89.25579234389996,76.79123733380308,407.9090223255909,524.7645430884696,523.3818086278944,191.0,371.0645669441171,513.7461285192583,0.722272239819336,853.2090092307694,714.2393600000001,89.25579234389996,78.32433857954585,427.9250868586494,585.8522434551288,584.3404043093511,195.0,414.26009412047375,529.5602393832202,0.7822718990439375,853.9253476288661,714.2393600000001,89.25579234389996,77.90000970630551,411.43600937499775,593.6502006439069,592.1102894269625,194.0,419.7740825280612,500.45383347488576,0.83878682597628,base
1783770441369838558,1783770451369838558,1385.7701923966943,1344.45056,34.831528719570706,58.77246277361385,767.5667608773546,1030.3040784309737,1026.045711603438,121.0,728.5350005426981,955.4767612556747,0.7624832231244089,1331.7796469841273,1239.4153600000002,33.21145761633486,63.223254649224195,800.9302185966579,1112.2205244323768,1107.7639835730135,126.0,786.4586750009918,986.7724187371791,0.79700107144002,844.7602582741118,714.2393600000001,84.00545161778817,77.26601154632408,322.3359746840225,414.5447457830786,413.4858813570059,197.0,293.1274008484683,406.00384799519856,0.7219818292262463,827.9491088557215,714.2393600000001,84.00545161778817,78.92219675601186,359.03829639478954,512.9769086494305,511.6928593047675,201.0,362.7294506981244,438.2130410590994,0.8277468188109105,836.2702054271361,714.2393600000001,84.00545161778817,78.25823546211959,354.66084235205096,504.3466532208982,503.0714384034009,199.0,356.62693856123724,433.56342043806285,0.8225484940609364,base
1783770442369838558,1783770452369838558,1330.4458666666667,1302.43648,28.56185355004798,60.54190077693155,732.0777123409092,945.6495411411769,941.932811066705,126.0,668.6752031668732,921.0387017641922,0.7260012004773171,1304.7341250000002,1239.4153600000002,178.5115846877999,65.37760501748939,729.2565422831694,1019.9995906895689,1016.0345601681189,128.0,721.2486273840971,896.3985819231789,0.8046070597709936,835.6600512000001,714.2393600000001,84.00545161778817,77.6060052163739,306.33917139464893,414.90466123699724,413.8764371128991,200.0,293.38189950658807,380.32999669033904,0.771387747639208,819.7919747783254,714.2393600000001,84.00545161778817,78.72053862645595,301.12665915229235,412.32975407497474,411.32306736117863,203.0,291.5611651913961,372.62658678703997,0.7824486376706835,814.1534407960202,714.2393600000001,42.002725808894084,78.8928454168445,284.5700152963489,421.9268772700401,420.8858892391351,201.0,298.3473560825095,342.7165224654578,0.87053683299608,base
1783770443369838558,1783770453369838558,1359.6031790163936,1344.45056,102.00661982159994,59.40222119881314,747.894427024012,962.4389499916812,958.4718549769196,122.0,680.5471080171783,941.8704607491828,0.7225485206063872,1273.349809230769,1113.3731200000002,102.00661982159994,64.76028521013016,701.3706557354417,988.4677603131526,984.6367926099417,130.0,698.9522563017091,859.9851540340111,0.812749212033568,835.0034492462315,714.2393600000001,84.00545161778817,77.87775936225208,316.2403319035003,416.9294856568094,415.8753006938168,199.0,294.8136665845493,395.67454560833096,0.7450913126880254,798.8734923076925,714.2393600000001,84.00545161778817,79.50396099667013,246.87110543469979,343.15175152612403,342.321879086291,208.0,242.6449304801635,304.0598695211843,0.7980169525898521,818.5501793103451,714.2393600000001,84.00545161778817,78.51330705079614,284.47285964344695,407.1259684959851,406.11698065355654,203.0,287.8815331206518,347.0039296484869,0.8296203832973137,base
1783770444369838558,1783770454369838558,1365.801977704918,1344.45056,30.384950585157426,59.52213366520438,771.6682822618756,995.5684457570319,991.5384673873842,122.0,703.9731991301487,971.1615432826916,0.7248775489509184,1288.9788450000003,1176.39424,29.144748520457124,64.53937129240114,714.8702382098221,999.4870668359597,995.5478194944292,128.0,706.7440826679591,878.8261009797376,0.8041910474439288,847.4283249484538,714.2393600000001,84.00545161778817,77.46889761778307,340.9135985097676,459.6415239375312,458.44919631579955,194.0,325.0156384911471,423.82376132757594,0.7668650702194598,809.8576110344829,714.2393600000001,84.00545161778817,78.8837524890572,260.21327072303797,354.32687918037516,353.44874430074714,203.0,250.5469390251098,322.54458326460247,0.7767823489367709,820.9384839603963,714.2393600000001,42.002725808894084,78.37145698228514,286.7380954011219,413.9353111201894,412.9196274037998,202.0,292.6964654656493,348.714582804453,0.8393582600180023,base
1783770445369838558,1783770455369838558,1383.6401640336137,1386.4646400000001,44.62789617194998,58.44991853026675,760.5874428625965,1005.9944877656161,1001.7591767487593,119.0,711.3455241353545,950.7787803305382,0.7481714346717491,1238.4747462686569,1113.3731200000002,36.61776096159998,67.54222943585836,661.9535799111299,927.6585586655216,924.2164225737597,134.0,655.953657458129,813.1589534328285,0.806673350504176,857.8235612371135,714.2393600000001,84.00545161778817,76.91274133467955,353.3728002796497,481.5418139295442,480.29267612134873,194.0,340.5014820544514,437.9201323464399,0.7775424258985191,819.7919747783254,714.2393600000001,84.00545161778817,78.63125082250133,298.2984917299456,429.1575466052953,428.09395749401637,203.0,303.4602114019861,363.2078335948329,0.8355001829076828,815.7733866666667,714.2393600000001,84.00545161778817,78.65275512915001,280.7041823547692,403.39669382879464,402.4018792593426,204.0,285.2445377145742,341.9173187115834,0.8342500426402378,base
1783770446369838558,1783770456369838558,1418.0649736752137,1386.4646400000001,35.70231693755998,56.14774461478001,759.9849756354284,989.3345972901933,985.0626583773579,117.0,699.5652026063578,954.1795376313246,0.7331588815486164,1271.9682540458016,1302.43648,30.384950585157426,64.67358713496964,656.9024151118603,929.508975967997,925.9316083773557,131.0,657.2621000807343,804.3909695280778,0.817092837909827,866.7592233333335,714.2393600000001,84.00545161778817,76.57058065350847,372.83171241172784,517.0328977094201,515.6776322127156,192.0,365.5974680668615,459.5391356906099,0.7955741734976067,844.7602582741118,714.2393600000001,84.00545161778817,77.96307196558183,394.9118440781097,522.7854522317011,521.4501104538411,197.0,369.6651383787118,493.5428774889476,0.7490030861340716,827.9491088557215,714.2393600000001,84.00545161778817,78.21722204809805,314.7928823669478,457.80633807049605,456.6603879926851,201.0,323.7179661198289,381.8277841951824,0.8478114467289551,base
1783770447369838558,1783770457369838558,1382.963466666667,1386.4646400000001,27.463320721199977,57.854653862602696,738.9835361215942,956.9535534608392,952.9454482567804,120.0,676.6683469327228,929.1142596296859,0.7282940068129191,1281.7526252307694,1344.45056,23.411355368891787,64.76634746319829,652.3754336913232,920.2504170254072,916.8330504441027,130.0,650.7153102684136,799.6700603742929,0.8137297399427964,873.2294837894739,714.2393600000001,84.00545161778817,76.31850991925373,383.0732273797664,540.0284736422011,538.5979321262307,190.0,381.85779574622114,469.66212002270214,0.813047890103982,864.1333433333334,714.2393600000001,84.00545161778817,77.04615308293172,414.6621639357574,603.4929065169628,601.9110088904639,192.0,426.7339265961236,502.8304866907903,0.8486635911925894,842.2010249746195,714.2393600000001,84.00545161778817,77.6518612514602,341.17342104399216,493.79206194554814,492.5307774796612,197.0,349.16371549778484,414.53703856665607,0.8422979927320549,base
1783770448369838558,1783770458369838558,1412.4564013559323,1344.45056,16.60572880816743,56.06384781970246,759.6754410694372,969.1047068758953,965.0896395988503,118.0,685.260509911747,958.865250338041,0.7146577787339392,1286.8033339534886,1344.45056,44.62789617194998,64.01948152787438,642.1352050493375,881.7233907600285,878.2773734886538,129.0,623.4725887372122,793.9245610725046,0.7853045733904105,854.1419150515464,714.2393600000001,84.00545161778817,77.40867013262418,370.10672309871615,522.4731412981722,521.1178260676288,194.0,369.44430119977477,453.5564211002249,0.8145498200721903,862.2682429015546,714.2393600000001,84.00545161778817,77.14726075926409,413.3032249811902,602.1566242065329,600.5864608450751,193.0,425.789032312839,500.98998147742714,0.8498953034094228,844.7602582741118,714.2393600000001,84.00545161778817,77.44167755796569,339.5881819679792,486.36674997907164,485.12443185825066,197.0,343.9132270538637,414.12813571808124,0.830451247794435,base
1783770449369838558,1783770459369838558,1353.060002622951,1302.43648,33.21145761633486,59.298963190898455,750.9675534301168,977.0959237156397,973.0561556415626,122.0,690.9111535290624,942.9874981006911,0.7326832592379583,1270.1179569230774,1323.44352,34.831528719570706,65.53861024042199,657.8124141024883,928.9604312058843,925.3528615677733,130.0,656.8742203596601,806.0350324943274,0.8149450009969422,861.94511,714.2393600000001,84.00545161778817,77.04705270627574,378.9928108038826,529.4967327906749,528.1087966346814,192.0,374.41073037240756,466.02511066792874,0.8034132105795432,871.0182164210529,714.2393600000001,84.00545161778817,76.5300282259656,415.348657126913,608.8881247460772,607.27517323788,190.0,430.54892199191164,502.33736357159546,0.8570911765963987,848.684416,714.2393600000001,84.00545161778817,77.30136060822556,346.6565179428882,498.3851523381988,497.098994962223,195.0,352.4115208610309,422.19017379231303,0.8347222240998717,base
1783770450369838558,1783770460369838558,1272.0570683076924,1260.4224000000002,42.002725808894084,63.05201736097893,640.1962700539441,838.3225012653722,835.1034499874714,130.0,592.7835254660127,802.5000774766364,0.7386709884564101,1317.4415085714286,1344.45056,102.00661982159994,65.1184419945412,744.5571018376215,1020.1269137997681,1016.0391018282116,126.0,721.3386584187207,921.176327164901,0.7830625225018325,871.7371677486911,714.2393600000001,44.62789617194998,76.5022385715671,385.47458577493745,547.2320920488294,545.8001864648909,191.0,386.95152317062826,471.503522695944,0.8206757840495704,890.3839520855615,714.2393600000001,44.62789617194998,75.45325736609267,427.51960613884114,634.0360489050495,632.33843146355,187.0,448.3311896974859,514.8257952341143,0.8708405714084504,858.2566960824743,714.2393600000001,44.62789617194998,76.74503123043675,353.1955836196036,506.2056854295382,504.9031276310498,194.0,357.9414728424108,430.6195438974962,0.831224401945896,base
1783770451369838558,1783770461369838558,1276.2584763076925,1260.4224000000002,31.735392833386648,62.48135938385742,627.7477557431938,841.3051207298566,838.0394862160954,130.0,594.8925559150487,781.7838020448258,0.7609425449325679,1397.3182773333333,1344.45056,14.000908602964698,61.72532260837722,791.849406505211,1049.480958207797,1045.2839611582679,120.0,742.0951022748889,989.2918653032183,0.750127569327012,882.5179767195768,714.2393600000001,89.25579234389996,76.0791910568312,397.60168948789715,572.6083451924648,571.0834638541952,189.0,404.89524384959924,483.9464099683426,0.8366530580856784,891.9566716577541,714.2393600000001,31.735392833386648,75.7191453533404,438.5437170454113,646.3025740474277,644.5938895160416,187.0,457.00493280725686,529.3528399989264,0.86332763003252,873.2769507853404,714.2393600000001,89.25579234389996,76.04348940510353,368.59895611026707,538.4678165429231,537.0489720733576,191.0,380.7542445282147,446.36698301737266,0.8530071869437433,base
1783770452369838558,1783770462369838558,1292.014382635659,1260.4224000000002,42.002725808894084,62.576049962883204,681.6580355790941,958.2256754845369,954.4848051113096,129.0,677.5678730421761,836.5203187309019,0.8099837599523284,1422.37411008547,1344.45056,34.831528719570706,61.1436260750443,859.6752043230359,1190.2802352001615,1185.1704898876155,117.0,841.6552258223529,1060.1373280281518,0.7939115089814127,902.9620652972975,714.2393600000001,29.144748520457124,75.18620576357404,419.9836497992911,580.491912826634,578.9584499411948,185.0,410.46976798366313,518.1986269599582,0.7921089455441197,904.4444069565219,714.2393600000001,42.002725808894084,75.26858219198402,461.4955434382439,676.4926464383325,674.6530634952811,184.0,478.3525377193784,558.1627881321322,0.8570125918285679,880.5173062433865,714.2393600000001,84.00545161778817,76.04002095927333,397.089706590952,569.5422019482869,568.0254423926993,189.0,402.72715316955174,484.0102170522342,0.8320633304443025,base
1783770453369838558,1783770463369838558,1336.0477440000004,1302.43648,29.751930781299983,61.12836990508249,707.531046298488,1007.4667840772021,1003.4058623846325,125.0,712.3865948411928,864.5536609706488,0.8239934974555362,1403.7645552941178,1344.45056,158.67696416693323,63.730248597877285,874.4345066776684,1204.0832544571797,1199.0211557132982,119.0,851.415434339839,1080.1931734746274,0.7882066423370503,904.2160695652176,714.2393600000001,89.25579234389996,75.22792433668184,426.45190919366576,591.526682332089,589.9083199195007,184.0,418.2725283298009,525.5915788253681,0.7958128424823473,924.3097600000002,714.2393600000001,43.27553568189088,74.45618273263737,487.21923992628075,699.2860546844465,697.3401182953482,180.0,494.469911256559,593.7296766539894,0.8328199359061574,889.7099294117648,714.2393600000001,43.27553568189088,75.94947988308628,425.8080942121558,621.9328459735426,620.2692595411845,187.0,439.7729328305405,515.6791153110515,0.8528034581452357,base
1783770454369838558,1783770464369838558,1292.014382635659,1260.4224000000002,59.503861562599965,64.45159127387822,704.5394297211402,1025.290978104229,1021.288420477751,129.0,724.9902033068884,854.3689007788715,0.8485681099182834,1428.1165296551726,1344.45056,25.96532140913453,64.25678272588621,900.2238722410693,1243.9494529799233,1238.531107955227,116.0,879.6050936554002,1110.8345871069857,0.7918416511914789,893.5897875268818,714.2393600000001,84.00545161778817,75.59699800464618,422.95381087850836,581.3561460341106,579.7827841613112,186.0,411.0808731451964,522.7677401489093,0.7863547070217088,923.376113777778,714.2393600000001,84.00545161778817,74.57730135959234,498.4832988849035,717.2874158097208,715.2810135136198,180.0,507.19879577882836,606.9150593901961,0.8356998033438836,898.4200025945946,714.2393600000001,84.00545161778817,75.81988849879016,449.84495860012413,652.5961445671492,650.8203694536105,185.0,461.45515919962764,546.1231926771816,0.8449653217207312,base
1783770455369838558,1783770465369838558,1319.9699149606297,1344.45056,30.384950585157426,62.31943548476963,689.9850620915585,983.1489655190733,979.2418527896962,127.0,695.1913004350758,842.9195096322529,0.824742211434129,1460.993964521739,1386.4646400000001,95.20617850015994,64.24585231931503,931.752220056161,1280.1819673570544,1274.556684832034,115.0,905.2253502709086,1151.784672485541,0.7859327979399486,905.3577565217392,714.2393600000001,43.27553568189088,74.93201726151017,429.4906187663844,597.5106061846026,595.8871495578024,184.0,422.5038014640171,528.8380206555602,0.7989285659534678,930.6470793296089,714.2393600000001,43.27553568189088,74.5023336007679,518.5863853920039,708.2913042842285,706.3090161692185,179.0,500.83758431484233,642.2184482687527,0.7798554925741623,910.305066666667,714.2393600000001,43.27553568189088,75.29653823363803,460.52207878600603,668.6366222761098,666.8074079171816,183.0,472.79748976110545,558.920778766157,0.8459114560113999,base
1783770456369838558,1783770466369838558,1304.0905776377956,1302.43648,158.67696416693323,64.2412668276838,703.7351248306746,1020.726932603699,1016.743216166987,127.0,721.7629357838196,854.4093773509578,0.8447507189370976,1449.3030900869567,1344.45056,95.20617850015994,65.35395856516018,948.2136084234323,1266.7801748575175,1261.2145218995468,115.0,895.748851914431,1181.962390072443,0.757848861721844,887.0392051612904,714.2393600000001,84.00545161778817,75.88963994392383,409.21857354099393,575.930118525873,574.3844167322927,186.0,407.24409229921685,501.99183908261415,0.8112564001905928,890.8792017204302,714.2393600000001,84.00545161778817,75.71487230782392,433.5114969511551,617.1631728205429,615.5050124676718,186.0,436.40026460001104,529.7563973244522,0.823775355623946,884.1125050810814,714.2393600000001,84.00545161778817,76.22826775376545,423.2762069963464,612.0950387906721,610.4390797393875,185.0,432.81655265952713,514.4515630167617,0.8413164304944005,base
1783770457369838558,1783770467369838558,1281.106254769231,1281.42944,59.503861562599965,64.40792627754142,694.6347491309805,1012.7202364826056,1008.8127735639921,130.0,716.1013466616945,841.8041934174325,0.8506744825712638,1461.2791859649126,1344.45056,59.503861562599965,63.19768830997918,947.5554582580334,1271.516578996883,1265.882319540216,114.0,899.0979953998165,1179.6330320414054,0.7621844853258212,892.8553685561499,714.2393600000001,38.59709939195673,75.96236400004653,422.99065763806254,587.5629126592291,585.9987279970219,187.0,415.4697199150601,521.0898663522561,0.7973091528788302,883.4071635978839,714.2393600000001,38.59709939195673,76.50251129811883,431.8322199890595,614.7348787551927,613.1140574312004,189.0,434.6832013996868,527.7152543292818,0.8237078572840625,897.6556662365593,714.2393600000001,38.59709939195673,75.70433559986975,439.14141480650153,639.5932970407681,637.8784954438635,186.0,452.2607575389889,532.3724898899657,0.8495193987812278,base
1783770458369838558,1783770468369838558,1273.5718448854964,1302.43648,37.58138625006313,66.78315362361296,699.7017592310041,1031.340551626875,1027.3808901574166,131.0,729.2678977680378,844.5408636557602,0.8635081251264257,1520.1458036363638,1428.4787200000003,38.59709939195673,60.67972109311217,946.1140344202995,1277.0426708775442,1271.2137805293924,110.0,903.0055324420919,1175.820580039148,0.7679790163325999,908.3261426086958,714.2393600000001,89.25579234389996,74.914113495888,429.12899102991736,604.2125043716287,602.5594328245654,184.0,427.24275911888515,526.341328678407,0.811721853937731,884.2963504761907,714.2393600000001,43.27553568189088,76.50586712714906,433.3050023355146,618.827022818736,617.1893696826255,189.0,437.57678421661063,528.9326318684502,0.8272826402690909,889.0000544680853,714.2393600000001,89.25579234389996,76.18724953409033,432.6837552111324,634.4809273323021,632.7822200540606,188.0,448.6457662501999,523.2484613069586,0.8574239571189227,base
1783770459369838558,1783770469369838558,1314.0151634645667,1344.45056,29.751930781299983,64.3751909553676,692.1184696629039,1005.7081104770083,1001.7936640608779,127.0,711.1430248126021,839.7581504381076,0.8468426587364397,1556.4842347663555,1428.4787200000003,59.503861562599965,58.50285966577479,963.94937053551,1299.5943264775065,1293.5198392251689,107.0,918.9519610438088,1198.399109044429,0.7668162919251135,906.9561182608696,714.2393600000001,95.20617850015994,75.11547346360442,431.6306439524309,607.9968151793128,606.3335199459722,184.0,429.91867095311613,529.3344819492996,0.8121871625855924,869.16628,714.2393600000001,95.20617850015994,77.55792704625414,428.6903447122699,607.543285764579,605.9509308401285,192.0,429.5979772284902,524.6652382992839,0.8188039646404691,882.9625701587305,714.2393600000001,95.20617850015994,76.59229746449908,428.36208159910075,626.5682784461698,624.899811416044,189.0,443.05067856566757,518.4989816914591,0.8544870755972126,base
1783770460369838558,1783770470369838558,1342.4010926829267,1302.43648,30.384950585157426,63.63814020281799,762.5570918987518,1077.9587613057333,1073.5345138155174,123.0,762.2319499587351,934.0705883610805,0.816032492036974,1514.8195816513767,1428.4787200000003,36.61776096159998,57.65866079428278,871.3694769232701,1236.5726846734276,1230.8935753651547,109.0,874.3889307626349,1065.9697601278167,0.8202755495219582,913.2291235164838,714.2393600000001,68.00441321439995,74.7707243425162,437.8648112206284,616.0307195263623,614.3273218728295,182.0,435.5994991963189,537.1943074535611,0.8108788443071415,870.1973847120422,714.2393600000001,68.00441321439995,77.37743601345093,426.88806271643347,606.0583255577308,604.4619782948976,191.0,428.5479517964357,522.1495596906304,0.8207379357943863,884.0835131914895,714.2393600000001,68.00441321439995,76.40444750194361,428.08278137360935,629.9846328957476,628.2985667575962,188.0,445.4664059639009,517.0005570557283,0.8616362204729372,base
1783770461369838558,1783770471369838558,1322.77662984127,1302.43648,102.00661982159994,65.29957653997175,773.2551273435023,1092.2376323822348,1087.9164524061048,126.0,772.3286365246175,947.4181877756224,0.8151929596558775,1496.6096605405407,1428.4787200000003,29.751930781299983,56.76421384570371,794.702515874457,1139.4256058992526,1134.23868962968,111.0,805.6955725889521,968.7783542326199,0.8316614105474648,905.0246085245903,714.2393600000001,95.20617850015994,75.10849042567496,429.8786658089652,603.3820191501663,601.7435247797409,183.0,426.6555173871139,527.8009751572642,0.808364397697422,880.072712804233,714.2393600000001,44.62789617194998,77.12426881267837,450.50361890533003,627.1391800622589,625.4780157308656,189.0,443.45436696979453,554.5999761100852,0.7995931952254018,885.6657933689842,714.2393600000001,44.62789617194998,76.3586882752694,438.0747853895739,628.5273698415451,626.8365205244528,187.0,444.4359653763017,533.9076432570148,0.8324210581910646,base
1783770462369838558,1783770472369838558,1308.060411968504,1260.4224000000002,59.503861562599965,64.75857976744089,750.0847820437721,1038.021542848469,1033.8976455589575,127.0,733.9920719658749,925.1390055839864,0.7933857155904354,1469.73578954955,1428.4787200000003,57.12370710009596,55.870004911915935,724.7217227950291,1008.5201163968642,1003.9998650514482,111.0,713.1314132672688,892.2807544084451,0.7992231253940395,898.0509600000001,714.2393600000001,89.25579234389996,75.17990966430152,410.28064334917065,605.0947192264842,603.4392338905958,184.0,427.86657922521704,495.1015126265262,0.8641997010984149,856.1729359585494,714.2393600000001,89.25579234389996,77.83202897481814,400.9652393189649,574.7429375448615,573.244298956247,193.0,406.40462857704796,488.8393245431524,0.8313664800941614,898.0509600000001,714.2393600000001,89.25579234389996,75.91004004029574,456.71852396886817,672.1603118356095,670.3213318047734,184.0,475.28911454342386,551.5738836011612,0.8616961909804666,base
1783770463369838558,1783770473369838558,1352.9900071544714,1344.45056,30.384950585157426,63.52459947134852,773.2798792119871,1072.8619805177457,1068.4684450275718,123.0,758.6279817013277,952.977090951349,0.7960610899302897,1585.7314194285714,1554.52096,95.20617850015994,52.63663212990248,848.0631884418046,1273.363905004568,1267.2312969125496,105.0,900.4042521469128,1016.394822171994,0.8858804005148175,904.2261063736266,714.2393600000001,84.00545161778817,75.18843954572151,433.478202351391,632.5348419039065,630.7912380427091,182.0,447.269676047013,525.1491428841782,0.8517002876374463,874.3351174736845,714.2393600000001,38.59709939195673,77.35227945683016,446.49217904837036,628.2389749670048,626.5772865650202,190.0,444.23203940485473,547.7585959944635,0.8109996678342313,904.2261063736266,714.2393600000001,84.00545161778817,76.03048665264126,490.31645846102685,718.1090314711737,716.1279745307774,182.0,507.77976578457077,593.2118623269523,0.8559838365213015,base
1783770464369838558,1783770474369838558,1376.3951497520661,1302.43648,39.66924104173331,63.64550471498697,810.7016524641923,1134.7592542225193,1130.021253303272,121.0,802.3959636749328,996.2703936961251,0.8053997878006536,1600.5748553846156,1575.5280000000002,42.002725808894084,51.278470283760996,834.9521457306134,1265.4752100064832,1259.3409913134453,104.0,894.8261024190547,996.9620326447105,0.897552838642498,912.7674303296707,714.2393600000001,37.58138625006313,74.96358078381128,447.34958597580953,644.299233193027,642.5173132748617,182.0,455.5883569040821,544.4840940488306,0.8367340054257377,888.3618840641711,714.2393600000001,37.58138625006313,76.73435863680982,452.07641312520633,620.364898962967,618.7296808400046,187.0,438.66422686682137,559.0465227885524,0.7846649768587094,917.8103443093925,714.2393600000001,95.20617850015994,75.72538646256804,519.587980977955,741.5515059652759,739.588372054001,181.0,524.356098467143,634.4041936759666,0.8265331529869543,base
1783770465369838558,1783770475369838558,1372.5756879338842,1260.4224000000002,43.27553568189088,64.12101498332662,823.7043776962884,1153.1653893767768,1148.3506950367023,121.0,815.4110666579444,1012.1907922214745,0.8055902829034298,1496.8470865454549,1449.4857600000003,84.00545161778817,55.46461911881701,826.4428988934278,1249.949365949785,1244.206263030127,110.0,883.8476728029185,987.6347381006693,0.8949135127655141,912.3057371428574,714.2393600000001,84.00545161778817,75.52451880692908,485.51668943850564,698.1167550831531,696.1855847029004,182.0,493.6430915792457,591.2792576394803,0.8348730066229278,897.5115900540542,714.2393600000001,84.00545161778817,76.24104327254899,450.83535359827715,644.8793521986998,643.1245751985554,185.0,455.9985629868886,550.0342601921388,0.8290366546032941,927.5957774301677,714.2393600000001,84.00545161778817,75.05170991305616,518.4331677110667,741.7940258725006,739.7074000065927,179.0,524.5275859381145,632.440751818563,0.8293703156064064,base
1783770466369838558,1783770476369838558,1397.7625438655468,1302.43648,84.00545161778817,61.18342663303743,801.8704539909469,1104.8828734664999,1100.191723776821,119.0,781.2701722450403,990.3539311515843,0.7888797607301651,1580.529676190476,1596.5350400000002,30.384950585157426,51.02025116612256,807.0511029362153,1271.1215910921242,1265.0328234939664,105.0,898.8186967738748,948.0113083006869,0.9481096785490987,916.6497343646412,714.2393600000001,95.20617850015994,75.43988895743412,502.737119812847,719.9460373431131,717.9437434087138,181.0,509.0787250936986,613.1138957028465,0.8303167301568224,916.6497343646412,714.2393600000001,95.20617850015994,75.85496243151917,499.86146034467833,710.9315308935464,708.9543164599016,181.0,502.7045064541602,611.0376818749957,0.8227062280538732,933.8044673446329,714.2393600000001,84.00545161778817,74.64587225533279,524.4781068815092,740.5382787413889,738.4314799382214,177.0,523.6396386262498,642.6938101660143,0.8147575569321082,base
1783770467369838558,1783770477369838558,1365.4576000000002,1281.42944,46.06750572588384,62.7887599288467,792.2276474957555,1078.301898523876,1073.8530846566666,122.0,762.4745846125611,982.1229784621014,0.7763534723589444,1550.987065420561,1596.5350400000002,62.090985978365175,53.300661520001086,813.1512303056435,1261.4419521014613,1255.4979253889494,107.0,891.9741584041394,961.5720966546278,0.9276206760859387,919.8501649162013,714.2393600000001,84.00545161778817,75.7243917323724,542.658236505725,787.4221119011087,785.2162185553179,179.0,556.7915149815065,658.7469375392238,0.8452282405462467,926.4104640000002,714.2393600000001,43.27553568189088,75.03245499677152,499.280290163212,688.9050070365162,686.9895841564197,180.0,487.12940206888686,616.3717134253702,0.7903175818399526,942.1123362711867,714.2393600000001,43.27553568189088,74.23542455442409,530.2809204985525,734.1703561470283,732.0817127234939,177.0,519.1368373777063,653.9450904535646,0.7938538647299,base
1783770468369838558,1783770478369838558,1420.2895349152543,1302.43648,102.00661982159994,59.30375470339151,832.0949105237128,1171.25074965489,1166.2639084814946,118.0,828.1993475508,1020.6893751759865,0.8114117455254225,1526.7685401834865,1470.4928000000002,20.113981373273226,55.113443579313284,852.0107559922108,1233.5545057603474,1227.8424029461871,109.0,872.2547559863617,1035.0992594830814,0.8426774031525801,926.4104640000002,714.2393600000001,95.20617850015994,75.61760058059328,553.0508793051483,806.3264005806027,804.071074730506,180.0,570.1588657002848,670.2163711310534,0.8507086521000492,931.5859414525141,714.2393600000001,95.20617850015994,75.12615997956433,523.3518879386768,733.3839433479836,731.3211269426886,179.0,518.58075955469,642.9085433619583,0.8066166874107448,947.4652472727274,714.2393600000001,95.20617850015994,74.2626194660328,547.5529181295666,764.657696420737,762.4699813334088,176.0,540.6946424255875,673.3892248399441,0.8029451949637354,base
1783770469369838558,1783770479369838558,1387.8651093333333,1281.42944,34.00220660719997,61.484305556500864,812.4211339749567,1105.562920760313,1100.9079549262146,120.0,781.7510382980231,1007.2183749903942,0.7761485073239243,1513.2707723636365,1470.4928000000002,34.831528719570706,55.85916875169689,856.3171535293977,1248.7365522140105,1242.995204321113,110.0,882.9900839860362,1037.652345753888,0.8509498268849528,922.9092906666667,714.2393600000001,51.00330991079997,75.70527885583061,554.4866264664842,792.1088876322947,789.8974136785954,180.0,560.1055658829285,676.7951797950742,0.8275850399119599,933.2790579775282,714.2393600000001,51.00330991079997,75.3326823284067,594.2853541014961,864.4984384417265,862.0568476508581,178.0,611.2927081473259,720.7709599325123,0.848109513463976,943.8845018181819,714.2393600000001,51.00330991079997,74.27667724948586,543.8770512341479,755.1681598956739,753.0120763562879,176.0,533.984526798398,670.1005568481863,0.7968722325944493,base
1783770470369838558,1783770480369838558,1353.6731629268297,1302.43648,57.12370710009596,62.41715068390501,728.1332905418598,1008.9302085178641,1004.8018483199374,123.0,713.4213921869391,897.7032561908516,0.7947185077774362,1487.5255351351357,1428.4787200000003,89.25579234389996,56.84061599101833,860.7039405046584,1249.234930881049,1243.5999932234745,111.0,883.3424909210978,1044.7370809285694,0.8455165486573685,921.7564181215474,714.2393600000001,95.20617850015994,76.25371231115669,577.3292059555481,816.7720876278856,814.5387771851097,181.0,577.545081845571,706.9928311634593,0.8169037313930563,921.7564181215472,714.2393600000001,95.20617850015994,75.93618379858805,586.3463514349363,847.6311316666245,845.2734503552888,181.0,599.3657211462975,712.7302812702103,0.8409432528643552,942.5870716384181,714.2393600000001,95.20617850015994,74.67761666061259,563.4066519308712,773.5249474803607,771.3670045617876,177.0,546.964735780331,696.6124459025149,0.7851779551134723,base
1783770471369838558,1783770481369838558,1368.0617785123968,1302.43648,158.67696416693323,62.11706534992443,740.0104187609675,1018.3445786956833,1014.1274119167479,121.0,720.0783571802755,914.3163672984547,0.7875592988758394,1450.033769739131,1344.45056,178.5115846877999,58.154853013628895,852.9264031929295,1211.8994555830975,1206.6021738900197,115.0,856.9423231590933,1042.972591162684,0.8216345572454516,897.4297840860216,714.2393600000001,95.20617850015994,76.80095752384243,512.9017659657906,723.4078846148668,721.4502218798556,186.0,511.52662077498786,628.7342055120861,0.8135816634286089,912.1417477595631,714.2393600000001,95.20617850015994,76.12703801746655,567.7553747869637,822.4391631382608,820.1767326422814,183.0,581.5523093684535,689.630906306468,0.8432805201308873,937.7637069662925,714.2393600000001,95.20617850015994,74.92603723048113,555.7379353385678,764.1988840812375,762.1187324701162,178.0,540.3702131090354,686.7964195749686,0.7867982384699229,base
1783770472369838558,1783770482369838558,1326.97270272,1302.43648,102.00661982159994,63.29033608788949,706.4071498213589,980.2495107479995,976.2898311815998,125.0,693.141076304706,870.5169997231808,0.7962407127317682,1388.5829969747897,1302.43648,44.62789617194998,60.05288648096586,759.1920540112864,1016.2259795787387,1011.9439116087469,119.0,718.5802813780681,945.8151718782376,0.7597470443946068,902.8460452173914,714.2393600000001,31.735392833386648,76.40045563039926,498.43477887415287,697.96055351417,696.0806291990838,184.0,493.53264039058575,612.4436496668079,0.8058417140239528,917.8103443093927,714.2393600000001,31.735392833386648,75.90666720255622,555.0672220649225,797.0599491851566,794.8696785454802,181.0,563.6064950810292,676.293650253334,0.8333754055947543,928.0652084916202,714.2393600000001,31.735392833386648,74.93027509591587,509.9439952763694,693.5902793964306,691.6605533921083,179.0,490.44238992628823,632.3123339921078,0.7756331223683036,base
1783770473369838558,1783770483369838558,1395.997246386555,1302.43648,37.58138625006313,61.24305036416406,779.2918799477815,1067.72717922902,1063.1981144899542,119.0,754.9971288900243,964.1479844863053,0.7830718323725835,1382.5809855462187,1344.45056,39.66924104173331,59.63317667412462,752.4656858479984,1022.7184181150114,1018.398114458879,119.0,723.1711286935034,933.2314697166398,0.7749107827590537,879.8504160846563,714.2393600000001,95.20617850015994,76.81020137858667,433.3460453091492,615.8614451258057,614.2233239561984,189.0,435.47980411980404,529.8643789424299,0.8218703151719493,884.530471489362,714.2393600000001,44.62789617194998,76.59866012807018,432.97005509137153,607.084707571427,605.4603526768956,188.0,429.2737134784082,531.77831534379,0.8072418545327229,900.3343339130436,714.2393600000001,84.00545161778817,75.57184767168046,427.66220016696224,595.1133029308737,593.5028452913878,184.0,420.8086520767449,526.5453010634226,0.799187935448043,base
1783770474369838558,1783770484369838558,1359.2588013114755,1302.43648,31.045492989182588,63.133749174122,746.7789658999749,1004.9454549052186,1000.8666304560973,122.0,710.6037458860799,928.9127009507447,0.7649844222807751,1300.7823823622045,1092.3660800000002,95.20617850015994,64.02178663514542,741.2553260580606,950.4918405866795,946.7125340067543,127.0,672.099225941324,934.3769218379808,0.7193020399297326,864.8805173056995,714.2393600000001,89.25579234389996,77.48055412611035,421.4390356688383,616.2348353570766,614.6279621257031,193.0,435.7438308843645,510.1817112500897,0.8540953571555294,874.9984976842107,714.2393600000001,89.25579234389996,77.10293437884495,428.2570235147857,573.3314340062473,571.8127157825589,190.0,405.406544853225,533.5081284053434,0.7598882252553223,892.6306943315508,714.2393600000001,89.25579234389996,76.20238406657582,436.23915786031034,599.651626146985,598.0374869441752,187.0,424.01773119807353,539.1787157484656,0.7864140753580557,base
1783770475369838558,1783770485369838558,1319.57822464,1302.43648,79.33848208346662,63.925989028113285,707.8548196758737,1001.3930920720506,997.3724235020843,125.0,708.0918460375118,866.8447728770831,0.8168611822937275,1282.7423800000001,1050.352,46.06750572588384,64.39657260353454,729.4781467700685,935.8475808563744,932.1708879988195,128.0,661.7441705805682,919.4150638212892,0.7197447557909431,872.5146243386245,714.2393600000001,95.20617850015994,77.32976933977545,426.89982644496456,575.7072612301072,574.1742573426995,189.0,407.0865083941439,530.6856046466816,0.7670954418768771,886.5874408602152,714.2393600000001,95.20617850015994,76.61653107342046,452.28465669921684,601.9644066371993,600.3354431144941,186.0,425.6531139661,564.3868661268953,0.7541867812891261,896.2242608695653,714.2393600000001,95.20617850015994,76.27544686825917,446.6349874793934,646.1382550129781,644.3705951764541,184.0,456.8887417037196,542.763266013491,0.8417827261220052,base
1783770476369838558,1783770486369838558,1330.5588077419357,1302.43648,35.70231693755998,63.257024719610406,695.6779841935075,974.0590906042726,970.1109039472849,124.0,688.7637882426828,854.8321106427148,0.8057298967452547,1260.4224,1050.352,43.27553568189088,66.1736701623428,743.7249872080268,965.5856347596082,961.8803654476894,131.0,682.7721501548359,934.4328807793689,0.7306807842478381,841.1346777664976,714.2393600000001,79.33848208346662,78.50272635272238,362.86017222900415,527.54494730495,526.2980349573139,197.0,373.0306096200301,440.1807484697388,0.8474487149127897,872.1238501052634,714.2393600000001,79.33848208346662,77.43580759094965,452.16339295198134,595.5286057279146,594.050915130075,190.0,421.1023155007783,565.8974180817909,0.7441318904196079,867.5577566492151,714.2393600000001,79.33848208346662,77.3618866303968,406.7196100634971,569.9654006434534,568.4948649355526,191.0,403.0263998366933,499.6264033632962,0.8066555272573103,base
1783770477369838558,1783770487369838558,1353.6731629268293,1302.43648,49.244575086289615,61.19226496462516,704.5007463976546,985.6728475835796,981.6322020496038,123.0,696.9759545578034,865.8838621511687,0.8049300662865607,1301.0920294400003,1050.352,29.751930781299983,63.795125533041755,772.1602259581645,994.65839801226,990.6702111191614,125.0,703.329698198617,972.1761655787742,0.7234591045336908,835.8479533668345,714.2393600000001,95.20617850015994,78.23171537740028,327.5800878673156,483.8728804490895,482.64961909967656,199.0,342.1497949978188,395.0749129289175,0.8660377660056053,866.3215766666668,714.2393600000001,95.20617850015994,77.40159102377764,430.2396797720967,575.7775076845086,574.2684271875146,192.0,407.1361801384055,536.0339816764853,0.7595342721837476,866.3215766666668,714.2393600000001,95.20617850015994,77.33577395066318,401.8969024908407,571.2254485681987,569.728301437537,192.0,403.9173882689007,491.3935410549061,0.8219835112235812,base
1783770478369838558,1783770488369838558,1296.5282500000003,1302.43648,178.5115846877999,62.45350026762377,634.8746970160201,861.397721568098,858.0570872173963,128.0,609.1001702194436,787.8008968906352,0.7731651139564527,1316.55321088,1050.352,10.500681452223521,65.03659477301171,866.5687415859919,1068.1724522177396,1064.353721195624,125.0,755.3119844398271,1103.011636778436,0.6847724532135177,830.6183616000001,714.2393600000001,95.20617850015994,78.3879867709731,315.57915172728787,465.4509612112616,464.2804455738364,200.0,329.12353098227976,380.813934470244,0.8642633611612149,860.7444161658032,714.2393600000001,95.20617850015994,77.3671411992911,407.93046635661796,539.9199186659399,538.5124417775313,193.0,381.7810357863753,509.8393385379328,0.7488261633188398,869.7574467015711,714.2393600000001,95.20617850015994,77.04744041062946,394.36253403671986,563.3710304698822,561.8869108486034,191.0,398.36347596930676,481.3490282638491,0.8275979644254019,base
1783770479369838558,1783770489369838558,1322.6032384,1302.43648,31.045492989182588,59.69865251857111,632.9969464105186,888.9389807279316,885.3478768959725,125.0,628.5747813337781,777.0567163764035,0.8089175063886825,1288.5420598425198,1092.3660800000002,43.27553568189088,65.98218487280548,819.4336597233759,1103.51357072256,1099.1422129410828,127.0,780.301928989303,1019.0718793014931,0.7656986173773618,829.4597915151519,714.2393600000001,84.00545161778817,78.57735383867383,322.14468367512023,473.52213789627984,472.3188241566215,198.0,334.83071474841097,389.2281987097295,0.8602426953092216,861.9451100000002,714.2393600000001,95.20617850015994,77.5516293292951,417.3373247003858,576.7933147214758,575.2814030391921,192.0,407.854464182622,514.9449030714875,0.7920351512363671,868.2176636649218,714.2393600000001,84.00545161778817,77.19740338126799,395.545326257441,560.1933930962208,558.7365521840268,191.0,396.11654703423903,484.20868520819266,0.8180698924554046,base
1783770480369838558,1783770490369838558,1349.232650406504,1344.45056,102.00661982159994,58.02457248963551,643.7311597281814,848.1667137245776,844.7466470899865,123.0,599.7444348513579,805.5637271143678,0.74450278067971,1303.1033701587303,1260.4224000000002,59.503861562599965,66.39355329985834,823.8185966017959,1142.9688153941406,1138.3877596231337,126.0,808.2010000499521,1015.2633805929541,0.7960505771201268,822.9325022885572,714.2393600000001,95.20617850015994,78.98046150369426,316.93109489533384,463.0751929059525,461.91610195254464,201.0,327.4436091030677,383.7720407375828,0.853224243417379,865.2274600000001,714.2393600000001,44.62789617194998,77.31146109436192,418.3145250311519,569.4812555905238,567.9980942241071,192.0,402.6840575866889,518.5526574870064,0.7765538403335231,866.0179736125658,714.2393600000001,44.62789617194998,77.09084993591168,384.71938716620434,542.2672909915224,540.8499615074998,191.0,383.4408786757643,471.703890171852,0.8128847072600323,base
1783770481369838558,1783770491369838558,1365.1132222950823,1323.44352,158.67696416693323,56.763015556329606,644.9406628340012,816.6669737072133,813.3211895656002,122.0,577.4707550794665,815.573835202857,0.7080545379877625,1340.3846812903228,1260.4224000000002,35.70231693755998,65.37056435344633,845.2440668937052,1184.5811206553713,1179.7868281259598,124.0,837.6253432809729,1038.3000324495501,0.8067276481778133,829.7780800000002,714.2393600000001,89.25579234389996,78.5392689738064,321.20787359310805,468.1632559441972,466.9855326064797,200.0,331.0414129805151,389.30038217595444,0.8503495710181252,859.8736580310883,714.2393600000001,89.25579234389996,77.49399849374454,409.4355884391453,556.375671858155,554.9249285125909,193.0,393.4170104581228,507.82529486243106,0.7747093625273209,851.0544410256413,714.2393600000001,89.25579234389996,77.77264320215671,365.5886984891815,510.91747491145156,509.59902202194644,195.0,361.2732111365952,449.500863607128,0.8037208387932144,base
1783770482369838558,1783770492369838558,1327.778306031746,1302.43648,25.054257500042084,58.83510370568515,620.263967113807,768.1360577430497,765.1639499636442,126.0,543.1542153040119,788.6358646411264,0.6887262419281142,1420.5786365811969,1344.45056,34.831528719570706,61.463990969953606,856.0684388438672,1215.298963968037,1210.0492678752337,117.0,859.3461385907846,1047.123894777359,0.8206728381205549,829.9881504000001,714.2393600000001,52.89232138897774,78.82252556076408,336.57409544358774,484.2080495419416,482.998958299075,200.0,342.38679533621865,409.81689159554634,0.8354628673386276,860.091347564767,714.2393600000001,47.60308925007997,77.43120896411287,391.20140463377544,520.5960260933193,519.2518628768751,193.0,368.1169803093549,488.18236590319276,0.7540562831029276,838.5840614141415,714.2393600000001,38.59709939195673,78.13560822429146,337.04010571392865,467.94826274094527,466.7848395258311,198.0,330.8893898285866,415.26879435944284,0.7968077407284782,base
1783770483369838558,1783770493369838558,1328.7379772357726,1344.45056,44.62789617194998,58.460347410194096,595.8806351181101,716.2523967695336,713.3271894812309,123.0,506.4669267968548,762.8191716573459,0.6639410041261481,1367.3673309090914,1302.43648,89.25579234389996,63.99182974819898,849.7168075267112,1184.477955332159,1179.5348516699964,121.0,837.5523943813461,1045.6052311077108,0.8010216183540376,846.7123265306125,714.2393600000001,84.00545161778817,78.47948927117038,412.69991015779897,588.4986505296506,586.9877796186253,196.0,416.1313865086482,504.0434170482794,0.8255863928261349,855.4413195876289,714.2393600000001,84.00545161778817,77.61030648095908,388.0082064273091,541.8285491853261,540.4342492650293,194.0,383.1306413694129,477.185700049578,0.8028963175753316,838.159676767677,714.2393600000001,84.00545161778817,77.95977258350331,324.38474903719765,467.58616496912344,466.4103707629789,198.0,330.6333480386789,394.7046052407019,0.8376728916984626,base
1783770484369838558,1783770494369838558,1325.7776355555557,1323.44352,95.20617850015994,59.06667392820632,606.1583323277076,744.638534308271,741.6978671303121,126.0,526.53895714219,772.1620367555133,0.6819021553489116,1389.9658133333335,1302.43648,44.62789617194998,61.14436754360882,835.0148052294113,1152.870474074708,1148.047531509002,120.0,815.2025300479759,1030.6414834491734,0.7909661537393162,857.4790731606221,714.2393600000001,84.00545161778817,77.90226226052349,421.45892860261733,596.7452217794446,595.1891690089585,193.0,421.9625929609155,515.9738773121975,0.8177983644423938,853.0590779381445,714.2393600000001,84.00545161778817,77.76738980592077,386.760604723207,540.0893233903237,538.6883111123988,194.0,381.9008230157521,475.6505139508073,0.8029021557101671,835.8255612121214,714.2393600000001,84.00545161778817,78.1767421986147,324.8440316908046,469.2259241064544,468.0404771493518,198.0,331.7928328441982,394.97347744739005,0.84003826026114,base
1783770485369838558,1783770495369838558,1372.5756879338844,1386.4646400000001,30.384950585157426,57.30879762534189,637.0224177234776,807.4774791696843,804.1151738471974,121.0,570.9728011763029,805.350949290415,0.7089738972548306,1422.3741100854706,1344.45056,29.751930781299983,61.10265754411643,851.3329681391731,1154.2405061050677,1149.345875183561,117.0,816.1712889870859,1056.6304267802855,0.7724283423051564,892.1813458823532,714.2393600000001,84.00545161778817,76.8129809745748,508.7938332187692,723.1872465376061,721.2406101505393,187.0,511.3706060943689,622.0871169331803,0.8220241059087812,868.9474566666668,714.2393600000001,84.00545161778817,77.06038080690438,414.33329245436215,586.9717077435962,585.4331574114075,192.0,415.05167491014515,507.1589573785379,0.8183857720970018,855.5790342564104,714.2393600000001,84.00545161778817,77.81567457557678,413.0991003771892,586.2528147915618,584.7528955059358,195.0,414.54334082881445,505.35002003772473,0.8203093388575873,base
1783770486369838558,1783770496369838558,1331.1290224390245,1344.45056,44.62789617194998,59.62422789601572,612.5926062607299,762.9655035802741,759.8322398257228,123.0,539.4980813930209,777.824088452686,0.693599091879806,1420.9377312820516,1344.45056,57.12370710009596,60.641884322055844,828.9338916661342,1158.9789546467969,1153.983683106343,117.0,819.5218780832462,1019.0459946327148,0.8042049940823512,877.8497456084658,714.2393600000001,79.33848208346662,77.33194265419883,487.8697806864189,701.8942535495943,700.032016247753,189.0,496.3141863607881,594.0285851897562,0.8355055610703409,877.8497456084658,714.2393600000001,79.33848208346662,76.32618867069762,401.1620736016312,536.0301365302298,534.6026703558516,189.0,379.0305444608764,500.0299408791107,0.7580156976090205,863.3566905699483,714.2393600000001,79.33848208346662,77.55907449582918,425.357788722837,621.7961577027569,620.1748215592374,193.0,439.6762796273593,514.9765833714047,0.8537791694312084,base
1783770487369838558,1783770497369838558,1333.6082167741936,1302.43648,37.58138625006313,60.59034996453785,649.2870253307472,835.0992536900567,831.715569665305,124.0,590.504345248064,817.8016823455906,0.7220630111134032,1450.5913936842107,1386.4646400000001,36.61776096159998,57.71657621197679,816.506804158703,1092.499242788901,1087.6798524067726,114.0,772.5136230172003,1017.3387211746815,0.7593475082961639,873.6717372631583,714.2393600000001,43.27553568189088,77.59404310377133,485.8581507900302,701.2022658958855,699.3538176321437,190.0,495.8248771983532,590.9273482872785,0.8390623291263017,873.6717372631583,714.2393600000001,43.27553568189088,76.54806525433035,398.40471835060805,532.2761681474336,530.8780773597473,190.0,376.3760879610413,496.61167869234197,0.7578881128049582,869.097539685864,714.2393600000001,43.27553568189088,77.17706225558373,427.93130605655386,619.7155971631012,618.0874013362351,191.0,438.2051011610996,519.844736498054,0.8429538098492222,base
1783770488369838558,1783770498369838558,1384.699342521009,1386.4646400000001,29.144748520457124,59.57006876878266,682.7662108531401,860.6709879275375,857.1406380649178,119.0,608.5862919340868,864.3788289867288,0.7040735746009702,1427.382700521739,1386.4646400000001,30.384950585157426,56.468497776344286,701.2980876811072,952.4822774533111,948.2973122826104,115.0,673.5066773472429,869.9611447384844,0.7741801819777859,887.9125356149734,714.2393600000001,89.25579234389996,77.09873657185018,508.77528021687164,737.2987839514806,735.3141615226546,187.0,521.3489698926871,617.9014462804157,0.8437413005440496,869.3175086910998,714.2393600000001,89.25579234389996,76.75702218893673,394.6779139410014,527.108601725583,525.7196903439391,191.0,372.72206670191883,492.01670906826547,0.7575394490316081,869.3175086910999,714.2393600000001,89.25579234389996,77.23252092893304,431.47301618097265,628.8462630025289,627.189260202217,191.0,444.6614568929073,522.9493491357938,0.850295459068336,base
1783770489369838558,1783770499369838558,1428.8409103448282,1386.4646400000001,57.12370710009596,57.67022504269682,710.2739934083633,903.7536925542948,899.8231659005473,116.0,639.050364527524,897.0984378668522,0.712352555252551,1444.1883325217393,1386.4646400000001,71.40463387511996,56.69398575487204,813.6650238096455,1064.9864830389704,1060.3144242705055,115.0,753.0591640288679,1020.0747471035509,0.7382391988108129,896.3003733333336,714.2393600000001,71.40463387511996,76.55298308366379,511.6955009542167,739.4290695098215,737.4282193546928,186.0,522.8553092568537,622.0737369352073,0.8405037509424903,863.7920696373058,714.2393600000001,71.40463387511996,76.94917220546927,386.8942847155524,522.2575175289555,520.9047050221268,193.0,369.29183217037667,480.81820518491287,0.7680487722555234,882.0733832804235,714.2393600000001,38.59709939195673,76.88996285053813,457.7762403598814,663.5607120026647,661.808662851514,189.0,469.2082791860579,555.9136334428982,0.8440308906981565,base
1783770490369838558,1783770500369838558,1433.9115751724141,1407.47168,178.5115846877999,58.982620325321044,726.5342500393897,928.361425180947,924.3180631405719,116.0,656.4506591374553,916.6462234797004,0.7161439629844204,1476.1703783783785,1386.4646400000001,89.25579234389996,56.29967350595653,905.8880201144482,1178.9582567880623,1173.5876799957946,111.0,833.6493781107098,1137.4447534546734,0.7329141706256331,916.9226690109892,714.2393600000001,95.20617850015994,75.51160089051051,525.2421378483725,766.1986658836354,764.0793044732486,182.0,541.7842723824044,636.391002326865,0.8513386744964249,878.3153987368423,714.2393600000001,44.62789617194998,76.14904696943407,398.5137109449506,542.4727995846002,541.0460581798387,190.0,383.5861951955218,494.02142772347725,0.7764565941261756,906.9561182608696,714.2393600000001,28.56185355004798,75.78445206913298,481.2501725286112,695.6506912511003,693.7625979938564,184.0,491.8993211207623,584.9965692703698,0.8408584715877531,base
1783770491369838558,1783770501369838558,1441.8797627586207,1428.4787200000003,84.00545161778817,56.79621059606065,685.242328734184,903.6564013682015,899.7378705625765,116.0,638.9815692700878,857.3012161688929,0.7453407941325083,1477.2450628571428,1386.4646400000001,89.25579234389996,55.81750879622973,882.4228048246264,1141.88390012988,1136.7538482227556,112.0,807.4338491095805,1109.6690058775027,0.7276348576313338,910.534651803279,714.2393600000001,95.20617850015994,75.93267825674288,524.0003940736156,762.584362219472,760.4866046859564,183.0,539.2285737522071,635.4282796690662,0.8486065084057003,881.6287898412701,714.2393600000001,95.20617850015994,76.29138245382624,412.4150751244618,564.2636689558976,562.761144262609,189.0,398.99466669591635,510.464510376518,0.7816305709511879,910.534651803279,714.2393600000001,95.20617850015994,75.65117764006906,485.9324449731753,708.9559612181191,707.0057479932613,183.0,501.30756773995904,588.7325737705867,0.8515030254386862,base
1783770492369838558,1783770502369838558,1406.0474738983055,1386.4646400000001,52.89232138897774,56.806877549643204,668.4369787814538,900.8410645093323,896.9902429701195,118.0,636.990825485857,831.1060902967675,0.7664374415285578,1493.5816187387388,1344.45056,59.503861562599965,58.44255872655749,1031.7583494509772,1335.3597728383393,1329.2901450151512,111.0,944.2419506977174,1297.4028490006078,0.7277939549963752,908.0092153005468,714.2393600000001,21.314816082125358,75.79621295540845,505.7770654642776,720.4202659497269,718.5310759913887,183.0,509.4140553572679,617.9559369417398,0.8243533638957415,883.8600340425535,714.2393600000001,21.314816082125358,76.25903516974802,422.8811941216441,569.1121008147985,567.6995288462361,188.0,402.4230257414661,526.0084247044308,0.7650505331118822,908.0092153005464,714.2393600000001,95.20617850015994,75.75769230018041,484.4244421575689,718.6292102013707,716.6523834829251,183.0,508.14758769212216,583.2898892323457,0.8711750316140118,base
1783770493369838558,1783770503369838558,1417.705878974359,1428.4787200000003,29.751930781299983,56.42755121394845,666.7509804167439,893.2141125865521,889.3560132565674,117.0,631.5977560614753,830.4552227799119,0.7605440230085252,1575.1240184615385,1617.5420800000002,34.831528719570706,56.61402170808576,1047.549964738531,1398.008271480313,1391.2153771474743,104.0,988.5411289186131,1306.1834003942752,0.7568164842856059,872.909555744681,714.2393600000001,84.00545161778817,77.09071473537324,441.87333726317684,650.9445872781739,649.2021105200254,188.0,460.28733184107523,533.4527893277027,0.8628454870789295,868.5132833862436,714.2393600000001,84.00545161778817,77.02261188739355,402.5613435151684,553.5389303642962,552.0649703818892,189.0,391.411131311342,497.5037022256845,0.7867501881097252,898.5076347826088,714.2393600000001,51.00330991079997,76.18293488609224,475.75698693176685,700.7228820832429,698.8120896373226,184.0,495.48590165364254,574.4008024541968,0.8626135261939385,base
1783770494369838558,1783770504369838558,1422.733204786325,1428.4787200000003,25.501654955399985,56.57140118038105,687.5546412361681,942.6586098479852,938.6045211622315,117.0,666.5602953673944,850.4771929279807,0.7837485836305541,1586.1315535238095,1638.5491200000001,34.00220660719997,59.65817521811316,1087.5508985555211,1455.1802804444746,1448.167829738944,105.0,1028.96784415123,1355.0448338520862,0.7593607373315517,862.7184385340316,714.2393600000001,95.20617850015994,77.1729536286737,381.2285528839773,574.6556385971381,573.1415624863052,191.0,406.34289889912225,456.19419475169974,0.8907235198823368,874.3351174736846,714.2393600000001,95.20617850015994,76.42828215391292,379.6818092634434,520.7636038785135,519.3978432209535,190.0,368.23547569764196,469.5933025395372,0.7841582784640301,876.4852221276598,714.2393600000001,95.20617850015994,76.50785694476164,398.60902845295743,582.2291981253318,580.6705226095097,188.0,411.698214199228,482.73243659506096,0.8528497009712652,base
1783770495369838558,1783770505369838558,1396.7033653781516,1428.4787200000003,178.5115846877999,57.76098572638782,662.6316968468828,923.2271387843748,919.5230382323359,119.0,652.8201704098852,815.5209647123504,0.8004946514650879,1528.6957915596333,1428.4787200000003,178.5115846877999,59.63966707568689,1042.885989583067,1435.1802657128935,1428.5816919749043,109.0,1014.825698110698,1288.5211584465242,0.787589471432661,858.5675208290156,714.2393600000001,95.20617850015994,77.24374867223307,365.3584726717717,551.2861263007487,549.8486546813211,193.0,389.81815828132295,437.0292082266107,0.8919727810942841,854.1419150515464,714.2393600000001,95.20617850015994,77.53608860691106,362.592166410167,517.3005355094836,515.9586841383847,194.0,365.7867165701882,442.7710438527308,0.8261306190832384,867.5577566492149,714.2393600000001,95.20617850015994,76.85950002062705,380.47195774499386,559.7290146602977,558.2541441266762,191.0,395.78818189316104,459.55813429583617,0.8612363754579441,base
1783770496369838558,1783770506369838558,1447.4763909565218,1428.4787200000003,46.06750572588384,55.167333716439906,714.1362354835946,990.3011033007492,985.9616108205242,115.0,700.2486255604795,880.2312519228626,0.7955280206545591,1541.6833244444445,1428.4787200000003,44.62789617194998,58.44658935245333,1037.8215882669892,1404.8212514942838,1398.253661122469,108.0,993.3586332865804,1288.7073410916619,0.7708178588050161,856.3075892783507,714.2393600000001,95.20617850015994,77.0719426315348,352.499401216047,527.2723386274027,525.9047543141373,194.0,372.83784617552607,423.092928261559,0.8812197540324642,839.0084460606062,714.2393600000001,95.20617850015994,77.98662289768149,327.7144472909473,496.9359163764395,495.673236571617,198.0,351.3867562849315,391.2252441755251,0.8981699456164953,860.7444161658032,714.2393600000001,95.20617850015994,77.02698278586304,366.3984703708876,540.1682805479337,538.7599336616843,193.0,381.95665415732134,442.21062329248105,0.8637437321461467,base
1783770497369838558,1783770507369838558,1455.013928421053,1428.4787200000003,38.59709939195673,56.46294871192009,763.3723075113903,1039.5418826163823,1034.9806045504754,114.0,735.0671145254738,946.2096640397023,0.7768543721982435,1577.3286034285713,1596.5350400000002,44.62789617194998,59.148810939113666,1085.821060749844,1470.970776477012,1463.9800460318058,105.0,1040.1334109741365,1347.989612579966,0.7716182686180998,861.6151743005182,714.2393600000001,95.20617850015994,76.81541988414445,357.7657615398671,537.2602367599463,535.8596971494625,193.0,379.90035667484807,428.7546381784852,0.8860553865698364,839.8572153535356,714.2393600000001,95.20617850015994,77.82543766660875,321.89587185369237,485.4302237267066,484.19702253217196,198.0,343.2510029900571,385.12761405287125,0.8912656233030716,857.1738589690724,714.2393600000001,95.20617850015994,77.10209413500489,359.47307818392346,533.5036299653967,532.1201019813029,194.0,377.2440345361706,432.7646670899631,0.8717071037080509,base
1783770498369838558,1783770508369838558,1476.5488836036043,1428.4787200000003,57.12370710009596,54.76539034764142,737.2754850000033,1030.7964548436642,1026.108920387646,111.0,728.8831632430077,906.374618319828,0.804174287883479,1562.1966092307694,1512.5068800000004,36.61776096159998,59.748336788060705,1041.261514735132,1469.9157944339995,1462.7631045683383,104.0,1039.3874260174923,1276.043875991484,0.8145389399011771,855.0081847422683,714.2393600000001,62.090985978365175,76.88698144766538,332.063234712185,498.8127840275559,497.5218926597646,194.0,352.71390212842556,397.9050581705503,0.8864272893390692,850.6235273846155,714.2393600000001,62.090985978365175,77.35889266787494,336.52095475890604,505.09030636237907,503.7898244551614,195.0,357.152780740429,403.3778025479103,0.8854051424855214,867.9976946596862,714.2393600000001,68.00441321439995,76.27831241320713,358.66914315405444,528.6020702162995,527.2108464067534,191.0,373.7781083991929,432.93425752934803,0.8633599718632915,base
1783770499369838558,1783770509369838558,1473.8390541592923,1428.4787200000003,57.12370710009596,54.78940825112209,723.4508956577444,986.3458004280947,981.9928573573977,113.0,697.4518040775788,896.4055373269681,0.7780538774418346,1571.1680483018868,1491.4998400000002,22.66813773813332,59.73329111544783,1064.6464233025713,1499.8834294378066,1492.7377694688803,106.0,1060.5777439448077,1305.5770516619793,0.812344045565682,839.8572153535356,714.2393600000001,44.62789617194998,77.64289111425543,312.8329063145843,469.17535605950565,467.98304064773663,198.0,331.75707583528936,375.09662203633343,0.8844576472969516,844.1204499492388,714.2393600000001,44.62789617194998,77.56338865920571,324.5578360628962,485.9571151872227,484.7158433894179,197.0,343.62357151473736,389.4059558473492,0.8824301897668998,852.7780955897438,714.2393600000001,44.62789617194998,77.03813469669055,341.28066100455976,503.1702270845683,501.8717211080157,195.0,355.7950796626733,411.8857970303594,0.8638197340814067,base
1783770500369838558,1783770510369838558,1452.4341164912287,1407.47168,84.00545161778817,56.908675178840234,744.595654041501,1056.5722212176474,1051.986674446906,114.0,747.1093824363315,910.9111709561931,0.8201780878942158,1537.0811532075475,1491.4998400000002,59.503861562599965,59.715035737488094,994.4352487153468,1432.305760095392,1425.4745553288308,106.0,1012.7931156960041,1210.3420922096768,0.8367825280264236,847.3553991836735,714.2393600000001,89.25579234389996,77.31129932960347,324.01020740469363,492.71411374557056,491.4491675815266,196.0,348.40149101581284,386.35919755305997,0.9017553955551058,843.0541027411168,714.2393600000001,89.25579234389996,77.68737617284924,327.7304639482591,492.755165761929,491.49657656604154,197.0,348.4305191749613,392.5717777085049,0.8875587573024171,847.3553991836737,714.2393600000001,89.25579234389996,77.22861189052271,329.85246911599694,494.57574935544966,493.30602345347137,196.0,349.7178661796567,395.5426775977698,0.8841469858665602,base
1783770501369838558,1783770511369838558,1507.5415796363638,1428.4787200000003,12.205920320533327,55.12782077541754,811.7704997756427,1085.456085500684,1080.9504733552412,110.0,767.5333587377385,1011.6268878516311,0.7587119005582499,1527.539440733945,1554.52096,44.62789617194998,59.85459119129603,985.95631993359,1417.7229277223423,1411.1596281343016,109.0,1002.4814960361139,1200.7227634581484,0.8348983849934779,855.5790342564105,714.2393600000001,44.62789617194998,77.03918019867147,341.3393101478432,511.4260213252697,510.11655368650196,195.0,361.6328077543541,409.43363990060976,0.8832513318694102,842.6157155555557,714.2393600000001,44.62789617194998,77.65479478672523,320.98167677056114,485.3829450325644,484.160010070527,198.0,343.21757190482356,383.61350707810146,0.8946962647875338,859.9892354639177,714.2393600000001,84.00545161778817,77.05225806058073,381.0339674248637,557.7589999442976,556.3121518523193,194.0,394.39517112844,461.0856679168725,0.8553620261290448,base
1783770502369838558,1783770512369838558,1606.3247285436896,1638.5491200000001,40.80264792863997,51.234159496178556,802.2078099870879,1161.7389582253363,1156.0348291731407,103.0,821.4734953297306,974.5077675647008,0.8429624910867529,1558.4475095327102,1596.5350400000002,22.31394808597499,58.94172392157059,959.7101444517747,1392.29237099437,1385.725773621319,107.0,984.4993769244155,1165.1041203021348,0.8449883231630106,868.0721633333336,714.2393600000001,84.00545161778817,76.80968045659911,379.32237502049543,580.7261331722386,579.2039126427333,192.0,410.635386778332,451.06564704606313,0.9103672369365731,837.5369616080404,714.2393600000001,84.00545161778817,77.82255995970814,311.2720241972868,472.9728678159551,471.77698001644006,199.0,334.4423221499104,371.2879107555757,0.9007627570456468,850.3564048979595,714.2393600000001,84.00545161778817,77.02036601899316,330.2129547018873,469.9059955344197,468.69955966566465,196.0,332.27371596260366,403.58181295259436,0.8233119166884592,base
1783770503369838558,1783770513369838558,1516.7082880000003,1491.4998400000002,19.834620520866654,56.155892078426504,787.3279350473392,1127.2576363539051,1122.3459544198263,110.0,797.0915188101654,960.2567937443954,0.8300816240018586,1592.533699047619,1596.5350400000002,34.831528719570706,58.311564488910065,1094.5163122492063,1525.754056429101,1518.4595049659158,105.0,1078.8710397238995,1346.8298167852315,0.8010448137382888,864.6055410526319,714.2393600000001,84.00545161778817,76.94796785399899,375.490922117651,572.0114610548422,570.4963694826288,190.0,404.4731830283037,447.4232753120962,0.9040056817477073,842.4361682051284,714.2393600000001,84.00545161778817,77.58406244466907,325.0968099773158,472.739976663824,471.520050231005,195.0,334.27764323696016,394.3413500139514,0.8476860040803069,861.0720725773198,714.2393600000001,29.144748520457124,76.50941495251291,343.65390570544866,484.498644627887,483.2920429600302,194.0,342.59227709207016,421.32087492984954,0.8131386253983077,base
1783770504369838558,1783770514369838558,1561.6554264150946,1533.51392,30.384950585157426,52.15241853483513,769.966453789632,1100.3054311668322,1095.1480863271618,106.0,778.033431754455,939.6960516352914,0.8279628613959743,1650.8562747474753,1596.5350400000002,35.70231693755998,54.69084842515065,1132.9542231264215,1570.5173247734576,1562.495463193262,99.0,1110.5234503182674,1396.617118807654,0.795152397434713,872.5146243386246,714.2393600000001,79.33848208346662,76.43091284145937,380.59871955505497,560.6892812450507,559.1960980847251,189.0,396.46719290698667,459.47541079814255,0.8628692277967477,858.8815833333334,714.2393600000001,79.33848208346662,77.14733624865345,377.44627879395085,553.2138431730342,551.7637388619289,192.0,391.18125995392376,456.53039075315905,0.8568569976438462,867.9224421052635,714.2393600000001,79.33848208346662,75.99015675286239,338.062682432807,480.0523549984654,478.7806908970653,190.0,339.4482755439867,413.4733227457809,0.8209677792264543,base
1783770505369838558,1783770515369838558,1530.6230429357802,1470.4928000000002,49.244575086289615,53.92624031332562,787.6393374206075,1111.0690672554313,1106.0457221516097,109.0,785.6444718229276,965.4702655451299,0.8137427944291293,1765.9466529032259,1638.5491200000001,12.637988296481408,53.022590975318344,1235.507363519538,1716.5414378768462,1707.2494643261182,93.0,1213.7780909104247,1521.9488373907063,0.7975156990108665,900.5626713043479,714.2393600000001,37.58138625006313,75.55775894430225,438.64226312988205,653.8126293665213,652.0416338560563,184.0,462.31534385047405,527.2061564773484,0.8769156774259665,881.4017634042555,714.2393600000001,36.61776096159998,76.6542324118648,437.6587048966101,648.3037533971526,646.5868902783725,188.0,458.4199802958178,527.2720785100868,0.8694182737519036,885.4243880851064,714.2393600000001,79.33848208346662,75.18705416236222,365.30198335517235,511.8932606532936,510.5227768135931,188.0,361.96319585163684,448.7565047003553,0.8065915302850656,base
1783770506369838558,1783770516369838558,1444.4150951724137,1407.47168,178.5115846877999,56.622677440310916,688.5953777701511,1005.9513066350821,1001.64061543111,116.0,711.3149904651347,833.8721009499161,0.8530264889001935,1761.4626519148937,1680.5632,35.70231693755998,53.54856057809036,1218.3731030882648,1723.4124582350491,1714.1217573545748,94.0,1218.6366359993808,1492.0886070732902,0.8167320829489602,902.507859027027,714.2393600000001,84.00545161778817,75.39578540901888,433.9363227888655,633.7402160548224,632.0276700604771,185.0,448.12200428299263,525.542385645289,0.8526848005470854,874.156826806283,714.2393600000001,84.00545161778817,77.0054685155488,432.70994780681576,632.227015276994,630.5722702352359,191.0,447.05200975169345,523.9733277089973,0.8531961191734092,878.7576522105267,714.2393600000001,84.00545161778817,75.7732818108334,369.0221524598108,516.6909707414637,515.3361068958422,190.0,365.35568918914896,453.44493403356563,0.8057333135010921,base
1783770507369838558,1783770517369838558,1410.88307965812,1386.4646400000001,119.00772312519993,58.63070200106271,684.8343772479583,1021.4885818133512,1017.195317960481,117.0,722.3015031048501,822.8830523394165,0.87776932706462,1842.5508195555558,1680.5632,44.62789617194998,50.51498055983419,1243.4643110683,1779.1185492275347,1769.0983525747627,90.0,1258.0267906935621,1516.9348314116041,0.8293215797035185,927.5775217777781,714.2393600000001,64.91330352283632,74.41235371137131,467.8796740282002,673.04150879589,671.160882571182,180.0,475.91221488959917,569.7162105793618,0.8353496110030457,888.1061378723407,714.2393600000001,64.91330352283632,76.28692528162232,443.91712977355894,639.3217195876582,637.6119513988112,188.0,452.06872328027754,540.316361892419,0.8366741323489437,907.4127930434785,714.2393600000001,64.91330352283632,74.07677110134426,385.6691205389121,531.9217111144472,530.4688166440193,184.0,376.1254489893774,476.1787105549611,0.7898829591751867,base
1783770508369838558,1783770518369838558,1386.8147573333335,1344.45056,37.58138625006313,59.649113162796446,683.657574744561,1029.4062337217745,1025.101299746983,120.0,727.9001284603708,818.4473474237166,0.8893670811587727,1871.7508674157307,1680.5632,15.867696416693324,49.36010235825418,1241.8407926965244,1726.9931261916477,1717.5160445105932,89.0,1221.1685505926691,1529.2844059663867,0.7985228554141879,942.5870716384181,714.2393600000001,84.00545161778817,74.07496907128505,494.44195593082713,712.549737102514,710.5225644682022,177.0,503.8487510378793,601.6759207481953,0.8374088669051837,916.6918224175827,714.2393600000001,84.00545161778817,75.35240530862467,486.9194575410797,716.4054299430658,714.4236683874454,182.0,506.57513759160594,588.1087750163412,0.8613629979888164,926.8772871111112,714.2393600000001,84.00545161778817,73.58198195263974,422.85855673275904,599.1218335180376,597.4459649667152,180.0,423.6431112375222,517.5731592294177,0.8185183170399677,base
1783770509369838558,1783770519369838558,1393.172770420168,1344.45056,178.5115846877999,59.98429064955665,717.9157269094432,1064.4600561745951,1059.9429658027552,119.0,752.6869240232695,864.6023242450964,0.870558524903871,1841.0664269662923,1680.5632,17.630773796325915,50.0996586375566,1211.7978944936788,1622.40594947969,1613.5378496136534,89.0,1147.214248714488,1509.588688342574,0.7599515401602879,964.6238483236997,714.2393600000001,84.00545161778817,73.30476265477897,522.7444660047789,753.9841687638962,751.7891592482383,173.0,533.1473186402533,635.9249340846741,0.8383809001099242,927.1106986666668,714.2393600000001,84.00545161778817,75.28804599683984,514.3467690142693,752.2169740970224,750.1128665513872,180.0,531.8977233076301,622.6135266446722,0.8542983737826597,916.9226690109894,714.2393600000001,84.00545161778817,74.20682089302515,419.7968125427133,592.8138880621153,591.1740124778493,182.0,419.1827202302847,514.3944509539477,0.8149052141851603,base
1783770510369838558,1783770520369838558,1379.8673877685953,1302.43648,95.20617850015994,60.382799173796045,736.2062606265314,1018.6220281154956,1014.3884672434101,121.0,720.274543546461,908.0757718003873,0.7931877117681666,1861.6905671111117,1680.5632,89.25579234389996,48.614387765714156,1232.7166016977737,1752.8329858823622,1743.1050763600883,90.0,1239.4400906048822,1507.0084840847103,0.8224506389276652,951.9190125714289,714.2393600000001,95.20617850015994,74.09743666705836,520.8498411570145,720.2637591561654,718.1912157544789,175.0,509.3033883422388,642.5528331414715,0.7926249205878219,937.5276728089889,714.2393600000001,64.91330352283632,75.17987871834517,533.5606114802553,769.1460181485473,766.9711300364576,178.0,543.8683651554692,649.2129488372259,0.8377349313958782,911.9121626229511,714.2393600000001,64.91330352283632,74.63835648973347,428.7108970440736,606.6985945288444,605.030645320367,183.0,429.0006903276935,524.9431115252869,0.8172327265733217,base
1783770511369838558,1783770521369838558,1369.1034499173554,1302.43648,59.503861562599965,60.35667694759038,711.4260724531614,1013.2306344757185,1009.0087550729754,121.0,716.4622525437286,869.2496956986784,0.8242306624770878,1857.1167496629216,1680.5632,31.045492989182588,50.53636530830208,1256.6638529537631,1754.8706366014706,1744.8723374025599,89.0,1240.8809272460533,1545.4822356920452,0.8029085670405033,923.8429368888891,714.2393600000001,21.314816082125358,74.8249234203796,474.6704831152022,656.4020357866812,654.6711400664415,180.0,464.1463306894171,585.5836634806457,0.7926217202347855,929.0040706145254,714.2393600000001,29.144748520457124,75.2397073107058,517.7714824718515,746.3567797174281,744.2582547748469,179.0,527.7539401227477,630.0099248937713,0.8376914700379278,894.0415518279573,714.2393600000001,84.00545161778817,75.10785529892406,391.8625301093398,550.9351406846685,549.4488025890798,186.0,389.56997397209363,480.8639128662886,0.8101459967124199,base
1783770512369838558,1783770522369838558,1340.3846812903228,1302.43648,35.70231693755998,62.031259080878336,706.5611986228163,1018.7157073915922,1014.6020722981235,124.0,720.3407847978456,859.6580899852182,0.8379387028280415,1735.7066800000002,1680.5632,142.8092677502399,52.678027347463,1091.4524870625967,1514.2188591940119,1507.14734575553,96.0,1070.7144235366438,1345.1105436526589,0.7960047808629244,901.121661202186,714.2393600000001,89.25579234389996,76.0017802506509,452.7975013873648,632.2351063299245,630.4958465156097,183.0,447.0577309900875,556.8849496137227,0.8027829290415989,894.2674339784946,714.2393600000001,84.00545161778817,76.78287523628593,487.5424114328772,702.3459292406909,700.4534085211585,186.0,496.6335693048596,593.3571899044684,0.8369892162001416,867.1178186387436,714.2393600000001,89.25579234389996,76.60996615488762,366.6261242473784,530.8164529480161,529.4177708655924,191.0,375.3439134449321,445.407569851737,0.8426976523319373,base
1783770513369838558,1783770523369838558,1314.676802519685,1260.4224000000002,142.8092677502399,63.14164591746242,712.3363887508916,994.8841882923563,990.9531112451086,127.0,703.4893560367991,876.0123426349584,0.8030587262284146,1689.9949322448983,1638.5491200000001,142.8092677502399,54.055143120129095,1054.4506518853536,1516.5914560740775,1508.8388333293503,98.0,1072.3921028795603,1284.0248998223017,0.8351801456716068,894.0415518279573,714.2393600000001,89.25579234389996,75.99003103449411,429.5894896648744,594.0153680419917,592.4077892256716,186.0,420.03229487151515,529.9817873224878,0.7925409984247824,870.6373227225133,714.2393600000001,89.25579234389996,77.65506779865837,444.5965013307418,642.3647500187942,640.6721244995439,191.0,454.2204707334908,540.5312016659127,0.8403223890380186,866.1027533333335,714.2393600000001,89.25579234389996,76.78996852906987,376.07395963270335,540.5291602204129,539.123793586157,192.0,382.2118346209238,458.06146199554286,0.8344116812530343,base
1783770514369838558,1783770524369838558,1242.7322610526317,1176.39424,178.5115846877999,65.71929308002157,657.6489874801158,927.5226226844871,924.0203615270811,133.0,655.8575362041323,806.1822545611915,0.8135350691403129,1571.9607667924531,1428.4787200000003,89.25579234389996,54.75521378077599,920.4982251901979,1336.8262735564622,1330.460608367452,106.0,945.2789233001171,1117.075576556436,0.8462085673863629,863.695696666667,714.2393600000001,89.25579234389996,77.48040892012436,401.714334733053,555.9277450134229,554.47052692379,192.0,393.10027834873716,495.4643267089079,0.7933977425981044,849.7133322448983,714.2393600000001,89.25579234389996,78.39248772089769,397.1941593551872,565.8610035868841,564.408254114756,196.0,400.12415284531096,485.25944772529556,0.8245571615780688,854.0708365128208,714.2393600000001,89.25579234389996,77.41018472004679,362.6125797409471,515.8345395924822,514.5033970439912,195.0,364.75010091608476,443.23182186483683,0.8229330181696994,base
1783770515369838558,1783770525369838558,1247.6908606060606,1155.3872000000001,84.00545161778817,65.47641558948112,670.457791597652,967.5534784187823,963.901473295278,132.0,684.1636257505529,815.4675758286958,0.8389832361578461,1474.994308571429,1407.47168,38.59709939195673,58.02723704662075,845.7776360670586,1190.9996537450063,1185.6313528566357,112.0,842.1639315539239,1037.332914515481,0.8118550175835143,838.3718690909093,714.2393600000001,95.20617850015994,78.47333678130546,357.08631945160164,498.75896093642496,497.50467564428016,198.0,352.6758434557024,439.1254419871241,0.8031323392691136,821.7704459405942,714.2393600000001,95.20617850015994,79.43673915604154,341.7583814963016,497.80905400818176,496.5693549457677,202.0,352.00415782524556,414.2995523565202,0.8496368287705337,829.9881504000001,714.2393600000001,95.20617850015994,79.00143247465677,331.0737555778819,477.8374400167776,476.64884457048373,200.0,337.8820941406836,402.6630210168787,0.8391187581303136,base
1783770516369838558,1783770526369838558,1299.15413,1176.39424,26.94514485853583,63.18914726908412,719.3219173075931,989.8806017042339,986.043716109713,128.0,699.9512860300837,888.7531378456898,0.7875654737228203,1462.3130676106198,1386.4646400000001,36.61776096159998,58.244946757384504,890.790828887962,1324.1383367151468,1318.2171666760455,113.0,936.3071971203562,1071.765374497663,0.8736120977589931,843.9071805076145,714.2393600000001,44.62789617194998,78.37590096397432,379.5475395117452,534.0906483284236,532.7271199071761,197.0,377.659119201348,465.6172938593138,0.8110934112242353,828.0975168000001,714.2393600000001,40.80264792863997,78.83450235558259,338.3376691358157,491.6965112508247,490.4617635526305,200.0,347.6819373912257,410.4916465879121,0.8469890685504244,825.3666016000002,714.2393600000001,44.62789617194998,79.45317510323989,338.76493631907175,502.75119592707193,501.49641040935506,200.0,355.4987798896791,407.8402541522897,0.8716618241340494,base
1783770517369838558,1783770527369838558,1319.108733968254,1176.39424,37.58138625006313,63.67253522065384,836.5437699696696,1166.6243131599056,1161.9608902662374,126.0,824.9279629324676,1029.2511288000512,0.8014836611296282,1382.963466666667,1386.4646400000001,158.67696416693323,62.46519081225606,824.0353292872832,1186.7374174225451,1181.7661321940263,120.0,839.1500753472922,1002.9865519285487,0.8366513725769994,833.9794880000002,714.2393600000001,31.735392833386648,78.87215302605765,365.17275736408754,507.13784205452095,505.88145062064166,200.0,358.60060711306403,449.8945295631549,0.7970770559518988,817.6269490196081,714.2393600000001,79.33848208346662,79.37210492984053,324.72663354806156,465.645864519978,464.60376021154053,204.0,329.2613484335488,395.8386733061522,0.8318069219550189,813.638524878049,714.2393600000001,79.33848208346662,80.18832221156765,331.1533125446827,474.792399456574,473.7304197807859,205.0,335.72892531157555,403.69304821014674,0.8316440592675459,base
1783770518369838558,1783770528369838558,1276.4583083969467,1092.3660800000002,29.751930781299983,66.64953540273142,849.609597654351,1142.3634526822707,1138.0310659720076,131.0,807.7729439713113,1057.0829543355321,0.764152842176011,1359.8215648780492,1344.45056,31.045492989182588,62.78041273231931,772.3495584041508,1092.526106487143,1088.0395453386147,123.0,772.5326185203949,945.8564147877755,0.8167546431386525,823.4343699009903,714.2393600000001,95.20617850015994,78.84922073887661,316.9157130018538,451.3726141270737,450.2485907326262,202.0,319.16863629115267,387.21677275005754,0.82426345848704,799.2726415311007,714.2393600000001,84.00545161778817,80.03553217212185,278.67283114819014,414.8095478497608,413.81120814035023,209.0,293.31464418549155,335.1124488786781,0.8752723008857282,807.445353009709,714.2393600000001,95.20617850015994,80.28699944199056,306.76903223390553,450.3393208441395,449.23977647804577,206.0,318.4379876038353,370.8275910728107,0.8587224771559976,base
1783770519369838558,1783770529369838558,1272.6096903816795,1134.3801600000002,32.45665176141816,65.98828397996125,814.5913728213535,1127.588341019167,1123.2655933937647,131.0,797.3253623215422,1004.6165152183023,0.7936614123333261,1319.5782246400004,1134.3801600000002,35.70231693755998,65.30481658846536,768.4301464883487,1093.87559740963,1089.4888090741915,125.0,773.4868527028352,939.0574127347812,0.8236843053613079,845.6133360406094,714.2393600000001,84.00545161778817,78.09147229599519,365.5050933395926,497.4083783555568,496.13804202298485,197.0,351.72083735421813,453.13813876101005,0.7761889968385987,812.6137912195124,714.2393600000001,84.00545161778817,79.8431642313829,339.5970084869889,508.51360237451837,507.2658815863972,205.0,359.5734165646216,407.4380141771832,0.8825229950395678,828.7852099502489,714.2393600000001,84.00545161778817,79.55891290131284,358.79569552529694,498.48916949216306,497.2415623806736,201.0,352.48507209595874,441.97945566475886,0.7975146074737882,base
1783770520369838558,1783770530369838558,1248.2351096183206,1176.39424,34.831528719570706,66.67638648844294,773.6049314618581,1100.8822124992178,1096.6399236765333,131.0,778.4412777458467,945.485995938025,0.823323963644272,1380.8627626666669,1344.45056,34.00220660719997,61.78133839531713,781.5247781465858,1084.8135204849434,1080.2473067126264,120.0,767.0789966577552,962.9936989188486,0.7965566104107986,851.9162683076926,714.2393600000001,95.20617850015994,78.01491515818326,377.754114490676,506.0880447630261,504.7821947503399,195.0,357.85828832937676,470.4944896236871,0.760600381559411,814.3317270588237,714.2393600000001,95.20617850015994,79.27947065681384,311.1543588757928,421.5940153021928,420.5545281160052,204.0,298.1119871278456,386.2624647311138,0.7717860634876035,847.5697567346941,714.2393600000001,95.20617850015994,78.83925753339983,389.25182545766444,518.1422553586356,516.8121574430253,196.0,366.38190238338296,485.71197025316843,0.7543192773124638,base
1783770521369838558,1783770531369838558,1274.2132812213742,1176.39424,35.70231693755998,65.04808637777276,789.0192037172466,1086.581076705401,1082.3950570380562,131.0,768.3288476473692,974.6476279177149,0.7883144899135134,1322.1097396825396,1218.40832,37.58138625006313,65.79118043986082,747.2118600769409,1057.3033349637394,1053.070993123977,126.0,747.6263579240118,914.974612843396,0.8171006576900216,861.2886400000001,714.2393600000001,17.001103303599987,77.63036877871936,406.2230480654551,501.772078995522,500.6829460521282,194.0,354.80643966780565,516.8080153638351,0.6865343205213649,843.8888694949497,714.2393600000001,84.00545161778817,78.2703794333466,381.5536019899754,495.3386978989726,494.0798935821585,198.0,350.2573522684782,479.40191486266167,0.7306131690542358,856.8717751794874,714.2393600000001,43.27553568189088,77.85017031194069,370.42750772285507,470.2928994809772,469.0920364207384,195.0,332.54729836688233,468.1230865167575,0.7103843154613954,base
1783770522369838558,1783770532369838558,1278.8035600000003,1176.39424,32.45665176141816,65.6107230667914,802.1625583466226,1090.0176250141924,1085.7359304141953,128.0,770.7588542603906,994.9346382129845,0.7746829034365121,1356.747363902439,1344.45056,95.20617850015994,65.4438381048476,775.4617095156126,1070.0900174924777,1065.695601299817,123.0,756.6679078489622,957.2923087884337,0.7904251406831155,855.2247521649487,714.2393600000001,84.00545161778817,77.58309517324051,377.00587775932325,492.88264234365255,491.60408599455667,194.0,348.5206587303405,472.7933364052843,0.7371522225338308,864.9181285863876,714.2393600000001,84.00545161778817,77.52025381115968,426.57414748871633,557.0108211994918,555.5432454820825,191.0,393.86612886444817,535.1315192344001,0.7360174362892006,870.8572917277489,714.2393600000001,52.89232138897774,77.16557830748566,382.76457906081276,495.37868865072045,494.0804662775744,191.0,350.2856300002239,481.31843375760656,0.7277627562808633,base
1783770523369838558,1783770533369838558,1309.3294150000002,1176.39424,64.91330352283632,62.11506753526607,779.9542683332538,1086.6697355377091,1082.395995421333,128.0,768.3915389089063,959.9190293192046,0.8004753686921555,1374.7557980327872,1365.4576000000002,158.67696416693323,65.90871339550976,809.6945977852139,1130.8085274231871,1126.1843636387114,122.0,799.6023779645095,995.7553424119146,0.8030108842074759,893.0800427807488,714.2393600000001,84.00545161778817,76.13927110139814,449.83069583341353,574.459164735394,572.912838472309,187.0,406.2039708991571,567.6217726980038,0.7156243654439114,897.881548387097,714.2393600000001,84.00545161778817,76.15669210864603,473.7204605155264,621.6744527819277,619.9919748585875,186.0,439.5902212525372,593.466400153924,0.7407162749879743,897.8815483870969,714.2393600000001,84.00545161778817,75.59111123385611,420.2702654693143,537.596809254991,536.141876115657,186.0,380.13834936845495,530.095849582893,0.7171124800685905,base
1783770524369838558,1783770534369838558,1324.777300317461,1239.4153600000002,47.60308925007997,62.03038370954074,786.1675100085859,1078.8828781937377,1074.5818625230054,126.0,762.885399276852,972.1736683182172,0.7847213148619657,1391.8054128813558,1344.45056,43.27553568189088,65.83277944633255,835.014167020958,1178.6134923726606,1173.5693900106173,118.0,833.4055928546676,1023.3351734161631,0.8144013950703362,912.3713328961752,714.2393600000001,79.33848208346662,75.34315136040742,470.9197389901722,618.4015577267197,616.7003554597276,183.0,437.27593496488777,589.8522522559657,0.7413312965958336,937.9997411235955,714.2393600000001,79.33848208346662,74.46400383047798,514.905324977836,699.8915863176418,697.9117313834674,178.0,494.89808678061434,638.5866654037693,0.7749896977064143,922.452784088398,714.2393600000001,79.33848208346662,74.56058628492873,451.3081298902217,598.9543009414654,597.2882673796344,181.0,423.5246478165583,563.6235379718883,0.7514317967282664,base
1783770525369838558,1783770535369838558,1344.45056,1260.4224000000002,34.831528719570706,61.25654785163376,791.9713911974711,1087.1991410293363,1082.7607454855865,123.0,768.7658851220334,979.2532235774279,0.785053208519,1454.7831874782612,1386.4646400000001,57.12370710009596,64.0825316857083,881.8122429479296,1264.558099325736,1259.0211517624584,115.0,894.1776072375997,1074.8994683146593,0.8318709177887915,948.8975454545456,714.2393600000001,84.00545161778817,73.82660355731777,520.2647247489664,703.6049296075819,701.6081803410578,176.0,497.5238170018046,646.2087846773773,0.7699118749216566,976.6430877192986,714.2393600000001,84.00545161778817,72.71655521428825,550.2144808441808,756.7894547995385,754.5765096083389,171.0,535.1309554192238,679.9186570004658,0.7870514360938579,934.7539380790962,714.2393600000001,84.00545161778817,73.67436093723308,451.3632778932347,578.3223777356321,576.6770760297848,177.0,408.93567500879345,569.0724243131115,0.7186004057434198,base
1783770526369838558,1783770536369838558,1340.3846812903225,1302.43648,28.56185355004798,61.12328303896002,690.7237950573067,976.5904078896771,972.7036523323569,124.0,690.5536998605271,846.0298552185999,0.8162285238528605,1457.9622849122807,1428.4787200000003,43.27553568189088,64.51922025108995,866.8352620768261,1196.0435114129634,1190.7604780076563,114.0,845.7304775142763,1070.1293019356756,0.7903068124426634,953.4524744508675,714.2393600000001,84.00545161778817,74.05044313276855,548.5338791020832,755.8438351170029,753.6434117140114,173.0,534.4623013292795,677.4613326784511,0.7889192719179969,980.245665325444,714.2393600000001,84.00545161778817,72.87228865775425,566.7586953925297,777.9554177032555,775.6366184539132,169.0,550.0975513187851,700.8046658111109,0.7849513254625703,930.6826822471911,714.2393600000001,84.00545161778817,73.94787878652997,455.1085761318719,583.0077240023697,581.3584767830577,178.0,412.24871512621075,573.8232572630303,0.7184245495599411,base
1783770527369838558,1783770537369838558,1249.9978538345865,1176.39424,47.60308925007997,64.8736094550367,631.385778523951,826.8505451544568,823.7347803106832,133.0,584.67162750651,791.4389089746825,0.7387451145963475,1508.3054720000005,1428.4787200000003,16.045985140476393,65.01013197853122,978.5548670708524,1381.25473350654,1375.199939401022,110.0,976.6945886084922,1199.238548424604,0.8144289473445798,979.4223472941179,714.2393600000001,84.00545161778817,73.50040501352827,601.3545068582749,832.8020287447033,830.334498970524,170.0,588.8799619112938,741.5286110914362,0.7941432779573225,1009.1018123636368,714.2393600000001,84.00545161778817,71.9903232235481,605.0019109932564,840.1848969840685,837.6194801045154,165.0,594.1004381079557,745.3703504506681,0.7970540252221582,951.4388516571432,714.2393600000001,84.00545161778817,73.11067674343813,482.01134933361817,634.2676108440626,632.460813680736,175.0,448.4949287148268,603.4037050195928,0.7432750660691816,base
1783770528369838558,1783770538369838558,1278.1975876923077,1239.4153600000002,20.401323964319985,63.73194482902372,647.1235267128334,852.4041161942866,849.1747449650306,130.0,602.7407308723059,809.870065704536,0.7442437452580241,1447.8417307826087,1428.4787200000003,102.00661982159994,67.26434410902938,948.9141075662722,1347.0510947335654,1341.1641934129775,115.0,952.5089636908666,1160.706381528449,0.8206286954643754,978.4337807058826,714.2393600000001,64.91330352283632,73.50718093493518,594.3522824527791,826.7484475878899,824.2997543932664,170.0,584.599433624848,731.8681728401706,0.798776959184036,1002.0104983132533,714.2393600000001,37.58138625006313,71.97714739348068,588.4447412409475,807.6662165237792,805.2327782847758,166.0,571.1062586392467,727.6353809840421,0.7848797262536794,950.4785298285716,714.2393600000001,62.090985978365175,73.1619495560211,483.2837745612059,638.4212447843317,636.5857061071562,175.0,451.43199144055774,604.3434388328039,0.7469792214712034,base
1783770529369838558,1783770539369838558,1247.7865864661658,1176.39424,29.144748520457124,64.92323853711531,640.3151164644862,843.0533666280112,839.8756841386821,133.0,596.1287524448153,801.4500308816209,0.7438127512317323,1394.2319489075628,1344.45056,34.831528719570706,68.7056045956628,928.0885850694285,1317.2653407064429,1311.712472607762,119.0,931.4472550355337,1135.2972513908999,0.8204435040200959,980.9914773964497,714.2393600000001,84.00545161778817,73.20919338568825,587.3963278360698,817.7651407402199,815.3278367495192,169.0,578.2472764353809,723.1071397504876,0.7996702627426808,991.0821371428574,714.2393600000001,44.62789617194998,72.13591045684333,561.862382824337,767.7221264650265,765.4294085635139,168.0,542.8615216903764,695.7221849273518,0.7802849089066533,940.6881301694916,714.2393600000001,84.00545161778817,73.4521944992142,469.7541310318657,641.2935050917113,639.4690533006403,177.0,453.4629861812388,581.8277643124324,0.7793766712338195,base
1783770530369838558,1783770540369838558,1204.4036266666667,1092.3660800000002,102.00661982159994,67.8966085754124,621.8931965401225,813.4431098595848,810.5051641238813,138.0,575.1911390911861,779.7947631019811,0.7376186226271988,1420.5786365811969,1386.4646400000001,79.33848208346662,69.16949620852692,960.8428692876772,1372.320178640832,1366.3934020663278,117.0,970.3769042760665,1172.8692897103886,0.8273529819470995,960.1087394082841,714.2393600000001,84.00545161778817,73.9679105754447,563.857898615138,802.6128107078023,800.239430321302,169.0,567.5329611186818,689.075198133911,0.8236154234771784,977.4601021686749,714.2393600000001,84.00545161778817,73.10228382845676,570.397726169039,802.9213952032208,800.6026872369334,166.0,567.7511633079613,699.6688075931698,0.8114570167291014,927.1907254857144,714.2393600000001,84.00545161778817,74.04880496114775,457.55718550584004,657.486412515105,655.6158824513128,175.0,464.91310082744644,557.3554165481446,0.8341411728027712,base
1783770531369838558,1783770541369838558,1211.0481891970803,1134.3801600000002,43.27553568189088,69.10352529816508,645.3902686442324,871.2816536530406,868.0733817396562,137.0,616.0891656214939,802.0438066111194,0.7681490219650958,1360.2919344262295,1323.44352,142.8092677502399,68.96627990417153,880.4390200956065,1249.5584982485382,1244.482414731843,122.0,883.5712876008199,1077.0313951215803,0.8203765383283728,964.6653894736844,714.2393600000001,84.00545161778817,73.77955516997974,567.4786862538592,806.2179742742103,803.5439437759155,152.0,570.0821967237756,693.9504760385349,0.8215027100754075,964.6653894736844,714.2393600000001,84.00545161778817,73.24295518561304,529.8078757317389,753.134855828076,750.6368892258972,152.0,532.5467637039853,647.7574720595366,0.8221391287247676,910.7399950310561,714.2393600000001,84.00545161778817,74.65002626212639,433.82468528516966,635.4652802806021,633.4763386874375,161.0,449.3418088950238,524.8368170346159,0.8561552740027901,base
1783770532369838558,1783770542369838558,1242.8642770149254,1176.39424,43.27553568189088,67.5449082027639,674.2616653790294,905.4414975495525,902.0511277657843,134.0,640.2438228849913,839.2267336234055,0.762897316343469,1386.1085884745764,1386.4646400000001,34.831528719570706,65.16838669621735,837.7370762744575,1205.6123730277436,1200.4826945845643,118.0,852.496684450323,1019.9174081416377,0.8358487438739111,963.8341167407411,714.2393600000001,84.00545161778817,73.74111368826594,561.2602256455494,821.7392910864985,818.6673577502793,135.0,581.0574250946894,679.1260679391941,0.855595820166212,942.8812011594205,714.2393600000001,84.00545161778817,74.33225365329727,521.1837329500769,768.7982396682146,765.9872677712239,138.0,543.6224486336752,628.8897229676421,0.8644161746965705,909.9133269930073,714.2393600000001,84.00545161778817,74.47787071531822,424.73442263659314,618.3900248566683,616.2087481307932,143.0,437.2677799942678,514.9729156318053,0.849108305934491,base
1783770533369838558,1783770543369838558,1220.5708094117647,1176.39424,129.82660704567263,68.89266105663174,666.0174311837832,869.1702456999776,866.0216702775604,136.0,614.5961747400318,835.6399992094389,0.7354796028450927,1351.6236956097566,1344.45056,84.00545161778817,66.31392414728894,817.5147067501114,1177.7179467117294,1172.9330720511246,123.0,832.7723464449609,994.9400489495425,0.8370075637463803,955.1919042735045,714.2393600000001,84.00545161778817,73.851018778458,534.3645943536704,772.4989460838938,769.1620019909686,117.0,546.2392432353824,649.5401326879994,0.8409630379186491,929.1708932231406,714.2393600000001,84.00545161778817,75.37978256263136,528.6986923396036,781.5354544169504,778.2723228655894,121.0,552.6290195559355,637.4521142294034,0.8669341699870148,892.2990323809526,714.2393600000001,84.00545161778817,75.45878929382617,415.9327230449495,619.1584511071322,616.7002925519789,126.0,437.81113940681263,500.16073746829386,0.8753408786601653,base
1783770534369838558,1783770544369838558,1215.936903529412,1176.39424,30.384950585157426,70.41018542946146,681.7426544860745,904.1816838305975,900.8404003753819,136.0,639.3530000612864,851.5632475322984,0.7507991942043468,1320.2504499200002,1302.43648,43.27553568189088,67.7709694713107,811.992491911107,1168.0238908875192,1163.3070009296982,125.0,825.917613834461,988.7333621452314,0.8353289627473348,973.538378989899,714.2393600000001,84.00545161778817,72.88516345375585,541.7472969800696,784.7602583499704,780.7461130572649,99.0,554.909300284971,658.0411095053602,0.8432745192805479,935.7310633009713,714.2393600000001,84.00545161778817,74.90967513294447,529.1954260302149,781.6188715091388,777.7779692894189,103.0,552.6880043474888,638.2504075892128,0.865942266194692,892.410180740741,714.2393600000001,84.00545161778817,75.0830893997804,396.7082710720321,586.0699204193006,583.3248471530054,108.0,414.4140149779478,478.4197077554921,0.8662143474861701,base
