window_start_ns,window_end_ns,red_Mean_NN,red_Median_NN,red_Heart_Rate,red_Mean_HR,red_SDNN,red_SDSD,red_RMSSD,red_NN_Count,red_SD1,red_SD2,red_SD1_SD2,infrared_Mean_NN,infrared_Median_NN,infrared_Heart_Rate,infrared_Mean_HR,infrared_SDNN,infrared_SDSD,infrared_RMSSD,infrared_NN_Count,infrared_SD1,infrared_SD2,infrared_SD1_SD2,ppg0_Mean_NN,ppg0_Median_NN,ppg0_Heart_Rate,ppg0_Mean_HR,ppg0_SDNN,ppg0_SDSD,ppg0_RMSSD,ppg0_NN_Count,ppg0_SD1,ppg0_SD2,ppg0_SD1_SD2,ppg1_Mean_NN,ppg1_Median_NN,ppg1_Heart_Rate,ppg1_Mean_HR,ppg1_SDNN,ppg1_SDSD,ppg1_RMSSD,ppg1_NN_Count,ppg1_SD1,ppg1_SD2,ppg1_SD1_SD2,ppg2_Mean_NN,ppg2_Median_NN,ppg2_Heart_Rate,ppg2_Mean_HR,ppg2_SDNN,ppg2_SDSD,ppg2_RMSSD,ppg2_NN_Count,ppg2_SD1,ppg2_SD2,ppg2_SD1_SD2,label
1783335507008040850,1783335517008040850,1195.5939071999999,1155.96096,47.57946150707374,64.09936944005689,557.6171451719005,765.8389221138275,763.1031019640682,140.0,541.5298951232836,689.381206244559,0.7855304006230408,1299.1730366511629,1261.0483199999999,30.36986904706834,60.43340213226078,659.6574298587034,991.6582823958205,987.7862474247468,129.0,701.208296101889,790.2210527912573,0.8873571434537803,1076.3657595870966,714.5940479999999,95.15892301414748,68.52489742682246,654.9183374221118,853.0884165061985,850.3267987901258,155.0,603.2246042632269,822.1290019146769,0.7337347336711901,1091.8095912156862,714.5940479999999,71.3691922606106,67.51710386047361,631.8676204111861,841.9780295135971,839.2803866716187,153.0,595.3683742791516,788.2142024236111,0.7553382982043526,1127.2749509189189,903.7512959999999,95.15892301414748,64.9958968653711,612.9218815361743,841.2640328129693,838.7019932274445,148.0,594.8635023703928,757.9018224714221,0.7848820054695449,truth
1783335508008040850,1783335518008040850,1181.7483547234042,1092.908544,37.56273276874243,65.55639741342824,565.9705609560773,766.032618894301,763.3381815640627,141.0,541.6668594302505,702.811396062527,0.7707143943096506,1282.228718139535,1219.0133759999999,54.89937866200816,60.95237950358502,653.2158791609965,955.7788111142461,952.0416043942039,129.0,675.8376786532998,790.5717460372629,0.8548720366506051,1102.6517429403973,714.5940479999999,41.98187780035918,67.90343838829007,699.4399739046087,900.7797773447821,897.7847967132345,151.0,636.9474889162038,880.6710523078583,0.7232524417000419,1064.975645729032,714.5940479999999,83.96375560071836,68.02018595750918,592.3423624874972,824.4420400776231,821.7609206519145,155.0,582.9685572341587,729.2549481715573,0.7994029504987538,1106.9201919999998,924.7687679999999,62.06016718313966,64.66991829939583,543.3239711023491,754.9210387769946,752.3853859491174,150.0,533.8097857796055,669.2723148702764,0.797597291743754,truth
1783335509008040850,1783335519008040850,1176.9784319999999,1092.908544,52.86606834119304,64.6780274031007,533.022857648,723.8179544308339,721.2792492278645,142.0,511.81658392261807,661.2477793999547,0.7740163367914263,1323.26003712,1303.0832639999999,129.76216774656473,59.65095475938054,670.0458712694046,982.9221872758592,978.9677304043623,125.0,695.0309440014737,810.1783338565414,0.857874019776667,1117.7345511946307,714.5940479999999,79.29910251178957,67.63341671814707,715.0953080224277,938.2723503663952,935.0971818540528,149.0,663.4587415439183,895.8983470494081,0.7405513624720742,1090.9727242105262,714.5940479999999,79.29910251178957,67.6279336008738,698.6776586662488,1012.608879087312,1009.2503381470353,152.0,716.022605092347,848.5026552327854,0.8438660747571937,1102.9301200529799,756.6289919999999,79.29910251178957,65.75575048245159,581.252919391325,749.4558936929155,746.953582367038,151.0,529.9453446304849,731.6343885125374,0.7243308310150647,truth
1783335510008040850,1783335520008040850,1152.9170502620689,1092.908544,158.59820502357914,66.25574814339802,504.53473641904424,682.069499690178,679.7093626303238,145.0,482.29596847144063,626.7422914603469,0.7695283612466334,1262.322106181818,1282.0657919999999,52.86606834119304,61.42075309820298,587.2029113939592,835.3985543964651,832.2089126965113,132.0,590.7159828071793,717.7338170430302,0.8230293303454088,1071.8910720000001,714.5940479999999,83.96375560071836,70.85182135025609,773.9159391881341,1040.3503890563275,1036.9889896746076,156.0,735.6388149117921,962.9691214449664,0.7639277299026392,1051.1447931870964,714.5940479999999,83.96375560071836,69.72999090527857,662.7204437840421,909.5070953783885,906.5495052621833,155.0,643.1186346793386,819.5095997501965,0.7847603431068708,1038.6025293913044,714.5940479999999,83.96375560071836,68.76800186109331,541.6769689274327,667.9665055855725,665.8758384680656,161.0,472.3236457050402,689.4077633641585,0.6851150665902056,truth
1783335511008040850,1783335521008040850,1143.0605806344827,1092.908544,46.04464016813588,66.12183241166775,504.1345521312233,699.6251816368776,697.2114947973379,145.0,494.70971022430615,621.2362228733847,0.7963310766653957,1269.964823272727,1282.0657919999999,71.3691922606106,61.397767516064846,599.9527652014292,842.565179039464,839.3983204061575,132.0,595.7835516904626,736.4832793168025,0.8089573360621849,1051.9310828679243,714.5940479999999,83.96375560071836,71.74080630869608,756.6873669669444,1009.6016551825708,1006.4025210007168,159.0,713.8961766767583,943.571760449563,0.7565891716986356,1033.1197106086954,714.5940479999999,83.96375560071836,70.80247462304305,667.3939260650246,901.2223641056423,898.4016683256687,161.0,637.2604450160715,829.3243440933918,0.7684091870144214,1013.7993015652173,714.5940479999999,67.97065929581963,70.48068909193708,552.3713708571204,636.3914469919961,634.4004769690918,161.0,449.99670765715973,713.4281633311143,0.6307526542771321,truth
1783335512008040850,1783335522008040850,1174.3142454084507,1134.943488,36.59958577467211,64.42404495437869,521.5730227663819,718.5476084941467,715.9955920134232,142.0,508.0898865715876,644.2042919269919,0.7887092540966333,1272.2790302290077,1261.0483199999999,54.89937866200816,61.00530454809706,593.4529893873876,835.6672642913235,832.486202563197,131.0,590.9059893960057,727.8653426792742,0.811834215407041,1059.6530503291137,714.5940479999999,83.96375560071836,71.30562721884243,761.9805112681655,1009.7813072891531,1006.5603060770944,158.0,714.0232098995771,952.0052662497944,0.7500202312034545,1016.6712542608693,714.5940479999999,83.96375560071836,71.53444529316069,656.7616139935094,898.7095782552966,895.8967088258637,161.0,635.4836371016224,812.8664765622738,0.781781086346643,1027.1483555337422,714.5940479999999,83.96375560071836,70.61718540210671,642.4516207018584,789.62484869391,787.1850314473978,163.0,558.3490851048654,818.2978183193261,0.6823299202381347,truth
1783335513008040850,1783335523008040850,1185.6239169361702,1176.9784319999999,54.89937866200816,64.12707096193101,510.0802384848888,699.2464916360789,696.7447072590286,141.0,494.4419359567739,630.9732841961384,0.7836178620251636,1296.5153039999998,1303.0832639999999,62.06016718313966,60.95401344889317,639.0268982906097,863.4860286216077,860.0861274090513,128.0,610.5768262981801,793.9198467551088,0.7690660824184152,1016.52797502439,714.5940479999999,36.59958577467211,72.86004054429914,720.0006098166068,958.2541759167264,955.3270703412361,164.0,677.588025891044,898.4647961145224,0.7541620203944814,1035.4694900869563,714.5940479999999,36.59958577467211,70.95214661452218,668.9648624095449,902.392915958941,899.587085736604,161.0,638.0881501692695,831.5345636737072,0.7673621495060958,1016.52797502439,714.5940479999999,83.96375560071836,71.0041575230281,628.5914776634141,757.0469195737566,754.7211170894038,164.0,535.3130105069902,804.3472396752043,0.665524768535477,truth
1783335514008040850,1783335524008040850,1213.4905366423357,1219.0133759999999,43.25405591552158,62.248950738226675,511.2963033066401,710.8580101708586,708.2479002069265,137.0,502.6525194525899,629.6967856786735,0.7982453315381656,1281.742446276923,1261.0483199999999,64.88108387328236,61.34705240976823,630.4534711584951,853.0642816733466,849.7576458308421,130.0,603.2075383592545,782.9517810343591,0.7704274426227831,997.0084621796406,714.5940479999999,83.96375560071836,73.80771420201528,686.1726741794871,896.4456792810663,893.7466285655066,167.0,633.8828187850229,860.6754112938478,0.7364946302254771,996.5784639999999,714.5940479999999,41.98187780035918,72.12075461951099,571.9933762926112,750.3507229018586,748.1068882274448,168.0,530.5780844321323,716.6563285183533,0.740352192980801,990.6815500118342,714.5940479999999,41.98187780035918,72.65281211378401,633.4985184649709,791.9073791543066,789.558451714012,169.0,559.9630778716765,803.655038872317,0.6967704435194144,truth
1783335515008040850,1783335525008040850,1183.238955574468,1176.9784319999999,101.95598894372944,62.9707576925514,498.2752366033367,662.8318346468103,660.4685936079476,141.0,468.69288506507996,621.8680829315074,0.7536853842950835,1284.6525577846153,1240.0308479999999,101.95598894372944,60.930028280788775,626.9842401992104,836.8838619558819,833.6389737205136,130.0,591.7662538545906,781.7447315561611,0.7569814415974451,974.0597439999999,714.5940479999999,89.21149032576326,74.05035516701521,612.3836191229743,806.6141641433516,804.1955649137751,168.0,570.3623452668828,766.4011948654144,0.74420858042509,995.3274239999998,714.5940479999999,83.96375560071836,72.47690813193215,599.4323662632654,801.4711057367709,799.0678886154578,168.0,566.7256537915512,747.0270009278277,0.7586414588598038,966.5607354450866,714.5940479999999,83.96375560071836,73.29940379697763,598.6054648527487,817.6066593016258,815.2264310798921,173.0,578.1352131354588,741.3075224018435,0.77988580402138,truth
1783335516008040850,1783335526008040850,1169.0417642517482,1176.9784319999999,129.76216774656473,65.95177620989547,516.9662963863647,676.5621689047192,674.1944804076803,143.0,478.4016975268053,648.1313224190023,0.7381246376757107,1305.38205,1261.0483199999999,64.88108387328236,61.12197573097095,662.0154791542014,883.3849189907739,879.9001522749965,128.0,624.6474666163052,825.4918294595349,0.7566973340308816,934.1620515754189,714.5940479999999,83.96375560071836,75.11109003711971,518.5772767383693,666.3109276611422,664.4366316060351,179.0,471.1529753278927,653.3392846129824,0.7211459442653734,950.085268363636,714.5940479999999,83.96375560071836,74.89441747045329,578.6458570690107,769.6386294937249,767.4473750260314,176.0,544.2166939781337,722.2022921619781,0.7535516016557793,966.5607354450864,714.5940479999999,83.96375560071836,73.90353143639943,622.6297993547507,857.2956891251958,854.810013991979,173.0,606.1995952624203,769.1532743484313,0.7881388735892035,truth
1783335517008040850,1783335527008040850,1204.497711884892,1176.9784319999999,57.09535380848848,64.14819042422177,539.918094157852,740.1276368824887,737.4412022254062,139.0,523.3492709831825,667.8891128613941,0.7835870669324598,1329.7721173333327,1261.0483199999999,52.86606834119304,58.918024073197735,648.0169610060321,860.6567904059096,857.2078439563307,126.0,608.5762527702678,809.116453784643,0.7521491497591624,923.3518597752808,714.5940479999999,83.96375560071836,75.2093038632303,478.12303030579267,594.224342996761,592.5464113451465,178.0,420.1800624791307,607.3941239138759,0.6917749875017053,927.3664330786518,714.5940479999999,83.96375560071836,75.16775459592527,510.0119844934411,683.1695941528258,681.2820805146703,178.0,483.0738527259246,635.2513479404367,0.7604452226541661,947.3475379199997,714.5940479999999,83.96375560071836,75.03438242133934,617.0243552980639,856.3474155301046,853.9180946270235,175.0,605.5290645729112,760.332418117701,0.7964004297909262,truth
1783335518008040850,1783335528008040850,1197.6956543999997,1176.9784319999999,75.12546553748486,63.79354446864164,534.862946850435,750.5290611520508,747.8246877066606,140.0,530.704188618188,656.759678968356,0.8080645106773652,1347.8521880975609,1261.0483199999999,31.03008359156983,58.83318590582088,659.9672708797194,866.4867908171495,862.9382135165314,123.0,612.6986855953759,826.6884283692976,0.7411482543719259,912.8244123278687,714.5940479999999,49.22013259352455,75.43187377809622,475.3998378011142,608.8775670759555,607.2046747875714,183.0,430.5414565917751,599.4389365403016,0.7182407253634063,920.1240228066296,714.5940479999999,83.96375560071836,75.77553016628738,516.6650574518543,720.5167035072161,718.532555962295,181.0,509.48224700812955,635.6881965045674,0.801465639616401,920.0982186666664,714.5940479999999,83.96375560071836,76.35619836479613,595.888368965116,828.5079298313187,826.2738507026354,180.0,585.8435754505538,733.8661656511139,0.7982975682368068,truth
1783335519008040850,1783335529008040850,1223.922566540146,1176.9784319999999,41.98187780035918,63.44942331559441,566.0978940143381,797.6918798324283,794.7828664844386,137.0,564.0533375269547,694.1581717643962,0.8125717746623311,1322.9237575680002,1219.0133759999999,75.12546553748486,59.672043452323194,644.3519992772555,809.7382654708555,806.4672235466516,125.0,572.5714185006747,816.3700039217849,0.7013626367334435,905.000983524324,714.5940479999999,83.96375560071836,75.96295548221836,471.41437102518563,604.8653307431747,603.2194356358898,185.0,427.7043770731427,594.1359283315395,0.7198763055353813,910.9868191475409,714.5940479999999,83.96375560071836,76.35763244559962,530.2632289059136,747.6735657037786,745.6166881734106,183.0,528.6850484230675,650.0801824747467,0.8132612909540664,886.7584462978723,714.5940479999999,83.96375560071836,77.76172125187477,561.2899871047987,805.2382900839644,803.0823604050363,188.0,569.3894553894315,684.098474851299,0.8323208957792202,truth
1783335520008040850,1783335530008040850,1220.8815957333331,1219.0133759999999,44.60574516288163,64.90879185867207,587.4546114066176,802.09410322093,799.1178372459351,135.0,567.1661795372622,727.5761838600499,0.7795282365184691,1334.020982784,1219.0133759999999,37.56273276874243,58.88587256016053,647.2990423366274,827.9053399120572,824.5605328827845,125.0,585.4174800323693,816.477364938003,0.7170039307541874,907.081933639344,714.5940479999999,83.96375560071836,75.66179470076835,467.1117320388379,598.2452544494452,596.5994597096403,183.0,423.02327623387424,588.9926946056512,0.7182148099767204,932.561763235955,714.5940479999999,83.96375560071836,75.6247033797226,561.393264387452,796.5871431911772,794.3337097000585,178.0,563.2721707565007,686.7947476683473,0.82014629941303,897.2756424648646,714.5940479999999,83.96375560071836,77.6480213656883,607.1376930825746,872.7400294149913,870.3652222119055,185.0,617.1203930122873,739.4684354233392,0.8345459568656116,truth
1783335521008040850,1783335531008040850,1235.5159836444443,1219.0133759999999,57.09535380848848,63.54009312391639,576.4706980321345,792.9377724397139,789.9735709918552,135.0,560.6916759510772,712.3547947749765,0.7870960932160108,1334.2704805161288,1240.0308479999999,47.57946150707374,59.644515699279076,650.2946249493507,839.1154058980767,835.7030663154413,124.0,593.3441937086324,818.3749338611001,0.7250273305772322,922.1999658666664,714.5940479999999,64.88108387328236,74.6688397218163,471.6980395816095,602.8776209230728,601.1923932518649,180.0,426.2988539803176,595.0905180204112,0.7163596815462884,933.8444945454543,714.5940479999999,32.44054193664118,75.21728640490538,537.0686628153557,738.4380596062077,736.326624319593,176.0,522.1545594337855,663.7490528714923,0.7866746584041895,886.7584462978721,714.5940479999999,41.98187780035918,77.9861658651289,568.6986356137095,811.6976941871442,809.5334895297667,188.0,573.9569438332142,694.350768423718,0.8266095033439421,truth
1783335522008040850,1783335532008040850,1251.5667536842104,1219.0133759999999,75.12546553748486,62.232707233634024,571.2361882109982,792.260571298679,789.2647359731343,133.0,560.2128224320242,704.0613341428675,0.795687527868625,1332.339585024,1261.0483199999999,57.09535380848848,59.49140800965608,635.6609683322083,839.7493743499616,836.357052008475,125.0,593.7924771000185,794.8804818284278,0.7470210813758369,918.7305992486188,714.5940479999999,83.96375560071836,74.81645168646676,467.181472596132,607.3753016669621,605.6857982505402,181.0,429.4791945339339,586.7630419559692,0.7319465675654501,935.3955796853932,714.5940479999999,36.59958577467211,75.16161767394327,545.0515222914688,758.8102950836992,756.681764728364,178.0,536.5599052878488,670.9799236364993,0.7996661097993268,914.8374350769229,714.5940479999999,25.48899723593236,76.97378757878052,599.816564004802,836.2183731357438,833.9543632814742,182.0,591.2956821970672,738.0681059472804,0.8011397287492368,truth
1783335523008040850,1783335533008040850,1273.5625399694657,1219.0133759999999,35.6845961303053,61.34097511481483,588.4128704272362,833.4237683750051,830.2136783234824,131.0,589.3195982200126,720.2850947685508,0.8181754731567487,1286.7906500465112,1219.0133759999999,101.95598894372944,63.634754909849676,648.1494562795334,872.5555107548334,869.1652237648943,129.0,616.9899186164342,806.1371815725612,0.7653659113115828,905.1220006956521,714.5940479999999,25.041821845828284,75.62659959648934,463.4773408735865,584.0284242388839,582.5029988118383,184.0,412.9704591850086,586.8135912934899,0.7037506719548097,928.9957456089385,714.5940479999999,83.96375560071836,75.23435206859551,530.2107794935235,725.8144612004049,723.7727849725472,179.0,513.2283273980665,656.1594953670573,0.7821700836790685,884.5225450212765,714.5940479999999,83.96375560071836,77.82775361137186,544.8842183323055,770.9076779331941,768.8436643821291,188.0,545.1140467353365,667.2502984646226,0.816955867969894,truth
1783335524008040850,1783335534008040850,1264.5512319999998,1219.0133759999999,59.47432688384217,62.08765161551591,592.6924069697235,844.1912880550005,840.9635622182326,132.0,596.933384402297,724.1573350123152,0.8243144901544708,1338.9667527804875,1261.0483199999999,46.04464016813588,61.37496118106918,661.4785076232189,902.5236157301946,898.8300811169761,123.0,638.1805688638224,819.4329825295084,0.7788075199192278,896.1395628972972,714.5940479999999,41.98187780035918,76.38839311818704,474.9263652738334,640.7654240579693,639.0336428382564,185.0,453.0895765012638,590.3092602165259,0.7675461102119085,935.3955796853932,714.5940479999999,83.96375560071836,75.05354037135314,537.5270087425641,734.7922011788397,732.7135769262364,178.0,519.5765482165475,665.5003197047662,0.7807307266915298,858.249552494845,714.5940479999999,83.96375560071836,78.24979851089964,452.3780043005556,621.2757850094168,619.6641719575019,194.0,439.3083205671542,559.2815188169014,0.7854869252544991,truth
1783335525008040850,1783335535008040850,1250.2211374545454,1176.9784319999999,62.06016718313966,63.08901667503834,598.0069711972827,857.710370486902,854.4325643669608,132.0,606.4928192653144,728.9087084751428,0.8320559381627926,1307.1511618064512,1240.0308479999999,57.09535380848848,62.92742195651848,637.6586563375854,899.6645704079874,896.0109480050565,124.0,636.1589185287701,781.5804751864407,0.8139391127663709,896.1395628972972,714.5940479999999,41.98187780035918,76.2842750118621,459.23959197726964,614.0809664538083,612.4223089490263,185.0,434.2208155770766,572.3007490285919,0.7587283719514809,917.0623616,714.5940479999999,83.96375560071836,75.06342210631045,462.25574216514866,610.2625996794337,608.5686622500876,180.0,431.52082253785903,578.1484516864415,0.7463841186102391,857.1661776494846,714.5940479999999,49.22013259352455,78.55508893859577,462.1390669451252,663.2811778057369,661.5657637531917,194.0,469.0106186598367,563.1692056442544,0.8328058671519475,truth
1783335526008040850,1783335536008040850,1234.3843629850746,1134.943488,31.719641004715825,62.59503477643375,584.7420238790751,839.6842669055437,836.5245286001926,134.0,593.7464391845649,712.445823875906,0.8333917040237769,1352.9784007804876,1303.0832639999999,41.98187780035918,60.88222586148253,667.573732955224,951.1228263000269,947.2207717511727,123.0,672.5454002180637,815.5677287548275,0.824634639780164,930.1699060558659,714.5940479999999,27.98791853357279,74.43900301692257,481.8339859957024,637.4709470891718,635.690453051461,179.0,450.7600294961642,602.2754170853415,0.748428404528907,952.6319308799998,714.5940479999999,43.25405591552158,73.5003176926648,495.47308253149,656.4536168390838,654.5699319228784,175.0,464.18280400135177,619.0753696128079,0.7498001483917354,873.3927253333334,714.5940479999999,16.038020732721485,77.23929356782337,440.5534299680589,544.588417986449,543.314992922913,189.0,385.0821633138721,560.3842548305554,0.6871752016485728,truth
1783335527008040850,1783335537008040850,1218.399727182482,1176.9784319999999,47.57946150707374,63.24527527872367,564.0958251082044,790.5728816846803,787.6728868896585,137.0,559.0194456614275,692.9334957232238,0.8067432864938526,1373.6046989752062,1303.0832639999999,67.97065929581963,59.819195968022186,687.2255888325136,981.2273177021502,977.1580063432684,121.0,693.8324902326773,838.9614160622352,0.8270135872150858,961.005788689655,714.5940479999999,16.992664823954907,73.4007853143719,535.1958544966969,666.521958337899,664.7921576660219,174.0,471.3021965504659,679.56333413763,0.6935368241262623,983.6176896000001,714.5940479999999,41.98187780035918,73.02353805496996,572.7036062847413,776.9786624938861,774.6880380605709,170.0,549.4068810866806,710.6721331320084,0.7730806591013855,913.7432089180328,714.5940479999999,27.98791853357279,75.0413345472816,468.40694775226564,598.7480276581887,597.152484219182,183.0,423.3787905791757,590.919061504234,0.7164750947472053,truth
1783335528008040850,1783335538008040850,1197.9959039999999,1155.96096,46.04464016813588,65.50841595188486,569.5539904640805,787.4735411774315,784.6378874074223,140.0,556.8278809715457,702.6769183582771,0.7924379845470224,1319.4301866666665,1240.0308479999999,95.15892301414748,61.9287795655881,671.190993004523,950.0241729105983,946.3073297559677,126.0,671.7685349562253,821.8018105980167,0.8174337489806529,951.2794429090907,714.5940479999999,83.96375560071836,73.17532461193531,496.7852036423851,611.5068551841266,609.7571896375493,176.0,432.400644042756,632.5392625218745,0.6835949476382152,969.247604093023,714.5940479999999,83.96375560071836,73.61142295041962,554.5667462598617,772.1785332703708,769.9363837359214,172.0,546.0126771621613,682.659234394148,0.7998319654267052,930.1398997333331,714.5940479999999,41.98187780035918,74.17251828722607,486.81337482478875,624.4763297536374,622.7423355302775,180.0,441.5714474592836,613.5811700263928,0.7196626445369725,truth
1783335529008040850,1783335539008040850,1206.9169892374098,1134.943488,22.302872581440816,65.09203037969715,580.0134584298147,789.9630866678773,787.2805096419143,139.0,558.5882554699124,718.9024998878282,0.7770014091717167,1331.7737813333335,1261.0483199999999,54.89937866200816,60.15237903816737,655.8669257523095,927.6825859841102,923.9888820057836,126.0,655.9706473380368,803.2273050058927,0.8166687602001085,947.2192494545453,714.5940479999999,83.96375560071836,73.1620668610371,488.0999466635065,612.5853074643629,610.8325562110884,176.0,433.1632249632972,618.6015891796058,0.7002297319309535,965.8028799999998,714.5940479999999,83.96375560071836,73.16524811842103,532.6182847253191,758.5398162363922,756.2653289086161,168.0,536.3686478607506,650.7832290736272,0.8241894134614642,977.8655393684209,714.5940479999999,64.88108387328236,71.93468910440177,525.522424581104,700.2701823198977,698.23274507566,171.0,495.1657945811396,655.5555319068085,0.7553376799992143,truth
1783335530008040850,1783335540008040850,1206.8293342608695,1134.943488,46.04464016813588,64.06173486793315,563.0699900788593,789.9864086785386,787.0985042931408,138.0,558.604746621802,691.4303985077671,0.8078972920880726,1355.3706333658533,1303.0832639999999,34.81424012712713,60.37685528487279,679.4650445591952,971.5724255011132,967.5823781479079,123.0,687.0054504856989,829.0701110624657,0.8286457819656424,972.180274604651,714.5940479999999,83.96375560071836,71.92512889940241,507.8611907748495,653.2900772896403,651.3770714923063,172.0,461.9458437333884,639.6475567992268,0.7221880843959582,991.0738879999999,714.5940479999999,79.29910251178957,71.8736709393419,571.3112038153116,794.3407481622999,791.9589514712213,168.0,561.6837295983579,703.5969564758225,0.7983032394166687,985.2095454674553,714.5940479999999,83.96375560071836,70.93460865540538,500.458808905773,698.2914835266349,696.2101331934706,169.0,493.7666432464979,615.6421767807278,0.8020351136896877,truth
1783335531008040850,1783335541008040850,1202.3808442014388,1134.943488,19.5532033590714,65.17308382877754,586.9559173734613,826.0283445670416,823.0990921045491,139.0,584.0902438956532,720.0373541507421,0.8111943644709467,1299.7992839999997,1219.0133759999999,129.76216774656473,61.61760848720814,659.0941372922316,934.5653180725225,930.9316121651545,128.0,660.8374738708433,806.5091941137332,0.8193799632960571,963.094746352941,714.5940479999999,62.06016718313966,72.47876577506234,505.6374144273261,643.287260003486,641.3829557018263,170.0,454.87278379937874,638.6577839632153,0.7122324274772763,992.3249280000001,714.5940479999999,16.992664823954907,71.44876073583178,540.4096248222071,743.1943066988315,741.1301547465022,168.0,525.5177340059786,667.8328240087994,0.7869001269680843,985.7954035662651,714.5940479999999,67.97065929581963,70.16197090445264,468.1398267018235,664.7434998276434,662.7268476650443,166.0,470.0446364778053,572.5721042349606,0.8209352726078981,truth
1783335532008040850,1783335542008040850,1206.5247332173913,1134.943488,31.719641004715825,64.7638620212792,592.2774689500739,841.747069698946,838.6713940915645,138.0,595.2050610280302,724.1896630822073,0.8218911306946738,1309.9796219999998,1219.0133759999999,44.60574516288163,60.18446443272036,646.953681245616,919.6745173028646,916.0468349756552,128.0,650.3080876693205,790.9790306388937,0.822155913721316,995.3274240000001,714.5940479999999,41.98187780035918,70.29451614967637,488.41970884427775,644.3774557781697,642.4595351451975,168.0,455.6436686244785,610.984490471134,0.7457532486186823,983.8649539764704,714.5940479999999,83.96375560071836,71.76756815257541,534.2254012748763,748.5584016938052,746.3404874445997,170.0,529.3107219518532,656.2839618244599,0.8065269803034301,1025.8589400736196,714.5940479999999,27.98791853357279,68.49078327476805,514.9402546632398,740.7601390618748,738.5229982679865,163.0,523.7965175633417,627.0131863362543,0.8353835756213911,truth
1783335533008040850,1783335543008040850,1168.7478135944054,1050.8736,40.782395577491776,67.34564676801406,580.8543433510533,853.2356738876,850.2285399470286,143.0,603.3287309561956,701.9834453752879,0.8594629046182842,1271.0720374153843,1219.0133759999999,95.15892301414748,60.9260324574018,610.0834847714923,854.8854971050088,851.6334306053085,130.0,604.4953321409844,749.464084190654,0.806570114422199,996.8286719999999,714.5940479999999,40.782395577491776,70.24472951300307,498.302333628964,580.6222586590652,578.9824321264401,168.0,410.5619364056746,642.1291767141204,0.6393759251161689,997.0084621796406,714.5940479999999,83.96375560071836,71.38373938341206,546.8804201774269,774.7898816255451,772.4586286525627,167.0,547.8591792921454,669.3889361048227,0.8184467201984851,1039.051272,735.6115199999999,83.96375560071836,67.62397312516417,514.1117118327534,746.2728521508133,743.9280646195988,160.0,527.6945943712659,624.0119486218839,0.8456482212186278,truth
1783335534008040850,1783335544008040850,1141.277520657534,1008.838656,142.7383845212212,70.38739367794489,602.2301934271533,895.5599075821765,892.4676042265218,146.0,633.2564836101548,724.4691330439578,0.8740972592571883,1325.7687893333332,1240.0308479999999,21.62702795776079,58.102793850891636,630.7740960563,862.9616840495473,859.5544793666139,126.0,610.2060586955978,780.7536125288676,0.7815603397839367,982.2248157159762,714.5940479999999,41.98187780035918,70.67897390502495,465.0296412935485,587.0774539250331,585.335292499807,169.0,415.1264487521238,588.5067122271741,0.7053894885601195,1010.8891410731705,714.5940479999999,41.98187780035918,70.65018579247361,550.3149286766047,762.9024597645199,760.5586678668682,164.0,539.4535026833892,678.3715800871853,0.7952183117902106,1011.1739306666665,756.6289919999999,41.98187780035918,68.11152211669048,442.04087117748054,619.8618506530078,617.9537265430923,162.0,438.3085179955848,542.9024637160427,0.8073430262140711,truth
1783335535008040850,1783335545008040850,1148.2787116137931,1008.838656,89.21149032576326,69.14114824173302,595.5301391385906,890.2881771641011,887.191561275319,145.0,629.5288072829463,714.9538681938253,0.8805166812696786,1320.0974079999996,1240.0308479999999,79.29910251178957,58.4066836757849,614.991281237921,825.1626704464127,821.8578686478609,126.0,583.4781198546588,765.6403815256584,0.7620785605534379,1001.2874684550897,714.5940479999999,83.96375560071836,70.02267570250744,501.95081219979005,659.1136409351883,657.1253599618507,167.0,466.0637250778268,628.7300993425937,0.7412778958175338,1047.172409962264,714.5940479999999,41.98187780035918,69.78018713039074,663.5763965740035,954.4564542493445,951.4419777446956,159.0,674.9026311469793,808.0349543279181,0.8352394008849885,1050.3448585660376,756.6289919999999,83.96375560071836,67.24894868748127,532.8809185529726,757.0676114424821,754.6680719156881,159.0,535.3276418676813,651.6412392121247,0.8215066967138639,truth
1783335536008040850,1783335546008040850,1176.3821916595743,1050.8736,109.79875732401632,68.79467320054832,626.870260386822,933.8934410755899,930.564530310607,141.0,660.362385090189,753.5870267552929,0.8762921356721073,1318.5521233919999,1261.0483199999999,46.04464016813588,58.174015892387054,599.7744172253498,777.3206629985608,774.1847105053475,125.0,549.6487119627054,753.924299803956,0.729050266857868,968.2700472558139,714.5940479999999,83.96375560071836,71.71258395369941,482.08590580406127,634.5990966554403,632.7408229833201,172.0,448.7293245799192,603.4356948183205,0.7436240985297041,1042.9424784905657,714.5940479999999,83.96375560071836,70.25780087266418,685.1150674242805,990.7829410681171,987.654184851673,159.0,700.5893363132171,832.6779702536004,0.8413688861011246,1029.9866713043477,714.5940479999999,83.96375560071836,68.39210621613587,509.15068246326,721.2900842995797,719.0847852452086,161.0,510.0291098108493,623.2206579361624,0.8183764503247459,truth
1783335537008040850,1783335547008040850,1170.717908425532,1050.8736,57.09535380848848,69.4868035263073,631.4229904876557,971.2428404092542,967.7757709460183,141.0,686.7723986322674,749.3742870363177,0.916461120314612,1280.1257176615384,1219.0133759999999,71.3691922606106,61.349371422097676,609.0792567629632,785.9976845585003,782.9455260662272,130.0,555.7842927482404,766.490046905383,0.7251030786272525,961.2152512369942,714.5940479999999,83.96375560071836,72.1694481290813,466.6519677825091,640.1442107010362,638.2806137024604,173.0,452.65031232401276,577.1325371585478,0.7843091199685077,1036.1613696,714.5940479999999,83.96375560071836,70.35374371859436,745.3562616857337,1077.824124924654,1074.4293948391003,160.0,762.1367476606792,905.9170506182477,0.8412875628519798,1034.164057043478,714.5940479999999,41.98187780035918,69.5896943453591,569.8657898457018,802.5296984417117,800.017862238362,161.0,567.4741918717294,698.9138413657973,0.8119372636300745,truth
1783335538008040850,1783335548008040850,1164.9264550489509,1050.8736,36.59958577467211,69.52382820383497,621.3723207180972,948.2456129674409,944.9142213967839,143.0,670.5109031596719,739.8747774327682,0.9062491702801704,1310.6958916535432,1219.0133759999999,35.6845961303053,59.92200757229136,620.9641839710562,805.3363007986424,802.1591996840623,127.0,569.4587594304093,780.417449961025,0.7296848109416937,965.567390117647,714.5940479999999,31.719641004715825,72.48875672544251,491.9835920159698,684.9810682714993,682.9869987854438,170.0,484.35475835918265,605.6368083705624,0.7997445856408836,1036.1613696,714.5940479999999,62.06016718313966,70.42588003338405,750.7044550275973,1077.2936608469317,1073.9017729985337,160.0,761.7616529141461,914.8628037423522,0.8326512454086797,1029.7255846956523,714.5940479999999,83.96375560071836,69.4040055754987,551.1453689212116,747.3774710834634,745.1279266545097,161.0,528.4756779091698,684.0169327551903,0.7726061338576706,truth
1783335539008040850,1783335549008040850,1147.6989192827584,1050.8736,95.15892301414748,70.56928334710153,602.7518022698256,902.1564692815523,899.0208463924835,145.0,637.9209571202988,723.2896352861742,0.8819716556119338,1275.9222232615382,1219.0133759999999,49.22013259352455,61.61912586060273,622.926465625978,803.5641544810029,800.4626730526763,130.0,568.2056627519516,783.9935749499821,0.724758060406557,975.2107007999997,714.5940479999999,41.98187780035918,72.21373055415621,503.8718304181668,685.3697243700927,683.3389947972058,170.0,484.6295797220476,624.7725411756853,0.7756896274763944,997.4436410602408,714.5940479999999,83.96375560071836,70.66416137191374,517.1535628903902,714.9200044404575,712.7634454241996,166.0,505.5247831457642,638.0579613429829,0.792286616221725,985.569312,714.5940479999999,83.96375560071836,70.85496433270357,496.8695100554445,693.0584272293179,690.9802863375678,168.0,490.0663136523341,611.2905398884241,0.8016913098995178,truth
1783335540008040850,1783335550008040850,1130.6542079999997,1008.838656,129.76216774656473,73.87125058168021,621.9190006273067,931.6541176096989,928.4584409348926,147.0,658.7789442821874,746.0372899311127,0.8830375547890071,1273.9821489230767,1219.0133759999999,49.22013259352455,61.55626333952696,612.4596476760782,786.3884581863445,783.3477945159851,130.0,556.060611430398,771.7589897570599,0.7205107019296775,985.2095454674553,714.5940479999999,41.98187780035918,71.5438622587624,499.827941051002,665.4046841764593,663.4349929731343,169.0,470.5121644144674,623.670660589044,0.7544240801227982,992.7294559041915,714.5940479999999,83.96375560071836,71.69069177128266,556.2181125297277,775.9974001386427,773.6565278364614,167.0,548.7130238211649,684.2617818910994,0.8019051163498897,993.3257599999997,714.5940479999999,41.98187780035918,70.5373664755252,505.37405922075635,694.2677345885924,692.1888965452677,168.0,490.9214230866158,624.743113322456,0.7857972542919905,truth
1783335541008040850,1783335551008040850,1130.082304,1008.838656,47.57946150707374,72.33236242213918,589.9376187223903,872.8024823438575,869.8204951880042,147.0,617.1645539017936,711.0602960869695,0.8679496764171859,1283.5321272558137,1219.0133759999999,129.76216774656473,62.58877911561926,626.8363359739153,812.8719333081378,809.7865860228106,129.0,574.7872562784033,787.8181193679028,0.7295938518646633,979.6614595764704,714.5940479999999,40.782395577491776,71.91457119940145,501.2390021837381,660.7025917909998,658.7449971359856,170.0,467.18728300294333,627.1754905291363,0.7449067925291311,1003.2677598072287,714.5940479999999,79.29910251178957,71.44309314385457,585.3608923372725,811.1023440370254,808.6509959228754,166.0,573.5359677048847,721.6806741420936,0.7947226360005861,1040.8903008,714.5940479999999,40.782395577491776,69.86847655206365,724.8156550352844,992.4941670632589,989.3682287395359,160.0,701.7993558185245,896.9137637782179,0.7824602366031481,truth
1783335542008040850,1783335552008040850,1141.277520657534,1008.838656,129.76216774656473,72.29031669874425,613.1190350166963,893.523932859908,890.4376739424707,146.0,631.8168320777144,743.1242477212343,0.8502169509542443,1280.6218435419848,1261.0483199999999,46.04464016813588,63.46528682876803,637.9454115998816,822.6253415537712,819.4616692730445,131.0,581.6839573885715,802.9760788598064,0.7244100698672608,971.9358853953488,714.5940479999999,89.21149032576326,72.39975692083732,503.5216613496214,638.1351298433773,636.2665492180162,172.0,451.22967762561007,636.603499763793,0.7088080379593192,1009.0934132363633,714.5940479999999,64.88108387328236,71.24263846423514,589.760187270695,814.1220198936256,811.6371570970455,165.0,575.6712009800721,727.9666827267656,0.7907933352440856,1034.1640570434784,714.5940479999999,64.88108387328236,70.93559230970718,789.8526977051968,1082.7175516478153,1079.3295553565385,161.0,765.5969228798663,977.0697231942016,0.7835642684505708,truth
1783335543008040850,1783335553008040850,1132.1032890810811,1050.8736,101.95598894372944,72.4930292685293,594.6390008942694,844.2789754382819,841.4063135534558,148.0,596.9953887456397,727.3165305953737,0.8208192219375868,1293.6335479069767,1261.0483199999999,67.97065929581963,64.00701940540792,669.0657350533344,851.8978434681651,848.6170328453437,129.0,602.3827419945355,844.9055756227968,0.7129586540490127,988.4504496287426,714.5940479999999,83.96375560071836,71.19430065509961,503.7194478297386,644.275459981523,642.3319398370271,167.0,455.57154670501706,635.3690637418482,0.7170187733441752,1028.039803259259,714.5940479999999,83.96375560071836,69.67360875178262,583.377669875697,803.5163135603817,801.0308203830979,162.0,568.1718341125621,720.5896161337458,0.7884818506836573,1047.4367806792452,714.5940479999999,27.44968933100408,70.50070947560594,800.7750547836124,1096.8108006493028,1093.3740217861862,159.0,775.5623548177686,990.8243505395666,0.7827445443740112,truth
1783335544008040850,1783335554008040850,1160.8111458461537,1092.908544,57.09535380848848,69.36464895399418,578.8944200710583,795.2516900359273,792.454522372885,143.0,562.3278627744666,715.6334163191126,0.7857764184165981,1276.363377116279,1219.0133759999999,38.57794176249222,64.50279637966433,665.7294205803177,857.9472044111889,854.5902863945992,129.0,606.6602861391927,838.0769484141462,0.7238718202274238,1010.8891410731705,714.5940479999999,21.62702795776079,70.75090233055236,546.3809663543202,680.2689170116726,678.2967055983086,164.0,481.0227642493824,693.8103998395405,0.6933057855008081,1034.164057043478,714.5940479999999,27.98791853357279,69.8649709494164,608.7503054194793,850.9649968115999,848.3485899760927,161.0,601.7231197978712,748.4106574915787,0.804001270926105,1083.5674453333331,714.5940479999999,20.103997819890314,69.5169825219725,834.6097231710601,1127.7187396665063,1124.0495897069147,153.0,797.4175680893334,1036.923040092462,0.7690229045525191,truth
1783335545008040850,1783335555008040850,1145.3082687123288,1092.908544,89.21149032576326,71.08419995647272,579.6337996973936,787.4205076371327,784.7031907351006,146.0,556.7903805955701,718.9874265530632,0.7744090647939551,1236.7614634666663,1176.9784319999999,83.96375560071836,67.21702242898168,663.4287700236933,873.9713243836849,870.7394472762843,135.0,617.9910500342914,830.2523693607012,0.744341206168611,1007.5725432289154,714.5940479999999,83.96375560071836,70.36061504481908,523.8814918698666,717.393179777906,715.2306575231365,166.0,507.27358219793734,648.2595093399175,0.7825162221136758,1049.277336303797,714.5940479999999,64.88108387328236,69.00250595893313,614.1103040732598,865.597230396923,862.8371861590662,158.0,612.0696713899587,752.9596867164918,0.8128850484135126,1069.8571230967739,714.5940479999999,83.96375560071836,68.34232800360412,736.1407601019812,995.9755642500885,992.7366482727128,155.0,704.2610753773356,914.2289681590847,0.7703333627630002,truth
1783335546008040850,1783335556008040850,1172.2752214825177,1092.908544,33.985329647909815,69.01203601600191,580.6153535519657,768.1073215569364,765.433716262857,143.0,543.1338957519457,725.7624702360997,0.7483631601607306,1295.9145138604651,1176.9784319999999,30.36986904706834,65.97679917809702,746.437005527882,961.4825344958334,957.7229824159507,129.0,679.8708201344324,939.800106622536,0.7234206671648077,1001.2874684550897,714.5940479999999,64.88108387328236,70.44931088415622,512.090725451991,700.8385069855016,698.7255059786594,167.0,495.56766080610373,633.7824303098628,0.7819207934871524,1065.0637403312098,714.5940479999999,64.88108387328236,68.27703378902328,612.1408005819937,864.1608315611676,861.387685944854,157.0,611.0539840327075,750.1594722278766,0.8145654446220031,1079.0776914580642,714.5940479999999,13.46588533219068,68.406232064952,776.9653985170586,1038.0617427324132,1034.9710652156105,155.0,734.0204975764146,968.4820161233661,0.757908237175686,truth
1783335547008040850,1783335557008040850,1171.354038084507,1155.96096,35.6845961303053,68.0928407780525,561.6250544003119,736.4086508191026,733.7928682659231,142.0,520.7195507186239,703.754913453543,0.7399160428781831,1310.6958916535432,1176.9784319999999,33.985329647909815,65.64249063861234,760.7400894873128,965.9524850184376,962.1145385899728,127.0,683.0315524605342,961.3453680535449,0.7104954942920063,979.4141951999999,714.5940479999999,83.96375560071836,70.95023530522833,477.73933923663714,624.1533722569782,622.3040248668169,170.0,441.3430820233608,599.2310860457574,0.7365156653265812,1038.6025293913044,714.5940479999999,83.96375560071836,69.42626828701236,589.7571506019303,845.062888734891,842.4179279787306,161.0,597.5496991535343,719.0926031416094,0.8309773964339613,1050.3346904615382,714.5940479999999,89.21149032576326,69.08322044850591,743.9880514884466,1085.5664751138988,1082.0959894969321,156.0,767.6114159818154,901.344994184994,0.8516288667869044,truth
1783335548008040850,1783335558008040850,1171.9460795492955,1134.943488,37.56273276874243,66.89629827521739,547.0726909926533,712.5914568600232,710.0640457994206,142.0,503.8782513613235,686.7535310156138,0.7337104632227476,1278.5089890461536,1176.9784319999999,37.56273276874243,67.11899148100461,730.6166494042304,906.1996863460267,902.7333816235588,130.0,640.7799433243979,928.6021262574834,0.6900478958700145,980.8977814588234,714.5940479999999,79.29910251178957,71.0052610081772,476.40455951805194,634.0919907365361,632.2132444507954,170.0,448.3707465458822,594.4782968957928,0.7542255939151264,1033.7482524444442,714.5940479999999,40.782395577491776,69.69119440296586,577.7530393627882,830.2166653489651,827.6476793041357,162.0,587.0518339223358,703.7629012175123,0.8341613814918832,1053.25293645283,714.5940479999999,40.782395577491776,69.69231696945685,777.4234625044771,1131.611447015558,1128.0348787693463,159.0,800.1701278530226,942.6761709891362,0.8488282110848479,truth
1783335549008040850,1783335559008040850,1188.0088782978721,1134.943488,37.56273276874243,67.59370604209629,618.8799576306781,815.8121770197536,812.8938396025195,141.0,576.8663225452278,774.3625939251407,0.7449563383752428,1351.2200547096772,1324.1007359999999,32.44054193664118,62.81301330351062,743.3686836433521,919.4977866789958,915.753956809743,124.0,650.1831202467393,945.4231617198764,0.6877165131685075,977.8655393684209,714.5940479999999,79.29910251178957,71.16193945729755,467.7832170374727,635.5943483696765,633.7222442399828,171.0,449.43307381604313,580.2130922031888,0.7746000217083228,1008.5854334457829,714.5940479999999,83.96375560071836,70.46329618134918,524.5162586161159,755.0966531246604,752.8548331887187,166.0,533.9339638757136,638.507534971421,0.8362218683912822,1055.9606314394905,714.5940479999999,49.22013259352455,69.59646456271304,780.6099223135359,1153.3561826620542,1149.658132160481,157.0,815.5459778837688,941.3533240008732,0.8663548075844606,truth
1783335550008040850,1783335560008040850,1190.5868671079133,1134.943488,32.44054193664118,65.58782713045218,566.477327900869,745.0699238943023,742.4420340275149,139.0,526.843995643806,709.2325628300297,0.7428367269849484,1356.1437670819673,1282.0657919999999,38.57794176249222,62.84979045885977,770.5474258655038,973.96002108531,969.9628770379162,122.0,688.6937355140155,974.8523684885746,0.7064595191800953,991.3240959999999,714.5940479999999,40.782395577491776,70.39247322845014,475.46912271278836,670.9433432038276,668.9468577727507,168.0,474.4285877713996,582.7525468491364,0.8141167127223559,1026.1168231656438,714.5940479999999,41.98187780035918,69.0238339043221,510.9019547765948,719.5239888952229,717.3133610800315,163.0,508.7802917742063,626.5883195050544,0.8119849603581738,1100.375277473684,714.5940479999999,19.28897088124611,68.32038844153378,850.9654033995454,1118.9478071229717,1115.6645163180524,152.0,791.2155822104704,1065.4919928369125,0.7425823821574006,truth
1783335551008040850,1783335561008040850,1204.0879248695653,1155.96096,32.44054193664118,65.55417301355163,567.759761406709,746.4553171627693,743.7261014164163,138.0,527.8236166185493,710.9173005456146,0.7424543139032562,1373.9520952066114,1219.0133759999999,27.98791853357279,62.097433235889774,822.9269971466517,1085.270093458752,1080.7423077107028,121.0,767.4018425036417,1029.5459636784647,0.7453789044656071,1017.0909149447853,714.5940479999999,29.13028255535127,68.93585333492595,485.2397071254264,670.8899867872999,668.8676725027417,163.0,474.390859087453,598.6583359057763,0.7924233751288114,1003.0145372530121,714.5940479999999,83.96375560071836,70.0113558149411,485.9709928846858,683.1762705082917,681.1028931303656,166.0,483.0785736221482,596.366630273903,0.8100362245289896,1074.1962140903224,714.5940479999999,83.96375560071836,68.34014309680643,736.2334668265618,1092.2426293446254,1088.690611387308,155.0,772.3321699106093,886.4710627039672,0.8712435209726931,truth
1783335552008040850,1783335562008040850,1199.2143081739127,1134.943488,31.719641004715825,63.92794671396974,527.6673923138259,715.3079340438221,712.70548471824,138.0,505.79909079892633,654.9422827211844,0.7722804041562394,1402.470970576271,1261.0483199999999,36.59958577467211,61.83916813237838,859.0138907600594,1149.2337352240475,1144.312448317215,118.0,812.6309673452691,1070.3388176148787,0.7592277828025704,997.0084621796406,714.5940479999999,83.96375560071836,70.0362455921554,476.82030377625625,660.5256289799819,658.533088606156,167.0,467.06215139925473,587.9129846769098,0.794440952271076,1015.2464218536584,714.5940479999999,83.96375560071836,69.81854887254846,507.94419067617815,688.6645406899927,686.5488228154331,164.0,486.959366684613,630.436269009339,0.7724164846191605,1085.9949018947366,714.5940479999999,40.782395577491776,67.76382679345194,740.6775451643271,1097.4677026146092,1093.8289422749735,152.0,776.0268546520115,892.243023088867,0.8697483023912865,truth
1783335553008040850,1783335563008040850,1214.0680884705882,1134.943488,49.22013259352455,63.45223137037556,539.8409667345283,704.955166068057,702.3642837950734,136.0,498.47857835921184,677.2119994419987,0.7360746395071889,1357.7628659512193,1261.0483199999999,142.7383845212212,63.79940398034071,825.1877950283629,1104.5881718646815,1100.1071082000622,123.0,781.0617867439679,1028.0277412461703,0.7597672274847064,995.8460369454543,714.5940479999999,95.15892301414748,69.95523468715173,467.0817234987534,640.7308742718371,638.7746452453862,165.0,453.06514611320125,577.664833222383,0.784304531030341,1021.4749275092021,714.5940479999999,83.96375560071836,70.17052532633932,542.0480871431804,705.4534426505566,703.3248720715876,163.0,498.8309131096038,680.599821932302,0.7329283626512931,1074.1962140903224,714.5940479999999,83.96375560071836,68.414177071403,737.0589669305103,1089.882233852511,1086.3378919984232,155.0,770.6631182518532,888.5668351612653,0.8673102435924093,truth
1783335554008040850,1783335564008040850,1226.4862549333332,1176.9784319999999,44.60574516288163,62.24206439210199,531.8005407942097,737.6651828120895,734.9076132575724,135.0,521.6080530116427,655.4282187201964,0.7958278849057585,1391.0387350588228,1219.0133759999999,49.22013259352455,62.16073136403458,862.8840175761677,1196.5573338910722,1191.4817133335857,119.0,846.0938048728731,1063.579001416749,0.7955157103946459,974.9157187368419,714.5940479999999,83.96375560071836,70.43233684585088,426.8593452344205,582.0941517086677,580.3795849453653,171.0,411.6027219622299,528.8756005570289,0.7782599944650814,1016.52797502439,714.5940479999999,41.98187780035918,70.28934789130105,535.6504030588077,692.149780958884,690.0372823255594,164.0,489.4238037128104,673.8507837598532,0.7263088735787998,1061.8508783694265,714.5940479999999,83.96375560071836,68.91074971799142,730.1970550084787,1066.8234669472404,1063.3986636727248,157.0,754.3581078073363,884.2213528742552,0.8531326520844756,truth
1783335555008040850,1783335565008040850,1288.74576372093,1219.0133759999999,36.59958577467211,58.481676947018116,547.2241040576846,741.1696676849248,738.2714262071833,129.0,524.0860980297903,679.3933478106962,0.7714030461420116,1421.2840894358972,1261.0483199999999,37.56273276874243,59.67188888408569,862.5190545721101,1207.5767941898082,1202.3618205068067,117.0,853.8857399751253,1059.8668834025807,0.8056537602475353,1009.0934132363635,714.5940479999999,83.96375560071836,69.03980768713355,457.7592402395138,611.2404866349765,609.3740991127167,165.0,432.21229303535716,570.6867011976651,0.7573547659833316,1009.0934132363635,714.5940479999999,83.96375560071836,70.11248855547069,512.3979093801526,654.6392640617556,652.640360879225,165.0,462.8998628490383,646.5021991930676,0.7160066329655294,1089.8463957615893,714.5940479999999,83.96375560071836,67.91326058816827,750.6598265445275,1091.6708830586406,1088.0258949761162,151.0,771.9278842346713,910.5185451962043,0.8477893045751543,truth
1783335556008040850,1783335566008040850,1286.9917619999999,1240.0308479999999,21.304236495704657,58.85139808232597,555.7602341546086,736.0042051597857,733.302831307535,128.0,520.4335644502994,694.4878171947646,0.7493775291156003,1339.3085002926828,1176.9784319999999,33.985329647909815,64.02848692329339,837.5113640009009,1229.3102280400656,1224.2830859338435,123.0,869.2535984291115,1012.4473618269345,0.8585667079625418,1021.4749275092023,714.5940479999999,83.96375560071836,68.62347290794769,467.4782428470969,631.7327030630312,629.77989250807,163.0,446.702478233177,580.7755702859648,0.7691481892277728,1017.0909149447851,714.5940479999999,83.96375560071836,69.53909226471747,509.83616607438927,641.0452011933709,639.0636038674323,163.0,453.2874088109272,645.8568688042283,0.7018387985099024,1053.800083443038,714.5940479999999,83.96375560071836,68.84148084925688,650.2533495633719,935.5696200133856,932.5853393000515,158.0,661.5476225835865,791.7298837127292,0.8355723791570586,truth
1783335557008040850,1783335567008040850,1304.7381830551185,1303.0832639999999,29.737163441921084,58.282120519364604,567.8830869869328,761.3017190096625,758.3321961924768,127.0,538.3216080407079,707.1685259751382,0.7612352477061933,1321.9149189119998,1134.943488,34.81424012712713,64.081051308234,825.069414187323,1225.1431471964042,1220.20510834338,125.0,866.307027306806,993.0937235096429,0.8723315904618082,1052.7477694777067,756.6289919999999,83.96375560071836,68.23552098907626,507.87322918067224,664.6479733299799,662.5142664647058,157.0,469.97708904352436,636.7347970104154,0.7381049241381993,1013.9963178404907,714.5940479999999,83.96375560071836,69.42007856297509,487.6145886531382,598.988218428925,597.1366275431376,163.0,423.5486311019418,621.1596032265572,0.6818676374024596,1071.2130890322578,714.5940479999999,83.96375560071836,67.23858444425376,621.4394854456752,888.380560740445,885.4915526848703,155.0,628.1799187738762,758.3330818094345,0.8283693984113104,truth
1783335558008040850,1783335568008040850,1295.2017119999998,1282.0657919999999,47.57946150707374,59.13712579908379,574.8978713243724,792.8596143502571,789.782512026108,128.0,560.6364098360177,709.8299323709024,0.789817932815874,1275.2755318153847,1092.908544,46.04464016813588,65.73209786487527,799.5047727273891,1217.8762251034575,1213.1564372626592,130.0,861.168537416529,952.685750029718,0.9039376703069882,1025.601056981595,714.5940479999999,89.21149032576326,69.11835699135843,490.46416542428955,635.8145409354617,633.914168835153,163.0,449.58877347247665,616.4780308449335,0.7292859615066549,1008.8386559999999,714.5940479999999,89.21149032576326,69.45065975023451,484.28142709929256,590.3191267569971,588.5166772129346,165.0,417.41865759399377,618.0111919802657,0.6754224891243115,1077.179339148387,714.5940479999999,31.719641004715825,67.39469655647281,645.4535771352414,919.866113586812,916.9065239811275,155.0,650.4435667009498,788.4682769408239,0.8249457660168702,truth
1783335559008040850,1783335569008040850,1303.4142478110234,1261.0483199999999,33.985329647909815,58.61314054400077,601.1842871848183,862.7880892206712,859.3575066912513,127.0,610.0833086149205,732.6283318235598,0.8327323447844055,1267.7867461374044,1092.908544,40.782395577491776,66.69478590551168,804.054413315875,1225.561711144893,1220.8461489627077,131.0,866.6029967131427,957.8656597818778,0.9047228991490132,1042.3059681019106,714.5940479999999,83.96375560071836,68.85463697982593,533.7614365083907,683.6010186284235,681.5343719771563,157.0,483.37891589818963,673.0341403224261,0.7182086122208012,1033.6418838260868,714.5940479999999,95.15892301414748,68.51607190878082,523.298588530378,611.2785869381659,609.397967241398,161.0,432.2392340181076,673.9936556107123,0.6413105381926056,1087.6885182745098,714.5940479999999,44.60574516288163,67.54688094000441,675.2383391902897,946.3290417035136,943.2201020619248,153.0,669.1556826223216,829.463058630129,0.8067335557142743,truth
1783335560008040850,1783335570008040850,1275.808682015267,1176.9784319999999,71.3691922606106,60.24934709069294,606.5934871773322,848.4056180891158,845.1412303880425,131.0,599.913365747578,745.6294617104523,0.8045730440578276,1276.1295594503815,1134.943488,67.97065929581963,65.34310556647938,777.0488085851666,1171.8163182080157,1167.3309050884047,131.0,828.5992649099411,929.6888355480055,0.8912651558534882,1060.244447388535,714.5940479999999,89.21149032576326,68.51114519044884,553.7758217952472,716.1078847107881,713.8090279196856,157.0,506.36474134015265,696.5146775005986,0.7269979480650893,1014.9901112195122,714.5940479999999,89.21149032576326,69.77526369208387,523.6982447448217,640.0017150958054,638.0523846966014,164.0,452.5495527152648,667.9215180440149,0.6775489941401207,1053.5340394936707,714.5940479999999,89.21149032576326,67.7391655174935,540.6398480229392,738.0001746014739,735.6478550414809,158.0,521.8449279775583,669.6430587354595,0.7792881911790437,truth
1783335561008040850,1783335571008040850,1229.9113244444443,1092.908544,39.649551255894785,61.13252257904685,582.2259979287086,803.0427736751434,800.0495899380684,135.0,567.8369908485479,718.8565929587029,0.7899169269790215,1260.1001633684207,1134.943488,14.565141277675634,64.92867597653833,717.6682402304125,1053.3140534534425,1049.4523673486594,133.0,744.8055099160188,867.5988602287372,0.8584675984010114,1065.866955821656,714.5940479999999,95.15892301414748,68.00138261421166,548.4407452575509,714.3970683327958,712.1330166725386,157.0,505.15501147790934,688.4647480493771,0.7337412887285252,1034.5850592,714.5940479999999,83.96375560071836,68.76562850418036,536.9661496822372,641.9437422297074,640.0228325143032,160.0,453.92277327089516,688.2167897996701,0.6595636433151035,1059.9767088917197,714.5940479999999,46.04464016813588,67.43818418655538,541.7354034980361,750.5687421058526,748.168715864964,157.0,530.7322472897054,667.9192583312519,0.7946053967895785,truth
1783335562008040850,1783335572008040850,1220.8815957333331,1092.908544,118.94865376768433,62.67324497410676,592.5502333628324,827.38512923467,824.3293951768167,135.0,585.0496355347432,728.7592332842352,0.8028023643668313,1247.5594946865672,1134.943488,27.44968933100408,63.34104836930692,677.4715923916613,1008.0077789175904,1004.265285977413,134.0,712.7691359614183,814.8101597340285,0.8747671189987143,1065.06374033121,714.5940479999999,37.56273276874243,67.7505900479934,540.3586641167523,722.166761740079,719.8685756548242,157.0,510.6490143739396,673.4936999197128,0.7582090440264165,1025.6010569815949,714.5940479999999,21.304236495704657,68.93603282580757,515.1922873946769,606.1822720827772,604.3084429562907,163.0,428.63559522480057,662.5571290349679,0.6469413374951073,1099.8221861052632,714.5940479999999,28.54767690424424,66.57860622918702,625.8476023075149,866.5031607896044,863.6780357098013,152.0,612.7102609139066,771.7924013059061,0.7938796234287542,truth
1783335563008040850,1783335573008040850,1237.3842033777778,1050.8736,25.48899723593236,63.176090962305885,628.2112879183832,894.8809840257994,891.5701145167568,135.0,632.7764121595333,767.5257980311814,0.8244366688164744,1248.5005755223879,1134.943488,50.97799447186472,62.93029129075794,658.7889756988953,990.6936227998307,986.9785791133464,134.0,700.5261787600278,789.0737389121097,0.8877829082562528,1055.1303031898733,714.5940479999999,41.98187780035918,68.72210705100086,556.0232840793385,736.320685181746,733.9860814394452,158.0,520.6573496199376,694.8249758177354,0.7493359734329915,1079.620077832258,714.5940479999999,29.737163441921084,66.65165598153386,585.3762229581532,759.5444506184116,757.121665538974,155.0,537.0790316448896,735.5975133816053,0.7301262196712587,1079.620077832258,714.5940479999999,95.15892301414748,67.12505900671995,604.6021073539654,831.3467965437437,828.6434023876025,155.0,587.8509573537942,747.1967896095549,0.7867418135736018,truth
1783335564008040850,1783335574008040850,1252.5785924776117,1134.943488,52.86606834119304,62.63276789279265,634.269419467928,876.4580827510614,873.2083890388025,134.0,619.7494537390357,782.6561826494749,0.7918540317934222,1257.8638545454544,1134.943488,21.304236495704657,62.42026533050298,656.1880594285273,971.6083689821288,967.9958040480847,132.0,687.0308663648646,790.6704958477486,0.8689218454120224,1096.5036378947364,714.5940479999999,43.25405591552158,67.42190221727834,611.9413511362242,816.5828292050862,813.8881795706111,152.0,577.4112559314128,763.0481998030724,0.756716621676627,1072.9828887272727,714.5940479999999,89.21149032576326,66.90187594878356,585.0488186085153,784.3888669404396,781.8213023855878,154.0,554.6466869008174,728.5243761641831,0.7613289342782678,1130.9672095135134,714.5940479999999,43.25405591552158,65.72373659994018,667.5962875158835,867.2438997050168,864.2947804607749,148.0,613.2340424240834,838.6546433521305,0.7312116462778606,truth
1783335565008040850,1783335575008040850,1211.3427657810219,1050.8736,118.94865376768433,65.27770866465441,624.5037689485712,913.3035532810175,909.9404644136156,137.0,645.8031358067768,755.962346782568,0.8542795002361732,1251.250701473684,1134.943488,57.09535380848848,61.983088541390934,624.9133721314856,918.4235927455926,914.9460818082403,133.0,649.4235504321206,755.0880554011954,0.8600633340532279,1066.7714313846152,714.5940479999999,95.15892301414748,68.61556340860326,597.9312452976068,808.5155369843046,805.9033846051458,156.0,571.7068188962846,742.7107140872811,0.7697570642950216,1092.359067607843,714.5940479999999,95.15892301414748,66.58003453104232,614.5965139384274,829.2772430049379,826.545040916897,153.0,586.387562012476,763.8930314180562,0.7676304638149831,1124.434752,714.5940479999999,95.15892301414748,65.95324602917722,680.3574667602892,883.9529879996421,880.9414000176197,148.0,625.0491520646578,854.6515921149286,0.7313496608809977,truth
1783335566008040850,1783335576008040850,1270.6017163636363,1113.926016,35.6845961303053,62.19551254735482,661.999375231671,970.5332916554955,966.8525399418932,132.0,686.2706718969022,800.6263973048433,0.8571671808562671,1238.9410531555552,1134.943488,41.98187780035918,63.857186785071676,661.4055805376618,931.1567328388177,927.7014308243779,135.0,658.4272401378383,811.2653503354852,0.8116052779347186,1068.1187052307691,714.5940479999999,71.3691922606106,68.09893189020225,588.0798003487379,780.9476759217187,778.4248386679267,156.0,552.2133973961215,734.3063972379238,0.752020409291352,1111.96438528,714.5940479999999,59.47432688384217,66.18929828140668,659.3388596698856,895.0145643298001,892.0082894802741,150.0,632.8708676983251,818.0419892346325,0.773641055137579,1144.4445369863013,714.5940479999999,95.15892301414748,65.44168861509517,700.6499134315231,901.3108506492391,898.1975518570473,146.0,637.3230144510925,882.4569621282888,0.7222142742395187,truth
1783335567008040850,1783335577008040850,1247.3551185454546,1050.8736,118.94865376768433,65.09975598542708,686.8565700922476,1003.0594732012622,999.2941976476645,132.0,709.2701554340185,831.8724776449061,0.8526188502377383,1294.2852524651162,1176.9784319999999,178.42298065152653,61.78955696206035,676.1143529412877,951.5361545825413,947.8856571004619,129.0,672.8376674494858,829.400972471699,0.8112332753171984,1078.535305083871,714.5940479999999,89.21149032576326,67.0546107419635,583.9570769674107,805.04414253418,802.4261522933689,155.0,569.2521723404282,721.1017387466878,0.7894200523352196,1130.624829369863,756.6289919999999,83.96375560071836,65.43926356707294,671.0123500797462,903.235215873041,900.1152230756772,146.0,638.6837461503225,834.5997149057642,0.7652575656851706,1177.5746723404254,840.6988799999999,62.06016718313966,63.82378094000201,713.409479001245,933.7135563276174,930.3746330209053,141.0,660.2351873650657,894.3997529852991,0.7381880251658766,truth
1783335568008040850,1783335578008040850,1244.422558567164,1092.908544,33.985329647909815,64.24197142524642,653.5041877242213,943.4390607513969,939.8945857683802,134.0,667.11215749358,794.7428083401064,0.8394063469248689,1308.463736832,1176.9784319999999,36.59958577467211,60.600318178989184,685.7972865982994,951.0712549979696,947.2314994114207,125.0,672.5089338006644,845.2820260660502,0.7956030213141131,1103.765251390728,714.5940479999999,67.97065929581963,65.46971374035002,584.7031715213805,817.962642607856,815.2323116504093,151.0,578.3869313452834,718.6723011211819,0.8047992533494849,1155.96096,882.7338239999999,89.21149032576326,63.75717762659391,655.3636332943901,876.9849390366562,873.9132279355772,144.0,620.1219973912906,816.533733452186,0.7594566788680057,1185.3854207999998,882.7338239999999,25.95243354931295,63.38221080883689,702.8765540096246,904.6811070895712,901.443354435363,140.0,639.706145634389,885.1321505694425,0.7227238839113903,truth
1783335569008040850,1783335579008040850,1212.2136056470588,1050.8736,26.93177066438136,67.89685555487048,658.1442858081864,934.6148117594568,931.1510581758564,136.0,660.8724711925005,804.9419794580814,0.8210187666413247,1353.3873773114753,1366.1356799999999,109.79875732401632,59.670221630080924,723.2498134046089,982.354647626947,978.3424206985376,122.0,694.6296328671356,897.1763604504063,0.7742397854959231,1105.6894391351352,714.5940479999999,83.96375560071836,65.66452792645327,605.8331401296532,820.1943189343691,817.3997816145776,148.0,579.9649648091743,752.2552141099844,0.7709683547961155,1163.9535197746477,882.7338239999999,36.59958577467211,63.47041782244043,656.7057284674357,892.0536095327797,888.9088663535683,142.0,630.7771564825651,814.6072164140063,0.7743328855584143,1165.3517453617021,756.6289919999999,64.88108387328236,64.55416386585158,724.1052932986709,971.9329484859262,968.4601928928067,141.0,687.2603787330338,901.3842340967428,0.7624499661032148,truth
1783335570008040850,1783335580008040850,1246.5099183157895,1092.908544,57.09535380848848,66.31246341004616,678.682128565278,971.5586765422414,967.8968886221281,133.0,686.9957285036464,827.7906122786518,0.8299148580732988,1365.9619818842975,1261.0483199999999,54.89937866200816,60.044817287098084,752.2987552276101,1045.168915948181,1040.8070568946575,121.0,739.0460279523514,926.7212733707742,0.7974846905847005,1115.2127999999998,756.6289919999999,64.88108387328236,65.15442865156335,612.676504127911,864.2280709717679,861.263300412478,147.0,611.101529475906,751.0142859872244,0.8137016044543013,1199.3567475107911,924.7687679999999,64.88108387328236,61.66148220274327,664.0391749197787,902.3414358664951,899.0674285137433,139.0,638.0517482468049,823.6146155428999,0.7746969713817208,1157.7124159999998,861.7163519999999,83.96375560071836,65.04969216124925,718.3772935809025,960.6060228961215,957.2413679946964,144.0,679.2510328384874,895.2323101068059,0.75874275891299,truth
1783335571008040850,1783335581008040850,1302.7522801889766,1261.0483199999999,109.79875732401632,63.40977222864863,690.8364872867542,999.0652291227816,995.0948002388994,127.0,706.4457983604107,839.6292463479725,0.8413782647914507,1343.423250580645,1324.1007359999999,40.782395577491776,60.54055358273018,701.6287165068144,985.4094683196112,981.4107963530325,124.0,696.7897172942274,861.2826229470293,0.8090140201714966,1143.3504767999998,756.6289919999999,41.98187780035918,64.34731408310955,637.2527702533929,892.5006989589663,889.4086026029522,145.0,631.0932964476185,782.9705051792732,0.806024355033808,1228.043104711111,1008.838656,41.98187780035918,60.56327235366693,680.5381186672803,943.1752051172787,939.6493041582722,135.0,666.9255833854406,838.9692455813845,0.7949344828763992,1172.538121014084,798.6639359999999,83.96375560071836,64.93682364452337,740.8750841506032,998.0550848593629,994.5582436543028,142.0,705.7315185017707,921.2835027975478,0.766030778103334,truth
1783335572008040850,1783335582008040850,1274.8460497099236,1219.0133759999999,34.81424012712713,64.06077062144672,677.6014267683767,971.5566106598715,967.8364608668238,131.0,686.9942677042135,826.0186591039304,0.8316934007876634,1303.7400599999999,1197.9959039999999,83.96375560071836,63.31432661675227,709.2880385163438,976.1395946475064,972.2925358642642,128.0,690.2349267599395,876.3372159762903,0.7876362137501806,1122.933504,714.5940479999999,83.96375560071836,65.38940871441903,644.7590043659708,894.7789672947599,891.7093906072954,147.0,632.7042754372208,794.5256429743011,0.7963295848686479,1162.8688004475523,924.7687679999999,49.22013259352455,63.38856011230263,656.3403902724639,903.2074023546548,900.0226926935484,143.0,638.6640790228629,810.937428467178,0.787562710269837,1148.278711613793,756.6289919999999,41.98187780035918,65.84967874783166,706.7849326515429,938.9105185397074,935.6578927430127,145.0,663.9099945868047,882.4407297889001,0.7523564724235101,truth
1783335573008040850,1783335583008040850,1273.8834174045803,1219.0133759999999,33.19497314447005,63.02624665282387,654.6351345350902,941.9356562592284,938.3379232887737,131.0,666.0490899823012,797.0468139340534,0.8356461356326421,1301.7798548837209,1219.0133759999999,109.79875732401632,62.780228463152135,689.4431226219136,938.2685431618517,934.5983222041522,129.0,663.4560494437682,854.7377807781427,0.776210042850529,1132.3699199999999,756.6289919999999,43.25405591552158,65.01426038203972,653.2107589811745,905.4873201778744,902.3810080377756,147.0,640.2762243762095,805.227774947435,0.7951492041093671,1105.5190271999998,756.6289919999999,40.782395577491776,65.87742087320873,584.5617827963964,776.1122322776966,773.5085889204082,150.0,548.7942224053882,729.957126507739,0.7518170622306677,1175.7943490704224,756.6289919999999,31.719641004715825,65.4526844782492,742.0790193976867,1001.2944478982446,997.7723580366793,142.0,708.0220940732889,922.3420727758775,0.7676350401564445,truth
1783335574008040850,1783335584008040850,1267.7356974545453,1197.9959039999999,83.96375560071836,65.46734283612527,727.3220137736007,1006.9370018836167,1003.0865735599507,132.0,712.0119822595568,896.9470954291451,0.7938171447212213,1267.0988043636364,1155.96096,44.60574516288163,64.54611010400382,694.5241230364541,939.6754498257549,936.0834064110209,132.0,664.4508826863107,862.5427683354619,0.7703396365707991,1103.4868742781457,714.5940479999999,95.15892301414748,66.11988556853639,617.3122852658275,855.7972544846936,852.9400107668944,151.0,605.1400419669563,760.9544532259155,0.7952381898832251,1098.7544633642383,756.6289919999999,95.15892301414748,66.36064468526935,586.3242318794286,779.4343060089701,776.8318469706257,151.0,551.1432832683734,731.8966801619492,0.7530342713761456,1133.513728,714.5940479999999,95.15892301414748,66.86946632177649,717.5081117425659,990.9109785142338,987.5117848213912,147.0,700.6798724596119,885.52788719371,0.7912566985102047,truth
1783335575008040850,1783335585008040850,1273.241662534351,1219.0133759999999,57.09535380848848,64.75913615778266,718.0187942970111,969.6406220383595,965.9105841008173,131.0,685.6394591572661,892.2170385902373,0.7684671212294066,1309.3228259999996,1219.0133759999999,50.97799447186472,62.22905284112533,695.7639356194242,965.8213399495337,962.0141689490265,128.0,682.938818892993,857.3051924733585,0.7966110842309123,1079.3488846451612,714.5940479999999,95.15892301414748,67.31609151153141,601.5806216550103,825.1699415096409,822.4866360862044,155.0,583.4832612727738,744.0242809269744,0.7842261015269775,1047.7011513962264,714.5940479999999,95.15892301414748,68.19223736430759,538.9856659303991,692.9210154976593,690.7288969197584,159.0,489.96914888506365,678.9522904647239,0.7216547550781417,1122.8125981208052,714.5940479999999,95.15892301414748,67.72243916782854,722.6894609726594,945.7050450384637,942.5048515542485,149.0,668.7144503490271,906.0742827986596,0.7380349084442818,truth
1783335576008040850,1783335586008040850,1206.009760230216,1176.9784319999999,50.97799447186472,67.35535660544178,663.1814814207418,889.0140886573957,885.7890520250021,139.0,628.6278906600231,825.8527968960233,0.7611863676223267,1249.1279627462686,1113.926016,57.09535380848848,64.39037269496748,645.3128908898929,876.0964010786689,872.797506808613,134.0,619.4937061758561,800.6067875690242,0.7737802324370708,1048.196215031847,714.5940479999999,64.88108387328236,68.74072086872337,587.943924284654,798.5552317377959,795.9932867808599,157.0,564.6638195137904,729.3377144180375,0.7742144802759229,1031.9319277037036,714.5940479999999,35.6845961303053,69.060816583199,526.165821813562,654.3636779076708,652.355965983005,162.0,462.70499401068383,668.3210219260418,0.6923394279551601,1119.8904337297297,714.5940479999999,50.97799447186472,67.40516110318208,710.740295686855,926.070126897227,922.9212322821153,148.0,654.8304665833158,892.1334349990559,0.7340050724407708,truth
1783335577008040850,1783335587008040850,1229.522112,1219.0133759999999,39.649551255894785,65.57983069329245,659.8033318820632,877.765252239225,874.5109432417162,136.0,620.6737621482764,823.4457565715525,0.7537518497058933,1255.043328,1134.943488,34.81424012712713,64.77094656267752,656.3242567439177,930.3935360048621,926.8941276022624,133.0,657.8875784811682,803.1905297132208,0.8190927982132297,1019.4118627730061,714.5940479999999,95.15892301414748,70.14082688819268,571.0564288515809,783.9487050382816,781.5254078321924,163.0,554.3354454349815,706.0927678659807,0.7850745265531407,1002.9792395636362,714.5940479999999,95.15892301414748,70.60013146618938,511.9224869007396,657.4584537706056,655.4654252743051,165.0,464.8933310096175,645.0320616687724,0.7207290282701372,1100.7031031523177,714.5940479999999,95.15892301414748,68.7289294027496,717.8571467333044,959.5276866130166,956.3357782803128,151.0,678.4885339403045,894.6867725008177,0.7583531519570826,truth
1783335578008040850,1783335588008040850,1223.6495830588233,1176.9784319999999,178.42298065152653,67.76898691340423,680.6195150802836,916.2884638422929,912.8887073287067,136.0,647.91378630589,846.5162203842426,0.7653885072772676,1223.340502588235,1134.943488,35.6845961303053,66.04124619812417,615.1369742951515,878.8111858568933,875.5505011369588,136.0,621.4133489020006,750.8060463216768,0.8276616203963827,976.7528111715975,714.5940479999999,89.21149032576326,71.52155081560248,483.88606561515553,663.354346273516,661.3788345349128,169.0,469.06235657957234,598.5663721034103,0.7836430151116734,983.3704252235293,714.5940479999999,89.21149032576326,71.68238572628434,505.6262242040628,649.3505979930217,647.4266397700247,170.0,459.1602112084053,637.104157439928,0.7206988148585408,1046.908039245283,714.5940479999999,67.97065929581963,69.79564662100822,628.4596925988892,847.8962059103793,845.3749004465707,159.0,599.5531569415745,781.1473461797566,0.7675288917945143,truth
1783335579008040850,1783335589008040850,1246.9321074626862,1219.0133759999999,178.42298065152653,65.141934957332,664.3298013850314,910.5554946809252,907.1754457532919,134.0,643.8599649355535,821.8213569828569,0.7834548949900123,1206.220132173913,1113.926016,34.81424012712713,67.04370121200984,618.4236651505591,880.3827773716683,877.1715441018852,138.0,622.5246319193533,755.7295816383918,0.8237399289964865,960.522628413793,714.5940479999999,95.15892301414748,71.96435042331372,453.6329908837807,603.135392084673,601.4074190566076,174.0,426.4811257166794,566.235556584047,0.7531867625719761,986.8203519999997,714.5940479999999,64.88108387328236,71.82012050696976,524.4709184122928,686.322858800549,684.2715810033651,168.0,485.3035475412056,657.5558697878289,0.7380415411663752,1047.1724099622643,714.5940479999999,41.98187780035918,69.76784867889012,614.4521722812297,871.5518529509441,868.789399558298,159.0,616.2802253773132,751.7993654870213,0.8197402840026105,truth
1783335580008040850,1783335590008040850,1251.813370181818,1219.0133759999999,26.43303417059652,65.77622449978111,685.2605173183375,931.760131679493,928.2263221600598,132.0,658.85390754984,849.776274935906,0.7753263146815127,1223.9586635294118,1113.926016,13.34003593656273,66.28371714327456,658.2206118033247,862.8314106822772,859.9469413077471,136.0,610.1139415141931,824.8571008304978,0.7396601676822653,945.7862399999999,714.5940479999999,43.25405591552158,72.27617316425075,420.4935351102142,540.4186022864031,538.8723370219437,176.0,382.1336583560715,529.7325360166888,0.7213709417011016,980.7324508402367,714.5940479999999,95.15892301414748,72.02208840822968,513.9768421860877,682.6848025712679,680.6500160079607,169.0,482.73105331114294,641.7396307629147,0.7522225995880312,1033.6418838260868,714.5940479999999,43.25405591552158,69.44799087005059,588.0850923370049,831.1336873561232,828.5323652338694,161.0,587.7002664020946,720.4112367901411,0.8157844247691742,truth
1783335581008040850,1783335591008040850,1250.9346492631578,1219.0133759999999,89.21149032576326,66.13591469997367,681.9700393257717,936.328273516447,932.7748870728068,133.0,662.084071620172,843.2014054361014,0.7852027609913008,1266.1823589618318,1219.0133759999999,38.57794176249222,63.805855743642226,675.6444831597361,910.0021023169121,906.4955681075089,131.0,643.468657442303,840.2172211357453,0.7658360734055275,903.4104721297296,714.5940479999999,44.60574516288163,74.42190470718916,382.23166500844553,486.9841449660745,485.67110487936674,185.0,344.34979123584395,482.61133648949067,0.713513681093031,956.8989263448275,714.5940479999999,83.96375560071836,73.40906641401807,507.4005379328775,662.5409042877523,660.6232710203717,174.0,468.487166235337,636.5300458937809,0.7360016534294351,1000.7840559520956,714.5940479999999,44.60574516288163,70.9616874335267,558.5707364177736,796.1435245915474,793.7509676786357,167.0,562.958485036442,682.3059484038849,0.8250821883546056,truth
1783335582008040850,1783335592008040850,1274.525172274809,1261.0483199999999,89.21149032576326,65.04167093457119,701.1198199001135,966.1837400041514,962.4780727105431,131.0,683.1950744291156,865.8869723303571,0.7890118413381786,1275.5988775384617,1219.0133759999999,142.7383845212212,64.05312046651842,689.3093295970043,919.954311721839,916.3844988937724,130.0,650.5059322003153,859.4857298553842,0.75685483726387,917.762944,714.5940479999999,35.6845961303053,73.3749547465364,378.9401974752964,487.64693328652,486.3055633907471,180.0,344.8184533517222,477.22265625103796,0.7225525629075207,997.2601684311377,714.5940479999999,43.25405591552158,71.08514362082185,536.322301421482,704.6326887052702,702.5160399964325,167.0,498.25055242920615,671.6817814308093,0.7417955439670229,1014.9901112195122,714.5940479999999,44.60574516288163,70.3377759756828,602.4922580837938,842.1558508734671,839.5763391148665,164.0,595.4941129685554,740.7342457398026,0.8039241015160711,truth
1783335583008040850,1783335593008040850,1278.8323347692306,1240.0308479999999,62.06016718313966,64.75517384012123,699.6276288683929,960.347123443965,956.6203253348382,130.0,679.067963280222,865.0959419482009,0.7849626039754124,1304.0684579999997,1261.0483199999999,31.719641004715825,64.0926272720581,714.5933635202834,966.5308231338246,962.7659120464639,128.0,683.4404992637429,887.5482479040375,0.7700319400975677,915.7115148729281,714.5940479999999,43.25405591552158,73.40631598057348,376.6319082525584,474.5342274743884,473.2329101259798,181.0,335.5463701522597,476.87263012962745,0.7036393975075667,1029.2034114782607,714.5940479999999,54.89937866200816,70.40177554770843,660.7497701864803,901.5906720120304,898.7826464450203,161.0,637.5208780342431,818.5133368725258,0.7788765916388847,1031.6951568,714.5940479999999,13.858095584584584,69.68066433526725,632.6065511906813,844.7296550225046,842.2902074876496,160.0,597.3140673357859,788.6634578197004,0.7573751026668467,truth
1783335584008040850,1783335594008040850,1283.0358291692307,1261.0483199999999,31.03008359156983,63.00805173664228,636.3348203305276,902.01451114228,898.5130060935999,130.0,637.8205775573748,778.7403049491904,0.8190414358981842,1345.4627567213115,1324.1007359999999,79.29910251178957,62.845171717687755,744.1451092673218,1025.9262428251677,1021.6972186051718,122.0,725.4394032989127,918.8975586884576,0.789467113542376,906.5228307692306,714.5940479999999,64.88108387328236,73.59211890040716,367.3661879227303,439.7388012471821,438.52390807790107,182.0,310.9422883127259,470.7157090295377,0.6605734254201703,1024.1721575849056,714.5940479999999,67.97065929581963,69.20610423388247,529.7750176231868,694.4889005683528,692.2895026974126,159.0,491.0778110506722,663.8858564106754,0.7397021736623574,1071.7554754064515,714.5940479999999,12.305033148381138,68.15772524724443,678.8481488895447,906.4264489995992,903.8052504486413,155.0,640.9402887344588,846.3258188428481,0.7573209684312765,truth
1783335585008040850,1783335595008040850,1299.142488,1282.0657919999999,71.3691922606106,62.418288578038336,644.619597821025,934.273912531206,930.6251867449112,128.0,660.6314190365031,782.8485906487845,0.8438814694537623,1367.8584236065572,1324.1007359999999,16.406710864508184,61.73844539902119,770.7623830122828,1061.1704662111758,1056.9079172490535,122.0,750.3608326528125,952.1704745180008,0.7880530353901737,907.0819336393444,714.5940479999999,83.96375560071836,73.76946052422436,375.4370818946179,455.95313360378117,454.698789731763,183.0,322.4075526744895,479.5129715787835,0.6723646111448693,1052.4800309808916,714.5940479999999,89.21149032576326,67.98958000560789,556.1491755416837,723.8897519751845,721.5658623441781,157.0,511.8673524531009,698.283407835039,0.7330366821117756,1082.6763536842104,714.5940479999999,83.96375560071836,67.86371370321694,773.136038940752,1099.9937587601614,1096.3453802081376,152.0,777.8130460821894,944.977302420627,0.8231023582151292,truth
1783335586008040850,1783335596008040850,1270.6746430534351,1219.0133759999999,35.6845961303053,64.14155746860827,657.0323725555851,951.6713429586785,948.0075315449407,131.0,672.9332600669901,798.0999253977216,0.8431691805153891,1383.6502399999997,1303.0832639999999,54.89937866200816,59.43666285025539,768.7302689020023,1078.4859545024117,1073.9617292467,120.0,762.6047318431017,943.9859448834738,0.8078560236797149,901.6952389565215,714.5940479999999,95.15892301414748,73.90621349984188,362.97825339376544,458.5256987800125,457.2714109209556,184.0,324.22663095564707,459.2874598365957,0.705933994085098,1050.0754681518986,714.5940479999999,29.13028255535127,67.81658783646121,541.924547389861,701.4722027388992,699.2871332263578,158.0,496.01575137054033,681.4313005164721,0.7279027995846373,1077.3501556363635,714.5940479999999,95.15892301414748,67.81950336351764,667.4389502607861,918.6644516054446,915.6575234567662,154.0,649.5938633652307,824.5989394787973,0.7877694625411698,truth
1783335587008040850,1783335597008040850,1273.6588032,1240.0308479999999,142.7383845212212,65.70271229875517,695.4408091924576,1032.7289934220405,1028.7299919193445,130.0,730.2496743766823,837.0445297096775,0.8724143680025767,1434.3053935304345,1387.1531519999999,19.824775627947393,58.312863105401945,800.8567532705024,1059.9655951280195,1055.4873158976934,115.0,749.508860139457,1000.9302237439763,0.7488122971608566,931.1092344134076,714.5940479999999,71.3691922606106,72.72360855370039,415.75393305192813,534.5783614137594,533.0750926007914,179.0,378.00398443126227,523.697584082015,0.7217982208068845,1060.3653615483872,756.6289919999999,83.96375560071836,66.72833744859099,532.3634505876639,721.2216224629046,718.876231900755,155.0,509.98069998188396,660.8944922347303,0.7716522167667783,1089.3369474509805,756.6289919999999,44.60574516288163,66.53835069290051,638.9658563860029,858.4495471617345,855.6310956085157,153.0,607.0154961045833,795.186031692364,0.7633628759960678,truth
1783335588008040850,1783335598008040850,1297.8696275348839,1345.1182079999999,32.44054193664118,63.96845270030885,695.5244800408831,1026.5074411270807,1022.4911024762844,129.0,725.8503725594095,839.0942873121976,0.8650402982535692,1448.7560871724136,1408.1706239999999,109.79875732401632,57.63627579317283,808.3194142307998,1078.101683744067,1073.4040505754876,116.0,762.3330113840645,1008.0598894519603,0.756237818170221,933.7425200898874,714.5940479999999,83.96375560071836,72.68270868525282,422.92878473125063,532.1739290704978,530.6804398929062,178.0,376.30379401643773,535.6633655691999,0.7025005221639051,1031.6724527407405,735.6115199999999,83.96375560071836,67.78386207888364,499.23840959157286,666.5802642502955,664.5317390005356,162.0,471.3434250565047,622.411172016576,0.7572862542447294,1125.7930239999998,756.6289919999999,95.15892301414748,65.90980653535745,684.6951124412216,907.0200154887547,903.9086287823014,147.0,641.3600036240258,855.5369465297737,0.7496578683428089,truth
1783335589008040850,1783335599008040850,1265.825018181818,1303.0832639999999,142.7383845212212,65.82553793204595,678.6213885135462,1003.4755175134727,999.6383269803638,132.0,709.5643431884566,818.1156393407193,0.8673154613695699,1501.411772509091,1429.1880959999999,31.719641004715825,55.295035656496935,812.8200457539388,1089.571246247559,1084.6154480437178,110.0,770.4432168075266,1012.2062430139945,0.761152405574399,944.4800694237285,714.5940479999999,64.88108387328236,72.36309541679677,454.8107733122216,590.8855539666948,589.2052850736495,177.0,417.8191821150196,571.3311164028178,0.7313082906208028,1038.3414427826087,756.6289919999999,38.57794176249222,67.74048095993125,521.1283076775557,681.2498548171814,679.135956730946,161.0,481.71639202357994,653.5473088871521,0.7370796046025152,1105.5190271999998,714.5940479999999,40.782395577491776,66.66457044314964,664.0551538506954,863.654239442796,860.7645526543772,150.0,610.6957693105113,833.9447424047129,0.7322976430663088,truth
1783335590008040850,1783335600008040850,1243.8522065454547,1282.0657919999999,129.76216774656473,67.56411435344799,678.5281018978236,1012.9746389383894,1009.1060184343974,132.0,716.2812363633296,815.0284445018079,0.8788420099879602,1501.6887333577984,1513.2579839999999,54.89937866200816,53.92761085626259,743.3191712837659,992.8884581625343,988.2848176838071,109.0,702.0781617285837,926.6012671089303,0.7576917781681041,962.1871574566471,714.5940479999999,43.25405591552158,71.19803093454848,458.91563503782436,609.4198962997903,607.6583254786085,173.0,430.9249412635843,573.0261491963761,0.7520161896065695,1032.3364507826084,714.5940479999999,95.15892301414748,68.10964569464961,521.8906346118508,667.7832679707957,665.693381734001,161.0,472.1940771450631,658.2218818496403,0.7173782734450749,1147.6989192827584,756.6289919999999,20.103997819890314,66.02395448284777,816.0405348234666,1106.9045331253224,1103.1670436253114,145.0,782.6997014990447,1012.6869691995606,0.772894018886902,truth
1783335591008040850,1783335601008040850,1199.659157179856,1176.9784319999999,39.649551255894785,68.67780964859291,643.7725195508782,940.7604083589517,937.3654552664647,139.0,665.2180642224404,779.5053414658852,0.8533848696552562,1506.4415065945943,1513.2579839999999,41.98187780035918,54.2228632520938,752.9588159422816,1029.1753061956983,1024.488337760186,111.0,727.7368380407197,932.2518459566884,0.7806225766106231,966.07478233526,714.5940479999999,44.60574516288163,70.99116865564923,461.08226640409913,615.9565877240025,614.1743463684134,173.0,435.54708009616866,574.7548027589958,0.7577963298530291,1035.6359327999999,756.6289919999999,44.60574516288163,67.78638915946892,520.4986794644698,681.232741441665,679.0871211784354,160.0,481.7042910397033,652.5474991488987,0.7381903871641192,1144.7324475616438,714.5940479999999,83.96375560071836,66.06972573361189,815.193064715646,1116.181898275692,1112.3263361563586,146.0,789.259789308415,1008.7685353991732,0.7823992934078798,truth
1783335592008040850,1783335602008040850,1234.270503822222,1219.0133759999999,49.22013259352455,67.56606539218764,676.5197327299327,1010.5999743616918,1006.8237765712912,135.0,714.6020949381034,812.4221935059356,0.8795945022800297,1478.662853097345,1513.2579839999999,44.60574516288163,56.51518677595267,762.3461233483598,1018.9891321346574,1014.46049093526,113.0,720.5341252878111,950.136048530109,0.7583483716910864,949.8464334545454,714.5940479999999,43.25405591552158,71.89209394298483,453.1354480213266,609.9316970623331,608.198681070857,176.0,431.28683905339483,563.6127214112918,0.7652184251154736,1007.0660981204819,714.5940479999999,83.96375560071836,69.25904986015377,497.2640878170622,627.049264942453,625.2027540704552,166.0,443.3907873788486,629.4803022326054,0.7043759523630129,1107.1057767417217,714.5940479999999,43.25405591552158,66.8112957566841,735.8538802598518,993.5175226121567,990.2002991733506,151.0,702.522977466715,914.4356725612861,0.7682584992545022,truth
1783335593008040850,1783335603008040850,1198.1471088345324,1176.9784319999999,95.15892301414748,69.27065219524077,660.9095312259852,988.3141040945466,984.7347068667316,139.0,698.8436049475613,793.3546652302812,0.8808716146450253,1483.2330239999997,1513.2579839999999,44.60574516288163,54.49986465923193,732.4573536504845,973.8363463161761,969.4755697345975,112.0,688.6062842460992,914.274708433812,0.753172189817772,955.0339276799999,714.5940479999999,44.60574516288163,72.07268559316124,469.56807823939863,620.1279614453626,618.3436056147742,175.0,438.4966867414058,587.2381868214028,0.746710102615936,994.8270079999999,714.5940479999999,83.96375560071836,69.35174341172686,456.97924464791106,569.0311404953402,567.3248963530244,168.0,402.3657781505701,580.2679987424723,0.6934136968134673,1078.264111896774,714.5940479999999,83.96375560071836,67.88075272652814,712.0783376920294,953.0291378714592,949.9411811322078,155.0,673.893366057278,887.155557730708,0.7596112769456776,truth
1783335594008040850,1783335604008040850,1212.6167540869565,1219.0133759999999,64.88108387328236,68.49913560060989,673.132279563042,1002.073449699627,998.4231741161706,138.0,708.572931529603,809.4296337120644,0.8753978134950038,1429.9128364137928,1471.2230399999999,49.22013259352455,57.10758007533522,704.0556115960721,890.9548869482705,887.0745947870636,116.0,630.0002422924159,890.4709179954093,0.7074910921410504,919.891785546961,714.5940479999999,89.21149032576326,73.86443806226951,435.6086330092766,584.3904949976842,582.7649739795302,181.0,413.22648187382566,542.3391002348177,0.7619337821944059,997.0084621796406,714.5940479999999,41.98187780035918,69.43884095210932,465.0215710999356,588.373281268039,586.6141907590403,167.0,416.04273705361027,588.1703355737819,0.7073507653998653,1049.2773363037973,714.5940479999999,89.21149032576326,67.51263312604507,509.4563567053816,628.1843149704611,626.1807611020737,158.0,444.1933889506391,648.4116558030979,0.6850484333142934,truth
1783335595008040850,1783335605008040850,1192.401325122302,1219.0133759999999,57.09535380848848,70.06954680140076,649.4728357816911,968.2591623934641,964.7554178159609,139.0,684.662619674425,780.5437063015112,0.8771611559314156,1360.2783517377045,1429.1880959999999,129.76216774656473,60.03998588775573,656.3858390188379,796.8441271782184,793.5555012574587,122.0,563.4538858763939,838.4179140347155,0.6720441875637971,949.8464334545453,714.5940479999999,28.54767690424424,72.4436912582256,460.1227002389503,611.1312498352169,609.4342096493067,176.0,432.135050953492,574.5045234104579,0.752187377721917,970.4695501395348,714.5940479999999,95.15892301414748,70.37334514436719,421.9159713277894,536.1129116181112,534.563435477327,172.0,379.0890752868306,533.0777712698513,0.7111327759621223,1073.5078006153844,756.6289919999999,19.28897088124611,66.31552037469267,528.9615453870194,635.5450751123739,633.6801819492098,156.0,449.39823236167325,677.2158056126196,0.6635967864854259,truth
1783335596008040850,1783335606008040850,1218.3997271824815,1219.0133759999999,29.737163441921084,66.63667654381416,637.5319508200992,955.6953706656441,952.1865890298413,137.0,675.778677346268,764.5623364088942,0.8838764939957178,1380.2052273719005,1471.2230399999999,32.44054193664118,58.36595297880719,641.0695803720365,800.8744044648521,797.5477551087164,121.0,566.3037222758347,813.3821124324195,0.6962333122648877,960.7642085517241,714.5940479999999,71.3691922606106,71.70069488113884,461.79211429990175,618.4329675326894,616.6431900853543,174.0,437.2981450516847,575.2295887959215,0.7602149708032983,977.6197209824561,714.5940479999999,71.3691922606106,70.31252207162755,439.55200858804596,574.6643746679373,572.9719058331277,171.0,406.3490762340253,551.2278572690684,0.7371707922150167,1129.8311299459458,756.6289919999999,71.3691922606106,64.46119484259138,590.831513926992,664.6580728892967,662.393534934507,148.0,469.98423051040425,766.6297458579952,0.6130524324808297,truth
1783335597008040850,1783335607008040850,1218.0929027737225,1219.0133759999999,30.36986904706834,65.44617616280374,601.5134037681091,854.6992681636978,851.5547837566353,137.0,604.3636483937302,735.5331672164774,0.8216674316412678,1298.1954798139534,1387.1531519999999,142.7383845212212,61.860627620268396,597.0272699397541,776.7849816377307,773.7491758168853,129.0,549.2699280399071,749.6895325259314,0.7326631948418035,944.5920654545454,714.5940479999999,89.21149032576326,72.13533489628409,424.26873721571076,566.3863562994721,564.771971740673,176.0,400.49563331089684,528.9702700593668,0.7571231427920303,987.1919183712574,714.5940479999999,83.96375560071836,70.50003651376076,478.1571584977133,625.1205118327146,623.2399187098662,167.0,442.02695297571785,599.6454142797356,0.7371472247589165,1109.0976778378379,798.6639359999999,83.96375560071836,64.83662655185049,569.6524105663459,650.6933641691594,648.6040014968867,148.0,460.10969027710024,736.992044858459,0.6243075396634238,truth
1783335598008040850,1783335608008040850,1208.2745216934304,1219.0133759999999,118.94865376768433,66.217434341651,603.4662970791363,855.3524874505791,852.2182052869629,137.0,604.8255441810858,738.5365082200308,0.8189514498596612,1310.6958916535432,1429.1880959999999,62.06016718313966,59.992696933467734,567.6858896200164,744.4908797187036,741.5307407350916,127.0,526.4345495806336,711.3141858920405,0.7400872357416095,956.9709765614034,714.5940479999999,95.15892301414748,71.46896421243387,428.65755134198,563.6981286030797,562.0379651567962,171.0,398.59476927740417,536.7082052636712,0.7426656894160667,1013.4522474146339,714.5940479999999,44.60574516288163,69.94518845759261,549.6094323286392,719.9076221590032,717.6970774519453,164.0,509.051561456514,688.8935404680178,0.7389408254730861,1126.364928,840.6988799999999,83.96375560071836,64.14565356768121,605.4762905887636,711.3380879836793,708.8978129083924,147.0,502.99198572953264,778.9111682831289,0.6457629652919529,truth
1783335599008040850,1783335609008040850,1190.489664,1176.9784319999999,118.94865376768433,66.13672632930003,587.6087148771821,829.7263931547666,826.7709456923903,140.0,586.7051591291909,720.0392570720172,0.8148238493481329,1332.575523096774,1429.1880959999999,29.13028255535127,60.24263053567283,608.2469265743521,821.027504727185,817.6832546877495,124.0,580.5541161332627,755.9147481658587,0.7680153318107781,985.3191039999999,714.5940479999999,50.97799447186472,70.51300703838395,474.3169456998324,644.8198434089937,642.8875781384035,168.0,455.95648391814717,588.2218733968805,0.7751437077391846,1022.5064598773005,714.5940479999999,43.25405591552158,69.20761890038013,537.9630168827026,720.2331774078859,718.0124674498253,163.0,509.28176378064984,670.1674847434134,0.7599320697804941,1162.1773953802817,924.7687679999999,83.96375560071836,63.268867917436786,670.528769750732,811.3429000956672,808.4730454440014,142.0,573.7060665252059,857.1162912597965,0.6693444896280853,truth
1783335600008040850,1783335610008040850,1208.9615415652172,1176.9784319999999,46.04464016813588,64.60368753392447,613.8592546426867,859.5122772040944,856.3696258143334,138.0,607.7669597241068,754.2917408767033,0.8057452134073578,1299.4708859999998,1387.1531519999999,71.3691922606106,61.99625491820244,605.8010125013942,783.1192867141556,780.0334875791273,128.0,553.7489581135516,762.0175714440625,0.7266879122802494,977.3739025964911,714.5940479999999,95.15892301414748,70.88355932647504,466.97183932722646,619.9716967623466,618.1634138152899,171.0,438.38619092438523,583.1244903557989,0.7517883370957371,1025.3431738895704,714.5940479999999,95.15892301414748,69.16683931162315,542.8383125569468,721.3121358696865,719.0826048543943,163.0,510.0447026256076,677.6976227058235,0.7526139764061249,1121.684143248322,840.6988799999999,95.15892301414748,64.63825415754596,618.2116760581142,773.7866635716857,771.186969470914,149.0,547.1497970032526,784.0184325950604,0.6978787414375133,truth
1783335601008040850,1783335611008040850,1206.4335752408756,1176.9784319999999,79.29910251178957,64.73181009120704,598.6967117879368,854.0364217027872,850.8908449707798,137.0,603.8949451663348,731.1162376890904,0.8259903337328737,1291.2609360000001,1345.1182079999999,67.97065929581963,62.541564338194846,602.4134612568021,798.4155904022575,795.268489271436,128.0,564.5650781784973,752.6201517747547,0.7501328217789486,969.5077142456138,714.5940479999999,36.59958577467211,71.67119721048154,473.95425849849033,634.509057296227,632.6634886260001,171.0,448.6656571384457,590.4361458701279,0.7598885337164537,1014.990111219512,714.5940479999999,25.95243354931295,69.92040249951772,547.1628701181356,724.3654709410581,722.2065602587745,164.0,512.2037365598092,683.8114352648078,0.7490423677420032,1109.7225215999997,756.6289919999999,67.97065929581963,65.05808868817354,613.1027576184413,767.2049764298137,764.6269615771404,150.0,542.4958413935866,777.5854382857273,0.697667181872102,truth
1783335602008040850,1783335612008040850,1151.1776732689655,1050.8736,83.96375560071836,69.06463234779156,602.8304183960066,840.3827725811892,837.459744086083,145.0,594.2403572845111,741.78718347933,0.8010927804080478,1314.092416,1387.1531519999999,178.42298065152653,60.86801682879605,594.8009293759574,773.4426748247404,770.3664724439575,126.0,546.9065602276357,747.0093027285491,0.7321281786317628,960.7292981271675,714.5940479999999,95.15892301414748,72.27831749627384,465.7203409652405,630.1551338744233,628.32080733281,173.0,445.5869683621214,578.3744451395537,0.770412614365435,1007.310112581818,714.5940479999999,95.15892301414748,70.12140870095178,538.6078891035904,723.4361256576217,721.2273374077208,165.0,511.5465902078276,670.3409277618543,0.7631140648323355,1123.0146525405403,756.6289919999999,95.15892301414748,65.2747383473454,650.0578909840237,834.2902816284945,831.4619277388233,148.0,589.932315617543,819.2316246070188,0.7201044221169203,truth
1783335603008040850,1783335613008040850,1146.0360426666666,1050.8736,54.89937866200816,70.12518787131116,621.4141944396946,850.6076897891908,847.6295934452428,144.0,601.4704655793599,769.0434588631147,0.7821020498224123,1311.3578592755905,1345.1182079999999,39.649551255894785,61.21678170755889,607.0003607298811,781.6911005375974,778.6061295853052,127.0,552.7390779833104,764.2896255265352,0.7232063075598033,972.4246638139532,714.5940479999999,39.649551255894785,70.88806706587069,457.1356957099005,639.5822357857616,637.7264733643094,172.0,452.2529360505654,561.8538328615114,0.8049298760626931,1023.7958753374232,714.5940479999999,83.96375560071836,69.80673915795461,562.8483048089294,770.783828746432,768.4011836988172,163.0,545.0264721355326,696.469310729711,0.782556336279186,1112.5248511999996,756.6289919999999,52.86606834119304,65.92505343697451,653.1965691115875,840.4195791472281,837.5969593764937,150.0,594.2663834569494,822.6513529708662,0.7223793911124765,truth
1783335604008040850,1783335614008040850,1149.1484001103447,1050.8736,178.42298065152653,70.36108492107037,621.9463549445564,866.4941439887006,863.4802421822773,145.0,612.7038850728428,765.4616329156953,0.8004370940696428,1334.693541888,1387.1531519999999,89.21149032576326,59.525559986364726,614.4929856707423,823.3188559633819,820.0203294153513,125.0,582.1743461304577,765.3363797905292,0.7606777379245939,988.7021558802393,714.5940479999999,89.21149032576326,70.05256763913471,473.2565139523396,662.7751268808444,660.7759947557745,167.0,468.65278661921946,581.4858027447121,0.8059574015515054,1014.4433152,714.5940479999999,83.96375560071836,70.66232143025317,583.9041428538176,825.6952065340151,823.1899551790513,165.0,583.854679733429,715.1537964384936,0.816404363146862,1101.2049145263159,735.6115199999999,83.96375560071836,66.94535181662108,678.052700930859,845.5190800992232,842.714697315385,152.0,597.8722751607723,860.6888530568447,0.6946439157860054,truth
1783335605008040850,1783335615008040850,1152.9170502620689,1050.8736,39.649551255894785,69.05797165048725,616.5074333057271,853.2419224298263,850.2773223522526,145.0,603.3331493427763,760.3666129535769,0.7934766454292121,1382.2490752,1429.1880959999999,38.57794176249222,57.995917023629275,648.8768561236228,871.0019654236905,867.3432759309687,120.0,615.8913961779024,807.7259701673399,0.7625004257945373,960.522628413793,714.5940479999999,44.60574516288163,71.71174899727525,459.5607125659064,645.2732421415624,643.4159104321927,174.0,456.27708523652785,564.1787906437075,0.8087455480485756,1038.0803561739128,714.5940479999999,46.04464016813588,69.47433464997054,595.2629604520549,833.1031923245862,830.5026868087989,161.0,589.0929167208755,731.546821404437,0.8052702841219707,1031.6951568,714.5940479999999,83.96375560071836,70.03747939363245,626.5522022360615,799.1969028465546,796.727507975084,160.0,565.1175495060852,790.8580162543942,0.7145625863192927,truth
1783335606008040850,1783335616008040850,1137.2467726027396,987.8211839999999,31.719641004715825,70.08928946516566,611.7150115077794,855.0685658610561,852.1157413165296,146.0,604.6247812998088,752.0671163712748,0.8039505625736231,1368.3937555041323,1387.1531519999999,21.304236495704657,59.78446546378771,667.5697553605952,889.5028054408514,885.8392809689557,121.0,628.9734656116842,832.7634395929156,0.7552846771457076,992.0747199999996,714.5940479999999,43.25405591552158,70.71015613945718,503.37239957162365,703.7940480811928,701.6848449919661,168.0,497.6575439569425,618.8182526173259,0.804206310741599,1051.6667121509433,714.5940479999999,14.868581720960542,69.52240713207522,646.9550539511117,874.4606436987159,871.9052958342222,159.0,618.3370510401154,803.6985313668793,0.7693644157697876,1001.0357622035928,714.5940479999999,83.96375560071836,70.88961518789871,580.7626436735928,749.9213892147891,747.6780883101306,167.0,530.2744996706136,730.7359126750384,0.7256718747124573,truth
1783335607008040850,1783335617008040850,1134.085632,1008.838656,59.47432688384217,70.30860372541554,613.508797081182,858.5798281217138,855.6453328470308,147.0,607.1076186548443,753.9869082932541,0.8051964987417488,1438.2473511724138,1471.2230399999999,33.19497314447005,55.971527501383754,709.659806480726,954.485009361686,950.3260837968226,116.0,674.9228226605535,882.8780626986257,0.7644575748066144,966.5564476235294,714.5940479999999,83.96375560071836,71.51813785324073,465.9881282584812,653.0936615876768,651.1624128215913,170.0,461.80695685859854,572.4133459783985,0.8067718198800102,1024.7008990188676,714.5940479999999,83.96375560071836,70.63538784266348,618.9366331380146,838.1647624567391,835.5083015494201,159.0,592.6719872847721,768.462796382754,0.77124356582329,967.304128,714.5940479999999,64.88108387328236,71.94013474014703,515.6419904368624,667.028776018394,665.0286852310134,168.0,471.6605707691691,648.49169431399,0.7273193703245767,truth
1783335608008040850,1783335618008040850,1159.6353432167832,1008.838656,178.42298065152653,69.34659776233869,655.873554018863,881.8571232894762,878.7496974821479,143.0,623.5671519156499,816.040587990923,0.7641374229324314,1437.160240551724,1450.2055679999999,52.86606834119304,56.96552568646445,711.3272880685169,977.3870267285627,973.1398408398102,116.0,691.116994443524,879.2904363732705,0.7859939854391134,995.0772159999999,714.5940479999999,83.96375560071836,70.5070228908742,514.8104836979977,715.2193830507209,713.0747923667407,168.0,505.7364757912236,634.1726711061186,0.7974744085220864,1051.402341433962,714.5940479999999,83.96375560071836,69.85010081245906,666.3446623231516,916.025939195089,913.1225216245643,159.0,647.7281533476234,823.5621031188533,0.7864958221057748,962.3789810526315,714.5940479999999,64.88108387328236,71.51696286344624,450.7757685844475,573.5217473523505,571.8461161807412,171.0,405.5411167108049,569.3555904830262,0.7122809075550739,truth
1783335609008040850,1783335619008040850,1211.093748869565,1050.8736,41.98187780035918,67.25608368304216,665.7079263434659,902.1888555433911,898.8914740838262,138.0,637.9438576656623,826.3461161198505,0.7720056344684714,1496.2167904864866,1513.2579839999999,29.737163441921084,53.60714371686282,727.0814504726418,972.9715292302243,968.5632586967025,111.0,687.9947662201367,905.8843591042132,0.7594730600056531,1003.743511272727,714.5940479999999,83.96375560071836,70.67135481935885,555.9884240477573,785.167075686778,782.7696553336679,165.0,555.196963582532,681.2667767949542,0.8149479506317298,1006.8128755662649,714.5940479999999,83.96375560071836,71.96458084375881,640.421203138038,874.444138736649,871.7902809055395,166.0,618.3253802695147,793.1680130431536,0.7795641908164969,977.6833445647056,714.5940479999999,83.96375560071836,71.5683598802556,505.9364786977598,696.7684125239009,694.7495025460106,170.0,492.68966941223607,624.9575071806149,0.7883570702829353,truth
1783335610008040850,1783335620008040850,1201.1712055251796,1050.8736,34.81424012712713,67.45743264249587,636.3854324108718,860.3451528622453,857.2509204224398,139.0,608.3558917498705,790.5215946804708,0.769562648058676,1447.2557473684205,1450.2055679999999,33.985329647909815,55.77723617326013,726.3887969899386,977.6755856961788,973.3399741526483,114.0,691.3210364462976,903.5037249886626,0.7651557125068549,1018.0658388292682,714.5940479999999,83.96375560071836,70.47874636490273,580.0857549643388,824.8909451106906,822.356711947786,164.0,583.2859810271494,709.1457525739626,0.8225191773482614,1043.5174848,714.5940479999999,83.96375560071836,70.53001424421257,667.0933360447075,918.4832816249726,915.5904137097845,160.0,649.4657568434916,824.0898939644688,0.7881006205756161,993.8261759999999,714.5940479999999,83.96375560071836,71.29859878272543,561.858163967899,790.9769565479355,788.6052062116678,168.0,559.3051697373423,689.1720078378825,0.8115610665790574,truth
1783335611008040850,1783335621008040850,1202.0784345323743,1092.908544,35.6845961303053,67.19706044093797,617.074094743704,846.0556874958504,843.0410454285004,139.0,598.2517138897623,763.2878357615197,0.7837825861496881,1458.429796173913,1471.2230399999999,33.19497314447005,54.699015164965175,719.4399176240883,967.9421389836942,963.6885563301264,115.0,684.4384502715819,894.9634596098476,0.7647669219589787,993.5759679999998,714.5940479999999,83.96375560071836,71.69387868706805,566.0258650107379,794.6020460383286,792.2194258440369,168.0,561.8684950984074,694.9262240196679,0.8085297052806362,1015.8014994846624,714.5940479999999,83.96375560071836,71.59376692276986,631.0301719146067,847.1749930002793,844.5562077763884,163.0,599.0431824021634,785.475517468177,0.762650355205289,1015.8014994846624,714.5940479999999,83.96375560071836,70.89343932668616,616.6586935435561,876.727043733733,874.0169072843743,163.0,619.9396378737574,753.9053729362645,0.822304310498882,truth
1783335612008040850,1783335622008040850,1257.5717456842103,1176.9784319999999,109.79875732401632,63.6855231289554,629.2500442335304,827.7173697897484,824.7689296473266,133.0,585.2845650842243,787.8021485581803,0.7429334461138501,1479.0348437522123,1513.2579839999999,83.96375560071836,53.552105903444115,715.2019863051196,989.4528788117086,985.0543740418024,113.0,699.6488402723104,882.1981141344514,0.7930745136071333,977.6197209824559,714.5940479999999,83.96375560071836,72.44239934223404,553.134075547806,790.3197413894771,787.9928129974717,171.0,558.8404484420978,675.102427529904,0.8277861634816054,1011.4174869202453,714.5940479999999,83.96375560071836,71.9261040890332,637.1781971703003,851.2485975727001,848.62737518499,163.0,601.9236558191947,794.2518908891664,0.757849824122345,995.0772159999999,714.5940479999999,83.96375560071836,71.395132227728,585.6686870211854,827.3033580410225,824.8236428632027,168.0,584.9918145692093,717.5708399578054,0.815239112285566,truth
1783335613008040850,1783335623008040850,1270.4253459692306,1240.0308479999999,31.03008359156983,60.50185014149923,581.1175462334089,771.0764830332059,768.118563569736,130.0,545.2334099662537,725.7792153327083,0.7512386665913412,1477.6608242162163,1471.2230399999999,34.81424012712713,53.30251855063808,742.056627420637,1050.0809125388455,1045.3025777759112,111.0,742.5193340507756,908.6410709835742,0.817175623865453,947.10733824,714.5940479999999,89.21149032576326,73.63194457497275,523.5207371884707,733.4684290896032,731.3577640972218,175.0,518.6404999955028,643.1593429430432,0.8063950336509882,1004.5077829818181,714.5940479999999,83.96375560071836,71.97584879958875,630.8764757458605,839.5569324348094,836.9934330769892,165.0,593.6564001168298,787.2714237156065,0.7540682695111793,988.1987433772453,714.5940479999999,89.21149032576326,71.21856160352804,540.4189506877522,762.5581109955464,760.2638522275713,167.0,539.2100113337549,662.3681501730199,0.8140639177667369,truth
1783335614008040850,1783335624008040850,1221.8366185074626,1176.9784319999999,158.59820502357914,63.58761288421586,579.7829942638072,762.5732559695052,759.7042514765853,134.0,539.220720447542,725.890589686234,0.7428402132621943,1487.8855403243238,1513.2579839999999,29.13028255535127,53.05973331366285,729.7475675119331,1021.7509786098636,1017.2109045836484,111.0,722.4870456590256,896.6990905574808,0.8057184994019042,971.965898105263,714.5940479999999,83.96375560071836,72.98385309316988,565.7650777973788,781.9085275159053,779.6054046116703,171.0,552.8928220740848,698.0938405111632,0.7920035817380107,995.2465184191615,714.5940479999999,83.96375560071836,73.03472970215813,643.710333803081,836.78974214219,834.27413048258,167.0,591.699701096085,808.4996719548807,0.7318490305202073,1007.310112581818,714.5940479999999,83.96375560071836,71.08598637238426,587.0574607011123,827.4816256113342,824.9549582607427,165.0,585.1178687770423,719.7857071021778,0.8129056509508898,truth
1783335615008040850,1783335625008040850,1236.4500935111112,1176.9784319999999,30.36986904706834,63.373863149652955,587.7355367612263,775.6430586928957,772.7689165594431,135.0,548.4624665820219,735.1602435655751,0.7460447859937898,1505.233131054545,1555.2929279999998,32.44054193664118,52.16033769295542,736.0052199175927,1013.5788573718457,1008.9189948194595,110.0,716.7084833149446,909.1599652778845,0.7883194494776097,992.0747199999998,714.5940479999999,83.96375560071836,72.19860360482963,609.2855783026314,837.9237872844776,835.4279886667902,168.0,592.5015921063683,752.9467202470923,0.7869103831303347,980.7324508402364,714.5940479999999,83.96375560071836,73.31950387655482,622.2585208615179,815.3278753956766,812.8977210887527,169.0,576.5238695827034,779.8855348512507,0.7392416499847828,1038.1838055849055,714.5940479999999,83.96375560071836,69.78826428621232,616.2399430358306,872.9840222627931,870.2170294948238,159.0,617.292922009529,754.3063429430223,0.8183583868605453,truth
1783335616008040850,1783335626008040850,1253.1470147368418,1176.9784319999999,71.3691922606106,62.280412734372895,605.4444960753253,787.756319718876,784.7745392037189,133.0,557.0278355957752,760.2539515461608,0.7326865377850703,1463.479760842105,1492.2405119999999,36.59958577467211,53.85314401970775,734.8978187667684,1027.0565636162269,1022.5020342785645,114.0,726.2386607951868,903.5697603613762,0.8037438752982756,987.570976,714.5940479999999,38.57794176249222,72.25084881254035,596.8617630138184,820.4057057353117,817.9644575761829,168.0,580.1144378495742,737.713730247149,0.7863679555689226,970.2451694035087,714.5940479999999,50.97799447186472,72.99200928801943,555.891077276975,726.7011214731783,724.5677430042496,171.0,513.8552908895534,697.1414129175786,0.7370890344027021,1030.508844521739,714.5940479999999,52.86606834119304,70.0733595489165,612.2564121639679,875.4785042506671,872.7440398545341,161.0,619.0567871387024,747.0610253657613,0.8286562491138015,truth
1783335617008040850,1783335627008040850,1220.2496978823528,1113.926016,39.649551255894785,64.37895921028127,601.0967853029788,806.1968050394464,803.2068497178454,136.0,570.0672278143215,748.4292675257949,0.7616848412394214,1428.1009853793105,1429.1880959999999,54.89937866200816,55.91567611251136,749.9277660571098,1043.8261897589484,1039.3180789448922,116.0,738.0965771586683,923.2497116166045,0.7994549772089999,987.1919183712574,714.5940479999999,83.96375560071836,72.4376464307973,602.1645270558075,838.9421354974888,836.4211970090556,167.0,593.2216730333977,741.1128514675866,0.8004471543823214,993.1388576385542,714.5940479999999,83.96375560071836,71.21719734776609,525.8808414666677,678.5019729557099,676.5675465067576,166.0,479.77334612543393,661.8233049819137,0.7249266420718521,1042.4137370566036,714.5940479999999,89.21149032576326,69.84455835132515,629.8636681073571,893.1775518039336,890.3465937751862,159.0,631.5719036841604,770.7236508903127,0.8194531242872732,truth
1783335618008040850,1783335628008040850,1244.9296572631579,1176.9784319999999,59.47432688384217,62.53472056321214,579.2666569628977,774.5772892995897,771.6589960967323,133.0,547.7088538168341,721.877569580374,0.7587281789836138,1439.8811957894736,1450.2055679999999,67.97065929581963,56.505435074338884,774.5979348574856,1089.8794952149146,1085.0830312152168,114.0,770.6611817426376,950.2865845882934,0.8109776505752971,967.5368796279068,714.5940479999999,83.96375560071836,73.84450930824461,620.7629293677239,853.3379869211348,850.8391880371258,172.0,603.4010771960118,767.2332102912007,0.7864637102543997,990.5734719999998,714.5940479999999,83.96375560071836,71.26334423639788,510.66575460137994,660.3892744760118,658.4090922838,168.0,466.96573420485214,642.2853940301425,0.7270377600754493,1035.6359327999999,714.5940479999999,95.15892301414748,70.4163114103266,632.0026822056481,890.189416443112,887.3858208083827,160.0,629.45897290742,775.0777260013571,0.8121236771372758,truth
1783335619008040850,1783335629008040850,1195.2936576,1092.908544,57.09535380848848,64.85187375362929,576.2705338017415,787.395632325909,784.5730814698841,140.0,556.7727910943198,713.566735354731,0.78026730158257,1396.6110144,1345.1182079999999,118.94865376768433,58.30742428819788,761.1576954281418,1065.3296004296005,1060.844040998345,120.0,753.3017846625256,935.4091539166626,0.8053179525861671,1982.7325995180718,714.5940479999999,83.96375560071836,60.629984831839955,2457.5152546737413,3603.085891536126,3581.0484622297504,83.0,2547.766467102772,2972.0709056921264,0.8572360983122158,2136.7763199999995,735.6115199999999,83.96375560071836,57.63835404921636,2591.1408166993906,3502.061534342721,3479.3536258447366,78.0,2476.3314590663035,3218.992500201025,0.7692877379837504,4334.2697813333325,714.5940479999999,83.96375560071836,58.90509423895219,7913.68225063382,10590.594715601108,10450.91217639295,36.0,7488.68134019996,9859.642966176007,0.7595286529025698,truth
1783335620008040850,1783335630008040850,1202.5649196521738,1071.891072,83.96375560071836,63.917314256214425,580.6443502544454,798.235644374993,795.3303563733265,138.0,564.4378371223709,717.635483359849,0.786524426690508,1377.0786612892562,1303.0832639999999,26.43303417059652,58.910088277460716,740.4401950515667,1050.213491152675,1045.9369101819898,121.0,742.6130812876547,905.9615171993961,0.8196960546219432,1959.1286399999995,714.5940479999999,44.60574516288163,60.475421485285075,2445.890321033267,3367.549578278769,3349.633843195091,84.0,2381.2171427828157,3021.5329527422095,0.7880824667563955,1923.5991039999997,714.5940479999999,89.21149032576326,61.2707613024959,2478.654572974996,3194.652330857202,3175.34915929018,84.0,2258.9603266825375,3120.257378085481,0.7239660236196875,3273.35946893617,714.5940479999999,18.299792887336054,67.07439707346833,8048.3453761980245,8562.811708018975,8469.409693271291,47.0,6054.822224763781,10546.150506340668,0.5741262862808033,truth
1783335621008040850,1783335631008040850,1222.7223416470586,1092.908544,101.95598894372944,61.54538983689254,576.0240716879318,785.8659163289328,782.9573833093903,136.0,555.6911185395684,713.590325548216,0.7787256898594561,1385.7519872,1197.9959039999999,23.399735167413315,59.32076491726145,773.7426492082724,1107.7514961188888,1103.2461160420253,120.0,783.2985947752098,943.7038890029341,0.8300258204963002,1930.1859750697677,714.5940479999999,41.98187780035918,59.186928981406446,2218.1522899556717,3048.838302418909,3032.715267901575,86.0,2155.8542383816925,2741.631888911607,0.786339788029508,1772.6225320851063,714.5940479999999,41.98187780035918,61.82790441146875,2175.8125299030075,2645.172288998352,2630.926512246325,94.0,1870.4192629574766,2778.324354884551,0.6732184669760053,2468.597620363636,714.5940479999999,41.98187780035918,65.47397357316706,6098.997756215349,6319.43608711278,6304.081640218082,55.0,4468.516110472428,8025.691817274315,0.5567764389923989,truth
1783335622008040850,1783335632008040850,1238.4623799402984,1113.926016,109.79875732401632,61.26835887325199,581.8749248970626,789.3480648141839,786.3933467051504,134.0,558.1533693465879,722.0728942367592,0.7729875664929418,1331.448307512195,1176.9784319999999,118.94865376768433,60.81182658577303,727.3002404361222,1011.6573127703493,1007.502645061364,123.0,715.3497460968741,895.5828548249743,0.7987532836776743,1944.4870565647054,714.5940479999999,89.21149032576326,63.165849967853234,2510.779804762756,2883.214024413468,2866.661522833257,85.0,2038.740188274919,3244.9652815346703,0.6282779664473697,1620.4058804705878,714.5940479999999,89.21149032576326,64.88233481237997,1980.2427688034925,2051.291280521055,2041.587809243675,102.0,1450.4819746452745,2605.91133145616,0.5566121752249944,2273.0239121194027,714.5940479999999,31.719641004715825,69.38165170663213,5815.716203677207,6263.16765973994,6244.182105351789,67.0,4428.728323910391,7605.149087291069,0.5823328738303394,deceptive
1783335623008040850,1783335633008040850,1241.4320128000002,1176.9784319999999,50.97799447186472,60.98828124878741,578.7923762146783,798.007417141352,795.0316897203237,135.0,564.2764560978119,714.7008255734104,0.7895281996422604,1368.0463592727272,1261.0483199999999,30.36986904706834,59.65388221691567,731.3355479675968,1033.8927557391958,1029.5844377621856,121.0,731.0725786028321,895.8067927012125,0.8161051965216277,1814.2668358620688,714.5940479999999,14.418018638507194,66.68437163391094,3085.536646904288,3869.711093783854,3847.221537586452,87.0,2736.298955647375,3911.1899482689737,0.6996077899152953,1472.0392525048544,714.5940479999999,43.25405591552158,66.74267755613214,1968.4127078767401,2246.99807395988,2236.1022286185375,103.0,1588.8675754101425,2546.9682155391,0.6238270135121562,1531.818868363636,714.5940479999999,89.21149032576326,72.19823220870813,3000.6443399691975,4071.824445949271,4044.9474232111907,77.0,2879.214677531886,3723.277364140475,0.7733011527054358,deceptive
1783335624008040850,1783335634008040850,1265.2197266564883,1261.0483199999999,43.25405591552158,59.152198657819184,572.3038706182286,777.4231113347366,774.4369704343052,131.0,549.7211538759366,709.906167841826,0.7743574838166779,1363.9143211707315,1261.0483199999999,52.86606834119304,59.131935849361504,710.3292508858771,1021.8230332153536,1017.6863439009184,123.0,722.5379959591833,864.9304662953123,0.8353711935411093,1496.5297919999996,714.5940479999999,83.96375560071836,70.2935358710745,2006.7847277990968,2459.8607863844773,2447.244164543603,98.0,1739.3842428273374,2557.6632138257323,0.6800677405159924,1386.388880290909,714.5940479999999,83.96375560071836,68.83336731615245,1897.9247459699764,2256.778105148782,2246.4381063756846,110.0,1595.7831017840308,2435.359281247978,0.6552557210229311,1579.1764189090907,714.5940479999999,21.304236495704657,71.90027463463827,3006.1263391279745,4133.726636340038,4109.974792343579,88.0,2922.986136127498,3715.059509294721,0.7867938935606464,deceptive
1783335625008040850,1783335635008040850,1298.4856919999997,1303.0832639999999,67.97065929581963,57.626431504988034,598.3185417895265,811.2751691465235,808.1280016325978,128.0,573.6581735117701,742.5821872896365,0.7725180906985863,1366.4802287213113,1303.0832639999999,16.597486572235024,59.52503118130487,729.8743983895484,1026.4625965105117,1022.4615905190603,122.0,725.8186626269338,895.5595509737111,0.8104638734942597,1433.6128269473681,714.5940479999999,83.96375560071836,71.84758373644245,1934.5320721313235,2396.873550292796,2386.3168326577434,114.0,1694.8455410587114,2459.385690001901,0.689133692185304,1328.714327414634,714.5940479999999,44.60574516288163,70.7139504342083,1871.3630452517227,2309.981873973525,2300.5268623374877,123.0,1633.4038475046882,2381.1751782987412,0.6859654268157175,1578.4997199999998,714.5940479999999,89.21149032576326,71.9086085913575,2939.0488951057737,4032.106601868777,4010.828845946637,96.0,2851.129920648459,3634.769030273656,0.7844047027202171,deceptive
1783335626008040850,1783335636008040850,1315.760469333333,1324.1007359999999,178.42298065152653,57.75321267856362,608.8022934431624,835.519815884138,832.206967788606,126.0,590.8017276274096,752.832733294417,0.7847715720888553,1369.2366184918033,1303.0832639999999,28.54767690424424,57.675785320021575,664.387292313236,935.9582894592861,932.1060396034619,122.0,661.8224533844227,814.749328611407,0.8123019315798388,1275.9425914960625,714.5940479999999,83.96375560071836,74.67655252142032,1800.0432409815983,2196.300683339365,2187.567842856573,127.0,1553.0191067139133,2296.6012204773015,0.676224976659705,1274.0824111627908,714.5940479999999,25.95243354931295,72.37375806642248,1837.2324183927158,2237.7002325513477,2229.806072587499,129.0,1582.2930086997721,2344.999005478724,0.6747521022409781,1344.3250958490567,714.5940479999999,79.29910251178957,73.47751681507923,1881.6223367295106,2602.3663698476485,2589.9445333480203,106.0,1840.1509072510912,2321.1909778022014,0.7927615283915249,deceptive
1783335627008040850,1783335637008040850,1329.313069056,1345.1182079999999,27.98791853357279,57.621768135560956,618.2844729635359,857.6389420303931,854.2093034585433,125.0,606.4423117193472,762.0139370732282,0.7958414960867956,1367.1693261639343,1303.0832639999999,109.79875732401632,58.19385513070209,678.594373968479,957.224763297065,953.266209996129,122.0,676.8601212470425,831.8117797290823,0.8137178839514547,1201.8880284444444,714.5940479999999,13.594131859163925,74.37707096530659,1536.5902837669998,1992.4040049228854,1985.0806888026052,135.0,1408.8423827442077,1931.2692641436902,0.7294903972744978,1134.6495373426574,714.5940479999999,16.22027096832059,73.1406336807774,1462.889684533696,2052.4730551136677,2045.2957359289715,143.0,1451.317615473545,1796.3660672976112,0.8079186318949206,1347.7221425840708,714.5940479999999,83.96375560071836,73.22051007755893,1857.2433842903176,2571.177392324196,2559.6731852124185,113.0,1818.096969745983,2290.4077543705057,0.7937874670030829,deceptive
