window_start_ns,window_end_ns,red_Mean_NN,red_Median_NN,red_Heart_Rate,red_Mean_HR,red_SDNN,red_SDSD,red_RMSSD,red_NN_Count,red_SD1,red_SD2,red_SD1_SD2,infrared_Mean_NN,infrared_Median_NN,infrared_Heart_Rate,infrared_Mean_HR,infrared_SDNN,infrared_SDSD,infrared_RMSSD,infrared_NN_Count,infrared_SD1,infrared_SD2,infrared_SD1_SD2,ppg0_Mean_NN,ppg0_Median_NN,ppg0_Heart_Rate,ppg0_Mean_HR,ppg0_SDNN,ppg0_SDSD,ppg0_RMSSD,ppg0_NN_Count,ppg0_SD1,ppg0_SD2,ppg0_SD1_SD2,ppg1_Mean_NN,ppg1_Median_NN,ppg1_Heart_Rate,ppg1_Mean_HR,ppg1_SDNN,ppg1_SDSD,ppg1_RMSSD,ppg1_NN_Count,ppg1_SD1,ppg1_SD2,ppg1_SD1_SD2,ppg2_Mean_NN,ppg2_Median_NN,ppg2_Heart_Rate,ppg2_Mean_HR,ppg2_SDNN,ppg2_SDSD,ppg2_RMSSD,ppg2_NN_Count,ppg2_SD1,ppg2_SD2,ppg2_SD1_SD2,label
1783334403960507487,1783334413960507487,1229.9804761791047,1133.198208,36.655954135131786,66.66049663743664,672.3571986011015,921.3755553021981,917.9086735171642,134.0,651.5109031737052,831.8023662771906,0.7832520434987499,1345.7574895483874,1385.0200320000001,47.65274037567132,63.016234440716,721.9801217473293,1001.1433441756083,997.084267656168,124.0,707.9152476063504,889.909317571064,0.7954914434861163,943.1395018181819,713.495168,84.0930712511847,72.49031820363406,442.14882713241525,550.7109772622296,549.1354725697615,176.0,389.41146649599307,561.4005036957669,0.6936428876220285,892.4330769892474,713.495168,84.0930712511847,75.36129843017638,388.3605364250184,527.2679186959112,525.8411350600728,186.0,372.834720811996,481.8142255923714,0.7738142649350185,943.1395018181819,713.495168,84.0930712511847,73.06813327296496,463.5756175467218,618.8338333386295,617.0633900037972,176.0,437.58159998141065,577.9843233570468,0.7570821254110328,truth
1783334404960507487,1783334414960507487,1228.9526793481482,1091.227904,178.6977764087675,68.77178354378468,715.9166376764985,946.9906018680078,943.4579243227196,135.0,669.6234763007984,894.9164565463429,0.7482525004456907,1331.8802116129032,1385.0200320000001,75.24116901421789,63.4099002556158,708.0268827536219,1001.0842470472708,997.0196317495136,124.0,707.8734596261542,867.214919141773,0.8162607030869478,942.0791965649718,713.495168,84.0930712511847,72.66266227347981,434.8092478879504,555.620175588289,554.0510075691232,177.0,392.8827939225394,548.5797291347722,0.7161817563733166,891.7006299037434,713.495168,84.0930712511847,76.21176227471192,452.5855621733537,640.0302347618697,638.316378457265,187.0,452.569719164536,554.3083138680204,0.8164584723733584,942.0791965649719,713.495168,84.0930712511847,73.66303454019021,483.9604334289508,644.1799800099494,642.3572758385602,177.0,455.50403216964986,603.8985350107013,0.7542724576432003,truth
1783334405960507487,1783334415960507487,1278.630191627907,1175.1685120000002,36.655954135131786,66.52399767955485,731.0631551077392,1007.8520753593701,1003.9139129529394,129.0,712.659036919546,902.7542423387538,0.7894275135980191,1375.9264661333334,1468.9606400000002,178.6977764087675,62.37569685646744,728.4153511272857,994.8880706703217,990.8559862392784,120.0,703.4921012925855,902.0683340109246,0.7798656429547896,958.8980043294117,713.495168,19.855308489863056,72.41723575761922,487.3197052223354,574.1954127421477,572.5078786351608,170.0,406.0174700761812,626.5268527305406,0.6480448017617578,900.8543151381216,713.495168,62.15574831609303,75.81611943244727,461.0053269922394,652.5715201920084,650.7578006795251,181.0,461.43774713698315,564.4372647061991,0.8175182185697302,948.8199938959536,713.495168,21.337047929405074,74.43100157551741,537.6466657845585,689.9282958730292,688.0367784366283,173.0,487.8529765442977,677.5895594657137,0.7199830188189068,truth
1783334406960507487,1783334416960507487,1248.6165440000002,1133.198208,109.96786240539538,67.56713802436431,709.6188282567039,974.7595334479308,971.0321612925505,132.0,689.2590761272672,877.2563626562807,0.7856985773693693,1385.7195370666668,1385.0200320000001,43.32067306879212,61.63605475700469,751.2997365835324,1027.8643805252102,1023.5633085080128,120.0,726.8098736094861,929.933488047856,0.7815718897651777,951.3268906666664,713.495168,84.0930712511847,73.03127952073584,478.8399750481566,601.3576835768466,599.617185781325,174.0,425.22409597582237,606.7682238787812,0.7008015239452827,923.1135196444444,713.495168,84.0930712511847,75.67111889873857,521.7155640288165,731.9051493948318,729.8988716333237,180.0,517.5350943224387,640.6660382540537,0.8078079114866584,934.7284653559324,713.495168,95.30548075134264,74.90024673322762,507.57280515558733,674.0981095509529,672.1803301043142,177.0,476.659344448511,633.7651297933498,0.7521072429528176,truth
1783334407960507487,1783334417960507487,1260.7233624615385,1154.18336,32.490504801594085,67.45364278116907,714.8699612700888,989.4913352446858,985.6494950878247,130.0,699.6760330768487,881.6489366077174,0.7935993614067772,1321.3876356129033,1385.0200320000001,39.71061697972611,62.45960483595028,672.0041923707337,963.8943881508578,959.9836464935138,124.0,681.5762582091297,819.0886223422377,0.8321154019452958,959.4264230175439,713.495168,84.0930712511847,73.3678663731714,554.75406920325,723.4110225700762,721.2803739247479,171.0,511.5288396443955,696.1848014005748,0.7347601364110635,920.3154993777779,713.495168,68.07534339381618,75.74302423861343,518.0534617656803,724.4227887039667,722.397797138979,180.0,512.2442663386444,636.8372510276092,0.8043566319527949,915.418963911111,713.495168,84.0930712511847,75.4789975587207,474.69031485948705,613.3435058820594,611.6280361225955,180.0,433.69935220593527,597.1718563285397,0.7262555118929308,truth
1783334408960507487,1783334418960507487,1273.5264,1175.1685120000002,44.67444410219188,66.71029563776409,721.7047121781247,991.2233039242785,987.4314671814184,131.0,700.9007198749915,892.2356603496518,0.7855556004120263,1331.9695677440002,1385.0200320000001,44.67444410219188,62.01329903095359,675.8506269490164,957.324531053333,953.4565373319481,125.0,676.9306677040433,827.3031943946766,0.8182377057051518,964.8261112514621,713.495168,84.0930712511847,72.45935129414146,537.5204715694873,707.0013423425339,704.9188596382627,171.0,499.9254434783975,672.9738406461516,0.7428601429713779,932.1201413785312,713.495168,38.63735706135513,74.94908909386098,511.34750076633753,718.7431568516192,716.7142331416519,177.0,508.22816014120633,627.5385260680823,0.8098756315816507,944.0933723636365,713.495168,44.67444410219188,73.9825919254853,496.3762633189363,669.0774775395455,667.163778553593,176.0,473.10922150740254,617.1406823693198,0.7666148659833066,truth
1783334409960507487,1783334419960507487,1317.401208888889,1343.049728,37.620584507108944,66.01130952925199,760.4476550113051,1023.772636220333,1019.6693778497779,126.0,723.9165734646259,945.7979009048408,0.7654030240203092,1394.8953976470589,1468.9606400000002,36.655954135131786,58.6069756165687,687.1640000464562,972.1242112879862,967.9963420148102,119.0,687.3956219573591,841.5060043615969,0.8168635974010042,945.890737005714,713.495168,84.0930712511847,73.33382762073282,523.1215756849928,683.3189875193123,681.3649368034268,175.0,483.17948978843157,656.1868302687845,0.7363443877569343,918.0134449502763,713.495168,84.0930712511847,75.33509589222439,490.1936399303138,677.0850224186903,675.2017722382969,181.0,478.7714107921015,604.9533679221322,0.7914187046128281,938.759511502825,713.495168,84.0930712511847,74.6076915390583,498.9029555951984,663.4113853191689,661.5241810591789,177.0,469.1026892755459,622.719561006778,0.7533129174826739,truth
1783334410960507487,1783334420960507487,1325.590081536,1343.049728,25.528253772681065,65.54770601730567,763.8837832465073,1033.017883113377,1028.942262674138,125.0,730.4539502364412,948.8178865862421,0.7698568508911083,1375.5767136000002,1447.975488,54.98393120269769,60.64205058151072,708.9363277068934,999.6824433110817,995.483794194518,120.0,706.8822346984023,869.1030932052698,0.8133468172244173,938.9966318644068,713.495168,84.0930712511847,73.93743305507714,526.7363391799231,681.9957626853052,680.0555147631684,177.0,482.2438285352707,662.2860310660011,0.7281503850520018,928.5050493854748,713.495168,84.0930712511847,74.99523526864868,508.3890876930951,703.7537097833208,701.7830016787865,179.0,497.62902047297564,626.9781558893328,0.7936943509094303,955.1862289655171,713.495168,84.0930712511847,74.13229071258479,523.6245502968409,703.4340355388009,701.3980427431454,174.0,497.402976646905,651.6597875874627,0.7632862823841895,truth
1783334411960507487,1783334421960507487,1335.327192064,1385.0200320000001,36.655954135131786,66.10543828600541,776.0275856759661,1057.1709120711605,1052.8999866068243,125.0,747.532720798685,961.7874209656702,0.7772327902231602,1379.1233777190084,1426.990336,36.655954135131786,59.46984311447576,694.7174802936589,989.4850528772214,985.3566147847707,121.0,699.6715907722128,848.8195258029126,0.824287813254981,917.1203242197801,713.495168,43.32067306879212,75.576002315704,531.1710344632672,685.890208737055,684.0029220796242,182.0,484.99761774742814,668.3367348090442,0.7256785277349758,917.1203242197801,713.495168,89.34888820438375,75.71230626343075,505.9474653911417,700.8537725881463,698.9150693796001,182.0,495.57845521725267,623.832247349944,0.7944098069993706,944.5703076363639,713.495168,84.0930712511847,74.83176810617839,521.3592635690861,699.0321378536908,697.0320418005,176.0,494.29036494367426,649.2068090990145,0.7613758174065716,truth
1783334412960507487,1783334422960507487,1299.1120660000001,1301.079424,26.973249269247923,67.8328079699001,769.4159841836519,1058.337633661005,1054.1701748139194,128.0,748.3577175466207,950.7798255794037,0.7870988607594537,1433.4473058461542,1468.9606400000002,49.295938319659996,56.534111178923496,688.7306069360437,982.914227570279,978.6978519990524,117.0,695.0253156396816,840.9337685995033,0.8264923369615438,911.8793918251367,713.495168,89.34888820438375,75.82468291508022,526.8273005228124,673.7024161110772,671.8490755157261,183.0,476.37954693390384,664.5489242966477,0.7168464645971694,902.0212362378379,713.495168,89.34888820438375,76.79144880286646,511.34244798917246,706.3087435587225,704.386848374702,185.0,499.43570218172295,631.0500676842082,0.7914359379035071,927.077381688889,713.495168,89.34888820438375,75.7822063339649,510.49997793176396,688.7018861451932,686.7754835544466,180.0,486.9857739092316,634.5414745638589,0.7674609043387636,truth
1783334413960507487,1783334423960507487,1249.0863608358213,1196.1536640000002,38.63735706135513,69.84473871275817,722.6927251291726,1004.6738105349825,1000.8899139270563,134.0,710.4116643098148,890.0714485453059,0.7981512781596137,1429.1426592820508,1468.9606400000002,37.620584507108944,54.73141543341124,649.519910891758,907.2438148087737,903.3370622697444,117.0,641.5182536408362,798.7361231423556,0.803166696802194,878.458662331551,713.495168,95.30548075134264,77.26639634989978,476.4137555626903,629.4409538672396,627.7467901231255,187.0,445.081966836054,595.7274161706581,0.7471235245425591,877.5811969361704,713.495168,84.0930712511847,77.83535796233663,482.58737998933367,668.7974608429253,667.0068352445417,188.0,472.91121980237693,594.9442391875502,0.7948832657799656,897.6599445683061,713.495168,95.30548075134264,76.66437413167237,462.4635789038749,616.6770068448543,614.9806786208236,183.0,436.0564933418195,576.7776789477718,0.7560217901242761,truth
1783334414960507487,1783334424960507487,1264.1964295757577,1301.079424,75.24116901421789,68.31028889103894,692.5227400410487,946.1003740128493,942.4878315910398,132.0,668.9939901476146,857.5540866447494,0.7801187127043011,1476.7604310088498,1510.930944,34.03767169690809,52.9452428601381,652.0260419799521,905.8478514139902,901.794898422302,113.0,640.5311584580966,803.2034837836853,0.7974705929320909,882.2693691914895,713.495168,95.30548075134264,76.97821412254898,475.37426318717206,651.0375442722453,649.3168118829117,188.0,460.35306236194185,588.2167195757738,0.7826249187441524,861.5872769326426,713.495168,44.67444410219188,77.80171104516945,409.8164017961464,541.1490776167994,539.7391021270706,193.0,382.65018241568424,512.5313505639463,0.7465888320678301,906.2818391208793,713.495168,43.32067306879212,76.22095232222682,475.310047844428,664.7448575319663,662.919142109639,182.0,470.0455965197388,584.2669353642617,0.8045048728055927,truth
1783334415960507487,1783334425960507487,1252.1666636992481,1343.049728,142.95822112701399,68.58609719114581,678.9199723238127,930.3322490033221,926.830415103237,133.0,657.8442420267808,839.9316247507521,0.7832116599038578,1464.1745527017545,1489.945792,26.47374465315074,53.693324238269284,655.5675922881169,903.4288875202484,899.4784358587214,114.0,638.8206926853863,809.6244792589704,0.7890333223003378,882.7087746031747,713.495168,89.34888820438375,76.93529742803327,475.4098024303137,672.555058315667,670.764000253788,189.0,475.5682424563221,582.1910200932011,0.8168594602853714,856.2807383092784,713.495168,89.34888820438375,77.83684557293329,391.072177381007,514.225438844587,512.8915184683791,194.0,363.6122948656357,489.6610514981936,0.7425795736726614,916.6591120879121,713.495168,89.34888820438375,75.18968323577754,458.7060625402947,650.7652781340668,648.9651355359807,182.0,460.16054112934825,561.2028526444018,0.8199540308126738,truth
1783334416960507487,1783334426960507487,1278.157181046154,1301.079424,51.05650754536213,67.73285626468336,702.1246695143371,954.3487842522743,950.6568139859215,130.0,674.8264969619206,870.7828102232414,0.7749653404261807,1488.072117714286,1552.9012480000001,25.528253772681065,53.05714450247716,637.106479584236,863.3155316068753,859.4246619713385,112.0,610.4562667028907,790.8735081402219,0.7718759832256978,899.7525711567569,713.495168,64.98100960318817,75.60794357705598,469.4618906684282,656.8649079912865,655.0785099821283,185.0,464.4736307641163,576.9931167200785,0.8049898990206676,853.3961813333334,713.495168,68.07534339381618,77.18561713749115,347.3965689614651,456.45253899922176,455.27644545626737,195.0,322.7606856161667,435.06496315227105,0.7418677966563851,919.6366058784532,713.495168,64.98100960318817,74.8946618602277,460.70346446630947,668.4761302616271,666.6176854017117,181.0,472.6840047693384,559.2676283856684,0.8451839169267591,truth
1783334417960507487,1783334427960507487,1273.6373021538463,1301.079424,35.739555281753496,67.9373252865464,692.8567050544369,953.3257529043179,949.6436228911795,130.0,674.1031045584142,856.0918932510317,0.787419095861882,1446.1346851929827,1489.945792,109.96786240539538,55.32166000882362,643.286939831661,821.8344659111176,818.1899492131394,114.0,581.1247238585759,811.6546073152748,0.7159753898037652,893.3356641720432,713.495168,89.34888820438375,75.38419667476019,392.9646923545584,534.4903275931562,533.0438500046231,186.0,377.94173511974,487.2602192894117,0.7756466055671555,852.1047873641027,713.495168,89.34888820438375,77.07233099240622,331.0393109359648,428.4090551469928,427.30353631510354,195.0,302.9309480161602,416.28172087773925,0.7277065814406253,928.270578413408,713.495168,89.34888820438375,74.49896675687397,467.89625815420004,681.2723428701419,679.3560020937507,179.0,481.732293478324,567.2925307982298,0.8491779237785572,truth
1783334418960507487,1783334428960507487,1260.6989042424243,1259.1091200000003,75.24116901421789,69.28626596700227,693.4807845890825,943.1043000374234,939.5012656174044,132.0,666.8754459226544,859.9242798068383,0.77550484569694,1415.9642391864409,1468.9606400000002,59.56592546958916,56.864855894639064,635.7165887249088,836.5379095705466,832.9602331973153,118.0,591.5216285769524,795.815458396546,0.7432899453458515,907.1516250434785,713.495168,89.34888820438375,74.67482303246649,405.37197858527657,543.240594710914,541.7543460944543,184.0,384.12910833590024,504.8517565670312,0.7608750555766322,847.9714481632652,713.495168,43.32067306879212,77.3666572620128,336.4053172692553,459.6859840254559,458.52215431249334,196.0,325.04707652081083,416.54444420336915,0.7803418843875237,922.1872873370168,713.495168,43.32067306879212,74.81844765141607,470.18878113956947,680.5975227513613,678.7145943339797,181.0,481.2551235962532,571.2720304944094,0.8424272464026451,truth
1783334419960507487,1783334429960507487,1208.6231021449275,1238.1239680000003,95.30548075134264,71.25476155844568,650.757767272178,911.3549587444811,908.034381715143,138.0,644.4252713962088,799.5807514711079,0.8059539580093238,1398.42231394958,1468.9606400000002,39.71061697972611,57.161926204035396,598.9559093067506,769.8467225105072,766.5778020525145,119.0,544.363837961418,754.5398389395424,0.7214514196181961,899.8524417391305,713.495168,89.34888820438375,75.05868853011279,398.9301863874366,535.5878392648001,534.1226768702568,184.0,378.7177930651908,496.5652060204636,0.7626748480834634,844.5192134822335,713.495168,89.34888820438375,77.64830006468932,336.09786817843343,460.5566487627378,459.3803068419976,197.0,325.66272946068284,415.80698323655446,0.7832064938539328,909.1272407431694,713.495168,89.34888820438375,75.32826896839016,456.73072716127746,659.9070017642609,658.1093912396251,183.0,466.6247158999919,555.2806511325282,0.8403403125037453,truth
1783334420960507487,1783334430960507487,1252.4822298947367,1259.1091200000003,158.84246791890445,70.21665079200311,696.2832707647958,965.6999838496159,962.03507505411,133.0,682.8530071718029,858.1821902090819,0.7956970151121839,1424.838012717949,1468.9606400000002,68.07534339381618,56.114716377184706,655.5703796884551,861.9034553239177,858.1822196153931,117.0,609.4577779876587,820.8688408478563,0.7424545160688082,892.3739502887702,713.495168,84.0930712511847,75.57291654706198,396.02072332443834,527.2516265560965,525.8323733046082,187.0,372.82320052945306,494.1318216612954,0.7545014997738927,838.5624557989947,713.495168,84.0930712511847,77.81515879610845,312.2577340592658,411.24506006482164,410.20524788233155,199.0,290.79417070130444,390.805783097851,0.7440887092208014,887.6272803404256,713.495168,84.0930712511847,76.25320091560535,427.88085518981507,610.1197276302303,608.4862046784586,188.0,431.41979674302524,522.5921277296841,0.8255382617745466,truth
1783334421960507487,1783334431960507487,1258.7887360000002,1259.1091200000003,79.42123395945222,69.44057941895852,702.2684980939134,940.9807554998047,937.422717704824,131.0,665.3738731799525,874.6432937346036,0.7607374091201223,1438.2065379310345,1510.930944,95.30548075134264,56.9504746723876,686.7569850162408,876.2120368877942,872.3978419517246,116.0,619.5754730406367,866.7949178095301,0.7147890006166169,874.5285975578947,713.495168,84.0930712511847,76.59400080631542,385.4380474969889,507.8305200012484,506.48546595342987,190.0,359.0904043863734,482.3401472564745,0.7444754628634187,843.4539773401015,713.495168,84.0930712511847,77.95901726372752,333.97995194204634,448.3014029346545,447.15651955610963,197.0,316.996962030537,415.74232359735555,0.7624842216871502,883.8320932765957,713.495168,84.0930712511847,76.6601584140383,437.35824039054705,617.172491384922,615.5202491750489,188.0,436.40685382007445,536.0401009667684,0.8141309820533918,truth
1783334422960507487,1783334432960507487,1309.7399629206348,1343.049728,178.6977764087675,67.02628639133633,703.5668715922159,983.4682314358762,979.6052369663853,126.0,695.417055529849,864.9914710811966,0.8039582802598182,1441.5887026086955,1510.930944,84.0930712511847,57.303912877308434,723.3894968986917,932.6703813630706,928.636395051119,115.0,659.4975512736706,910.558190550555,0.7242783142447113,873.4241158736842,713.495168,84.0930712511847,76.63522913450244,384.16933920243105,507.58152396012355,506.2369834850908,190.0,358.9143375972054,480.37736364242295,0.7471508125940118,865.115637947644,713.495168,95.30548075134264,76.85614178867964,365.55057984640655,501.68747804229116,500.3655548649276,191.0,354.7466177600813,452.0308301941135,0.7847841210471067,892.2074301935484,713.495168,84.0930712511847,76.24565937122875,444.57491600056585,633.3825554223221,631.6684318409099,186.0,447.86910002438816,543.1393435348729,0.8245933669793748,truth
1783334423960507487,1783334433960507487,1297.444200818898,1259.1091200000003,27.491965601348845,66.44891508406772,693.4032241762818,964.9040943281968,961.078796248923,127.0,682.290228294132,853.7306863310563,0.7991867215483411,1457.8180814159293,1510.930944,84.0930712511847,57.24162161254365,741.8315408191785,977.7995905494868,973.4697065635781,113.0,691.4087211189717,928.2268365483876,0.7448704281056726,875.1585611851852,713.495168,84.0930712511847,76.6999256123955,396.2291713676148,517.6812637563694,516.302616132251,189.0,366.05593209535044,496.9875650096644,0.7365494790362253,892.6587237849465,713.495168,84.0930712511847,75.8753543501658,406.90033657194823,538.5300774580777,537.0833994769565,186.0,380.7982696435235,508.55885276237075,0.7487791581546912,913.8396025635359,713.495168,84.0930712511847,75.8884014473012,515.2814013345287,683.3062634929051,681.4055469779838,181.0,483.17049254307506,643.663718637607,0.7506567149159262,truth
1783334424960507487,1783334434960507487,1303.062273007874,1301.079424,46.11555520226258,65.86482097414144,699.7020648758794,982.8540415288008,978.9644186532207,127.0,694.9827576816197,858.8745207804014,0.8091784549041409,1432.417530482759,1510.930944,17.018835848454046,59.809378691106744,767.3054404625511,1037.2038735769856,1032.852169527922,116.0,733.4138924792411,953.1879715387114,0.7694325929179597,878.2674725925924,713.495168,44.67444410219188,77.15791718671366,430.40479552703465,553.7817972415282,552.321627856523,189.0,391.5828641271583,542.0590431736406,0.7223989140270104,892.4330769892474,713.495168,29.175147168778363,76.78196205502405,460.38347035918133,597.5183385906754,595.9511561061846,186.0,422.5092691007861,578.4884081136684,0.7303677362844692,889.0483750537634,713.495168,44.67444410219188,77.62244315584304,545.9697105681371,697.3527047445241,695.5471483607529,186.0,493.1028264036333,688.9054006263015,0.7157772692090103,truth
1783334425960507487,1783334435960507487,1309.6717697007878,1259.1091200000003,35.739555281753496,64.54141453527319,692.1786273427965,960.7102368856002,956.9460140044176,127.0,679.3247232571424,852.92523968172,0.796464557093704,1427.720254330435,1510.930944,34.03767169690809,60.85222215223148,781.5232787447962,1019.6037495578051,1015.1262258673369,115.0,720.9687254355543,980.6422991651691,0.7352005170991731,862.2590203979056,713.495168,40.8452060362897,78.14889716648578,423.06237065035015,516.6029157536088,515.2901267977365,191.0,365.29342491011954,539.6701731421757,0.6768827389203947,874.0482356825396,713.495168,52.94748930630148,77.98760671720018,463.5492473487042,603.9693187830932,602.4338472957253,189.0,427.07080094014486,581.8600131709275,0.7339751680352854,849.3464151578947,713.495168,71.47911056350699,78.83994733483105,438.9409048368029,585.6752931363271,584.1321059793383,190.0,414.1349713501159,547.3429899343937,0.7566278895793577,truth
1783334426960507487,1783334436960507487,1333.2340923870968,1301.079424,62.15574831609303,63.325361946046804,703.9291908882863,1004.091076964629,1000.0243621367156,124.0,709.9996094505927,859.6411395805098,0.8259255830834951,1420.9437667796615,1468.9606400000002,18.095977357849872,61.0955472152039,796.5814770895821,1088.999920787607,1084.4671535360787,118.0,770.0392287005299,986.2068203047409,0.780809068489899,854.2571106461539,713.495168,95.30548075134264,78.79542401686285,435.2573578422286,563.1839926107135,561.7426518480537,195.0,398.23122023075,547.3608341198333,0.7275478905448423,867.6048780000001,713.495168,95.30548075134264,78.31517540265405,459.10250294336356,587.9990543533169,586.492390324988,192.0,415.77811866450764,578.8907448194552,0.7182324512619057,868.8512147434558,713.495168,95.30548075134264,78.58998299823153,494.61634738555955,643.7254386031798,642.0366375451521,191.0,455.182622858593,621.0435187052925,0.7329319269083194,truth
1783334427960507487,1783334437960507487,1359.0871612357726,1301.079424,47.65274037567132,61.44925053272113,708.0616519017125,1007.077652483558,1002.941851494745,123.0,712.1114372525532,865.535242641578,0.8227411226829059,1443.7784576000001,1510.930944,14.89148136739729,60.67232840689871,820.54312377419,1094.118546686691,1089.4351886943325,115.0,773.6586437841294,1023.3807636433578,0.7559831797402681,854.6284700518137,713.495168,17.433929405733412,78.99788075631254,453.5800697478953,558.7613833547772,557.3836380233339,193.0,395.10396323533905,577.4220193782664,0.6842551028115682,874.564449842932,713.495168,89.34888820438375,78.13254998587237,491.79651383395344,623.1181575398164,621.5215896078149,191.0,440.61107467687157,621.8187537172757,0.7085844099150563,867.3130360628273,713.495168,29.78296273479458,77.86654229987063,446.36396825435725,593.9927035585907,592.4553413322546,191.0,420.0162686616102,557.0231156256827,0.754037412235257,truth
1783334428960507487,1783334438960507487,1378.0827916694218,1385.0200320000001,51.05650754536213,59.89120172668856,712.3904754530882,1027.0784814708436,1022.7902740454443,121.0,726.2541590588153,866.7628437222264,0.8378925842506001,1499.9657294414417,1510.930944,34.867858811466824,58.48861647538951,845.559109814515,1114.0649324662154,1109.015693457028,111.0,787.762868428994,1058.1376318527243,0.7444805332645403,872.3670517277488,713.495168,32.490504801594085,77.97372360311482,456.6070911536375,578.0257066453146,576.5381696373198,191.0,408.725896869048,577.4527184089349,0.7078084210863484,858.8768395876291,713.495168,51.05650754536213,78.39300202761136,453.12549710616247,601.7633695374001,600.2090301648792,194.0,425.5109592695619,565.787631559901,0.7520683301195711,886.2878025531917,713.495168,51.05650754536213,76.78912578369588,456.23873155806365,592.6563111361012,591.076745796184,188.0,419.0712965173415,573.1467391210203,0.7311762728686734,deceptive
1783334429960507487,1783334439960507487,1425.517693754386,1426.990336,40.8452060362897,58.23634851480893,756.0209476894034,1076.346600702042,1071.7037604193085,114.0,761.0919802635029,923.8532597115503,0.8238234505998653,1491.8535330909092,1510.930944,95.30548075134264,60.27331742326795,864.2520526075417,1151.0135052554563,1145.7215258104773,110.0,813.889454803431,1078.2649018458242,0.7548140103699722,910.5033162841532,713.495168,89.34888820438375,77.18274858608113,561.8764539077118,770.4028880657454,768.2834813320039,183.0,544.7571063969893,695.0037024554615,0.7838189990533172,876.6882117446809,713.495168,25.528253772681065,77.80010863285581,477.8126521740702,632.6416904066797,631.0117344376225,188.0,447.3452293478836,597.1189027698609,0.7491727816231896,911.921438577778,713.495168,35.739555281753496,76.11191781784501,510.24047806021997,663.0775407012227,661.2467197245461,180.0,468.8666254823335,640.9155440903647,0.7315575816588816,deceptive
1783334430960507487,1783334440960507487,1445.030203508772,1406.005184,47.65274037567132,55.67452180294842,730.8600264971878,1066.46128268895,1061.7446742113027,114.0,754.1020048622602,885.4252310581057,0.8516834379805159,1506.0155029909909,1552.9012480000001,33.246097936514886,58.377010765493374,817.1478901689547,1069.072793175768,1064.252137881055,111.0,755.948621636629,1024.5643901375786,0.7378244148570499,936.5508285842698,713.495168,89.34888820438375,76.29030595667815,589.2112069663032,811.1921379509672,808.8974237294003,178.0,573.5994615903422,727.8952683326154,0.788024715292191,926.1447082666667,713.495168,23.435773955248195,75.6816914128701,531.9351534269601,675.0390726211419,673.2372496949324,180.0,477.32470581628775,672.302444969096,0.7099850809530064,963.6187716069364,713.495168,23.435773955248195,73.78843973897274,554.3169803599435,702.617915935546,700.6623595776466,173.0,496.8258929411841,700.7971500244058,0.708943940374018,deceptive
1783334431960507487,1783334441960507487,1392.426556235294,1343.049728,52.94748930630148,58.15951230437407,716.3484452048843,1009.3923895337095,1005.1138177735601,119.0,713.7482035173791,878.4030628833026,0.8125520432209625,1451.4426000695653,1510.930944,46.11555520226258,59.77762199141634,767.5182688517599,1016.0376289333428,1011.5886586388712,115.0,718.4470973594678,959.2108580444044,0.7489980866398918,974.6437262222222,713.495168,89.34888820438375,74.87325808453214,630.718411591327,843.0055371019664,840.5224883284542,171.0,596.0949318626082,786.0959518687458,0.7582979284469562,923.5811589720672,713.495168,89.34888820438375,75.57313603193437,525.6134181284509,698.2627316173646,696.3114916918593,179.0,493.7463125764808,656.2364056054126,0.7523909194293691,995.6569707951809,713.495168,95.30548075134264,72.51739370184966,592.0482469062962,760.8772052552929,758.5680126605586,166.0,538.0214314862862,745.8610614319272,0.7213426994745858,deceptive
1783334432960507487,1783334442960507487,1382.9215168,1343.049728,23.82637018783566,58.70435426545353,716.2150453572373,1022.8782268937429,1018.6126289418823,120.0,723.2841305646375,874.2757091609129,0.8272952376302554,1405.8258237264956,1510.930944,40.8452060362897,63.09489572519563,779.0498391332413,1022.8510590015569,1018.4342819798641,117.0,723.2649199638423,975.8489798539048,0.7411648061282218,987.1817611497006,713.495168,95.30548075134264,74.56337447712421,650.5085283338279,860.1103040099099,857.5158459721778,167.0,608.1898285338302,813.2498122373471,0.747851176086506,922.6393233258427,713.495168,84.0930712511847,75.81896951327022,530.8771719061053,702.5254948347651,700.5381485764719,178.0,496.76054135409726,663.5326861420175,0.748660241957959,998.6909686746988,713.495168,38.63735706135513,72.32289363381295,591.7396677186739,761.692528713887,759.3979021668848,166.0,538.5979522327185,745.1629295858553,0.722792198656553,deceptive
1783334433960507487,1783334443960507487,1329.9549931520003,1301.079424,35.739555281753496,62.637635833189684,715.9481652613216,1028.3069851948412,1024.154205991268,125.0,727.122842372767,872.2440809383457,0.8336231317162281,1449.617804243478,1510.930944,36.655954135131786,60.03364557498793,764.5390523112866,995.540633331412,991.1663187422745,115.0,703.9535327753917,959.8253158073105,0.7334183847644146,1006.7785650424242,713.495168,95.30548075134264,73.59902517298394,660.5911988206328,938.1908104705254,935.3261340291607,165.0,663.4010841306115,807.9052943914444,0.8211371911237679,953.0856462628574,713.495168,95.30548075134264,74.81485470978154,568.6023929391075,753.5964265932363,751.4278380007759,175.0,532.8731435220276,710.3805099864683,0.750123540878364,998.7424436886226,713.495168,95.30548075134264,72.27835099297782,580.2339123378205,789.6867955063856,787.3046683969285,167.0,558.3928881160397,719.3340512615964,0.7762636665631333,deceptive
1783334434960507487,1783334444960507487,1279.448575015385,1238.1239680000003,31.077874158046516,65.2333071887827,708.8049265245039,987.5763342010691,983.7566203098822,130.0,698.3219228529281,872.342876260424,0.8005131260388206,1422.2867674482761,1510.930944,34.867858811466824,59.395914906450166,718.2297580447997,950.1425313484408,946.0030906421957,116.0,671.8522270102343,897.7835280360614,0.7483454597122525,1039.5519672,713.495168,37.620584507108944,71.80828190753462,662.2588453384532,949.8377819572036,946.863967739453,160.0,671.636736649128,807.2333017472071,0.8320230783286708,976.8526895906434,713.495168,11.814729018761488,73.15756277892412,587.8846889631914,723.0536087157825,721.3809278345495,171.0,511.2761098843344,748.6756205229789,0.6829073845455103,995.9779326467068,713.495168,89.34888820438375,71.4758138017993,556.6929753776744,778.2548663728121,775.9071842022217,167.0,550.3092935036459,684.3931460874335,0.8040835836093281,deceptive
1783334435960507487,1783334445960507487,1283.322756923077,1259.1091200000003,71.47911056350699,65.0981064811558,694.4149474840264,947.8054664261259,944.2143447594357,130.0,670.1996725555923,860.1397781940296,0.7791753033010052,1424.1205716239317,1510.930944,71.47911056350699,59.582086158255,729.5894122389261,975.7189160247709,971.5108651813983,117.0,689.937462053103,909.1724644588313,0.7588631299604701,993.4647407904192,713.495168,51.05650754536213,72.41649088329284,564.9616211065417,810.4351281723682,807.998124371377,167.0,573.0641748424704,688.5942146160701,0.8322233365872611,930.8497591061453,713.495168,51.05650754536213,74.20400894011178,495.90415962267866,666.947066442551,665.0760383947892,179.0,471.60279337400266,616.9580809934085,0.7644000587765073,965.8021978265897,713.495168,51.05650754536213,72.2215910374788,494.4082347946169,703.4406764679591,701.3928098912917,173.0,497.4076724929461,604.2944720399427,0.823121334891292,deceptive
1783334436960507487,1783334446960507487,1270.002176,1175.1685120000002,119.13185093917832,66.91911898573497,726.5850620861061,981.3426594692203,977.6122094572472,131.0,693.9140491783265,902.825205158679,0.7686028759646397,1446.6981309217392,1594.871552,35.739555281753496,57.4156159370755,712.3968086494748,956.2466537555367,952.0439920766087,115.0,676.1684933574845,886.8012800189496,0.7624802857107241,994.9726559041916,713.495168,43.32067306879212,72.58861075100458,578.9114872657469,834.0152605379836,831.4994101062691,167.0,589.7378463394734,704.5435802517243,0.8370494925647719,933.4855816629215,713.495168,89.34888820438375,74.28345975868191,503.1752395792854,675.411032544096,673.5004310447673,178.0,477.5877212001382,626.3590246262698,0.7624823821850429,944.0933723636365,713.495168,43.32067306879212,72.92168848492203,458.1825452943451,639.2329881131794,637.4040366709646,176.0,452.0059806529689,563.6557338941769,0.8019185355042097,deceptive
1783334437960507487,1783334447960507487,1244.2775088120304,1175.1685120000002,29.78296273479458,67.36557554513176,696.615780844561,929.3155643428559,925.7931599420622,133.0,657.1253374090367,868.7003152473727,0.756446528077882,1421.2013285517241,1510.930944,28.591644225402803,57.517457042335934,689.7067988470423,976.0185399960579,971.7931283089317,116.0,690.1493281950061,844.5341255080577,0.8171953120068697,977.6611990588237,713.495168,89.34888820438375,73.90181284969239,593.7366710970289,826.4717218100515,824.0229487490401,170.0,584.4037589508092,730.9463677130116,0.7995166058206082,944.33184,713.495168,43.32067306879212,73.26188903571324,490.1729035708416,653.0143854460257,651.1602670645034,176.0,461.7509001612507,611.4997987655241,0.7551121048501052,933.7213698876403,713.495168,89.34888820438375,73.61352252497504,456.79875266600743,635.417366643994,633.6199042528953,178.0,449.3079288376669,562.486793992751,0.7987884046988973,deceptive
1783334438960507487,1783334448960507487,1293.5378850000002,1259.1091200000003,17.22388206349566,65.21770539027824,727.1078843107437,948.8742115309689,945.2145296614074,128.0,670.9553894665867,912.2944609754911,0.7354592384011108,1430.2466526896553,1552.9012480000001,57.183288450805605,57.28627028829799,689.5791831117053,969.3666153102357,965.1583010582734,116.0,685.445707141719,846.2393224392896,0.8099903762045918,961.6779483005781,713.495168,37.620584507108944,74.87731853265441,594.5126009519169,818.1765488162063,815.8139663998835,173.0,578.5381858757457,734.5319932603527,0.7876283009917644,936.7008756363638,713.495168,89.34888820438375,73.91301879985302,496.15505196830696,663.1660457687648,661.268745040686,176.0,468.92920801576196,618.3788241217529,0.7583202880236957,914.1224453626373,713.495168,37.620584507108944,74.71893517107983,447.1332512340102,614.8333385647345,613.1557462959821,182.0,434.7528229986882,552.5859934576052,0.7867604827954126,deceptive
1783334439960507487,1783334449960507487,1261.9707316363638,1196.1536640000002,34.03767169690809,66.71352849462589,699.4425647228251,985.874829069667,982.1300320394344,132.0,697.11877703629,857.5852774178206,0.8128856632605758,1412.0517532203392,1510.930944,36.655954135131786,57.15097348708769,671.1105355488006,943.21743073488,939.2141765717906,118.0,666.9554414059864,823.6285093649132,0.8097770218277961,911.8163847032969,713.495168,89.34888820438375,76.25021658376151,511.1647888146084,713.8402525244657,711.8701565602166,182.0,504.7612832439671,628.6389314357791,0.8029430854546634,913.2000210989011,713.495168,89.34888820438375,75.25603754414757,485.37406344391866,659.437046037881,657.6128736746236,182.0,466.29240701901125,602.04788722022,0.7745104947913364,898.3913721081084,713.495168,89.34888820438375,75.45217175047067,416.8718385516747,566.3377980564333,564.7967860273727,185.0,400.4612974479615,517.0876465146453,0.7744553561610167,deceptive
1783334440960507487,1783334450960507487,1240.9855796363638,1133.198208,129.96201920637634,68.00063950836041,688.0260098275706,948.2561667487902,944.6325970842198,132.0,670.518365810031,849.6835534210483,0.7891389248507267,1396.857810051282,1426.990336,28.591644225402803,57.47360112081491,660.9454736939974,936.6583342756443,932.6982462814419,117.0,662.3174598212041,808.9286925317701,0.8187587681533401,918.7090853480664,713.495168,95.30548075134264,75.933684181344,522.0556798644014,728.3399850749317,726.3140006634426,181.0,515.014142455793,642.2339778403405,0.801910456665103,908.6685488961749,713.495168,44.67444410219188,75.63075636766783,489.6871013098503,657.1199683147571,655.3239332638509,183.0,464.65398564845395,609.6189393293079,0.7622039862469794,894.0126045591398,713.495168,95.30548075134264,75.44431226191351,407.74866261037045,543.4162617237782,541.9455790224979,186.0,384.2533236719273,508.61835922883273,0.7554845724690951,deceptive
1783334441960507487,1783334451960507487,1276.8657870769232,1343.049728,32.490504801594085,66.50274558423001,703.9262571452028,995.7324816941314,991.8848078743068,130.0,704.0891900536301,862.0635459301826,0.816748595132746,1391.7211729747903,1385.0200320000001,49.295938319659996,57.346522949202416,666.6607264975621,906.8498984034092,903.0271575660095,119.0,641.2397126793823,826.6068375896406,0.7757493448145396,907.7511652021858,713.495168,89.34888820438375,75.70509403375176,479.7948192902405,673.2617188640781,671.4095510663775,183.0,476.0679269221006,589.139882976493,0.8080728205275757,929.4771818426968,713.495168,89.34888820438375,74.78992959963121,512.576992651487,674.1948228626037,672.2876619254718,178.0,476.7277310870103,641.7442496801983,0.7428624897294818,897.9376390918919,713.495168,43.32067306879212,75.18729479907606,401.1856658201742,527.352591047809,525.931910635829,185.0,372.894593206202,502.36907557884535,0.742272188582749,deceptive
1783334442960507487,1783334452960507487,1289.366781023256,1259.1091200000003,84.0930712511847,65.67181775245011,712.5103608021067,994.9313941149431,991.0417165148635,129.0,703.5227355940618,876.281866040728,0.8028498167750094,1473.4176634336284,1552.9012480000001,89.34888820438375,53.32386865593097,677.6649947334204,988.3933280427285,984.0192004219855,113.0,698.8996247385531,821.1146981051113,0.851159559500525,896.9460129032258,713.495168,37.620584507108944,75.90372397234549,454.33888957573333,612.0469072219225,610.4108901626782,186.0,432.78251850087514,564.975485310505,0.7660199951207124,917.9838158222223,713.495168,84.0930712511847,75.24767988777396,496.3422595500624,662.9987446430388,661.1723044462042,180.0,468.8109082552609,618.7240446119431,0.7577059794876632,897.9376390918919,713.495168,26.47374465315074,75.09005606347671,404.8202072768857,501.61179076496796,500.2487303216084,185.0,354.69309877303647,514.6408488264334,0.6892051021248402,deceptive
1783334443960507487,1783334453960507487,1415.8699990427353,1426.990336,102.11301509072426,58.71588054951864,742.0475390680508,1037.0242731467868,1032.5462504920422,117.0,733.2868957971434,912.3673956800492,0.8037188738540739,1538.2693988990827,1636.8418560000002,57.183288450805605,50.26445739300006,667.8320138336671,936.5434242271702,932.2157170160787,109.0,662.2362061467016,820.195587062302,0.8074125447548869,875.8247564867726,713.495168,84.0930712511847,76.81612784892339,418.69379273401955,550.648479148678,549.2510477797957,189.0,389.3672736560895,524.2189878770209,0.7427569062939647,914.535242961326,713.495168,84.0930712511847,75.80870437513165,519.8223742462395,698.3630423580935,696.4204432060889,181.0,493.817242981476,646.9179753269203,0.7633382620600784,918.2733545494506,713.495168,43.32067306879212,74.49163614349617,488.0332988238279,651.0188791376993,649.2200226807239,182.0,460.3398641187326,608.6021740622596,0.7563887934314873,deceptive
1783334444960507487,1783334454960507487,1443.7784576000004,1468.9606400000002,54.98393120269769,57.0853363900395,742.1516441260155,1020.0781965293083,1015.605592007393,115.0,721.3042101064177,917.2994298478956,0.7863345235328694,1539.299760592593,1636.8418560000002,36.655954135131786,49.35751480559571,660.072393196464,910.0534052420105,905.796272058993,108.0,643.5049340885348,815.071670727225,0.7895071773435403,897.3973064946236,713.495168,84.0930712511847,76.10122226240753,458.68240127942124,591.9506250506662,590.3487650177836,186.0,418.57230110094144,577.2154752451145,0.7251577947094969,897.3973064946236,713.495168,84.0930712511847,76.24656823691708,464.0482803826216,607.482829014576,605.8389287117222,186.0,429.5552278505947,581.7411504829689,0.7383958097067269,943.0276780112995,713.495168,84.0930712511847,73.97602390142147,529.1315776667094,712.513850117286,710.486939658306,177.0,503.82337510726825,658.0588547507604,0.7656205390596731,deceptive
1783334445960507487,1783334455960507487,1420.1158896551722,1426.990336,142.95822112701399,58.69757524955658,730.7497003760794,1012.517603847728,1008.1612981566215,116.0,715.9580637514828,900.9396620607141,0.7946792597784806,1540.4656023703703,1636.8418560000002,25.528253772681065,50.35519683495791,669.1244237955618,946.9703038967468,942.6589551693303,108.0,669.6091234676754,819.3087329718334,0.8172854706904431,903.1555687783783,713.495168,43.32067306879212,75.6657721323274,459.9092924055899,593.7624559064288,592.1610068266646,185.0,419.8534589854142,578.7008302836729,0.7255103794815821,903.1555687783787,713.495168,89.34888820438375,76.17353113342715,475.868750996508,627.8520651338316,626.1619431415769,185.0,443.9584528381103,595.2752157000565,0.7458036906777743,938.6729226067416,713.495168,43.32067306879212,73.92274727088423,520.7734171715551,703.0820968249718,701.1061679259183,178.0,497.1541183957944,647.1698350094258,0.7681972976823828,deceptive
1783334446960507487,1783334456960507487,1450.1844513684214,1426.990336,17.018835848454046,57.04228399282743,726.4985049754788,1004.9493988610659,1000.5872155826087,114.0,710.6065346840043,896.1692540449081,0.7929378646685806,1561.13841046729,1636.8418560000002,64.98100960318817,51.87642143895469,740.6355718588965,1074.8695367783637,1069.7962488561893,107.0,760.0475383468241,899.0250109601933,0.8454131187463452,897.3973064946236,713.495168,89.34888820438375,76.09734184083354,459.05590604055385,594.7098904596608,593.1003884815548,186.0,420.52339638273503,577.100239376828,0.7286834551252832,897.3973064946236,713.495168,89.34888820438375,76.51765734967448,473.030602293878,624.531539549511,622.8413293068032,186.0,441.6104866803337,591.61304113415,0.7464515755665995,937.7297697078652,713.495168,89.34888820438375,74.1045504555899,521.6024347290775,707.9750308821289,705.9722686493939,178.0,500.6139452475087,647.171568243279,0.7735413139461688,deceptive
1783334447960507487,1783334457960507487,1421.6095277948718,1426.990336,40.8452060362897,58.290329562326136,698.7758653934487,961.0945168883205,956.9511775848066,117.0,679.5964502529403,863.5101345754593,0.7870161831824483,1523.252501137615,1636.8418560000002,30.4166427929817,52.35239693486022,666.2163704445417,1007.9942858902319,1003.3204807382468,109.0,712.7595949502745,796.0373008846746,0.8953846687311643,914.3530514285715,713.495168,89.34888820438375,75.28186100190493,472.03017699730935,623.0465710472486,621.3231073604661,182.0,440.5604553825355,590.405130879457,0.7462002485078076,887.4040340425533,713.495168,89.34888820438375,77.13380022601837,468.8820119405335,619.5513753869905,617.9030353659118,188.0,438.08897882959326,586.293190781564,0.7472182616441346,930.8919111910113,713.495168,89.34888820438375,74.46345381100859,515.0952768457531,695.6233062457402,693.656944348238,178.0,491.87995699776934,640.0572961927255,0.7684936331850845,deceptive
1783334448960507487,1783334458960507487,1466.337496,1426.990336,22.691781131272062,57.17940324662057,773.7563806793354,1044.615542327758,1039.9297354009398,112.0,738.6547337128206,961.5573126266527,0.7681858626763112,1539.299760592593,1615.8567040000003,19.855308489863056,51.610464581224406,679.3688003137994,1012.5584921092262,1008.0143227744344,108.0,715.9869761184591,816.5569537356196,0.8768365425619503,912.9694150329668,713.495168,84.0930712511847,75.68146085339795,502.36546435625195,671.8963330664692,670.0377352363125,182.0,475.10245336567544,626.0039528299349,0.7589448137154903,883.8320932765959,713.495168,84.0930712511847,77.02909052656392,451.24516084153043,587.1730695115881,585.6010265157001,188.0,415.194059181764,566.613922327966,0.7327636029060409,947.9088545454547,713.495168,89.34888820438375,73.5050265780046,524.5997470240798,717.2170999169749,715.1649723921525,176.0,507.14907493424255,649.4687806601083,0.7808675182489686,deceptive
1783334449960507487,1783334459960507487,1479.3603613451332,1426.990336,38.63735706135513,55.295974661338896,755.1225320336259,1026.4292970636513,1021.843620449708,113.0,725.795116362249,936.4992265357744,0.7750087728818039,1567.551259773585,1636.8418560000002,35.739555281753496,51.5744998507662,704.6118181009488,1074.5060495735768,1069.3783083968876,106.0,759.7905140794447,839.2346607311305,0.9053373861102507,908.2098570491804,713.495168,89.34888820438375,75.71479594050875,489.9892055723994,647.3434671505025,645.5626426065563,183.0,457.74095537893135,612.7115569657012,0.7470741332932864,882.7087746031747,713.495168,89.34888820438375,76.97040806791126,444.6127102562116,578.943736153952,577.4021118107688,189.0,409.3750417599349,558.1818358158689,0.7334080321004536,937.2581932584271,713.495168,89.34888820438375,73.76421487900689,503.1439042451152,690.6761105522739,688.7327341567042,178.0,488.38176137506247,622.1327867393994,0.7850120935350046,deceptive
1783334450960507487,1783334460960507487,1451.6570936140351,1385.0200320000001,49.295938319659996,56.42641267265325,747.412525217641,997.9650488473259,993.5439045667028,114.0,705.6678534271083,931.8086745808982,0.7573098133525085,1536.1908491851852,1594.871552,24.230206970680335,52.70130527884036,707.8066111805441,1076.6661825012466,1071.7817871368247,108.0,761.3179587208645,843.906322127237,0.9021356266200354,909.5859325901641,713.495168,89.34888820438375,75.26425199697655,472.1654369451522,627.6967352362399,625.9699608649346,183.0,443.8486180142021,589.389176889646,0.7530654369265859,856.8398985846156,713.495168,89.34888820438375,78.05619800671904,406.39643141512846,538.9828200223515,537.591937827989,195.0,381.1184069808532,507.632247659751,0.7507765882444573,928.2432234666666,713.495168,43.32067306879212,74.41058503052435,501.22032457032464,693.0934528618908,691.16761199234,180.0,490.09108051464176,618.3437506151078,0.7925867772207862,deceptive
1783334451960507487,1783334461960507487,1494.2940667387386,1426.990336,36.655954135131786,54.86519617546584,748.5720738845356,1009.941582660088,1005.3857088937756,111.0,714.1365417012223,930.4433349232496,0.7675228731259921,1565.060868785047,1594.871552,39.71061697972611,52.233017029869174,750.3671640580374,1172.6236198212976,1167.0803436832632,107.0,829.1701133551554,884.499984936293,0.9374450282380471,908.2921224347826,713.495168,21.993572481079074,75.0784088266476,438.24133415013983,545.5992178279465,544.2272933899906,184.0,385.79690673621724,556.4991530018463,0.6932569522436224,852.6824006530616,713.495168,89.34888820438375,77.84729353815878,384.12824289052867,527.0677484418575,525.7145996431157,196.0,372.69317906796283,475.0356945645639,0.7845582623208721,942.1856312727275,713.495168,46.11555520226258,73.57999655271152,506.64795314626645,704.082947470667,702.0753226819347,176.0,497.86182667432035,624.0601714777649,0.7977785627552407,deceptive
1783334452960507487,1783334462960507487,1464.5036165663716,1426.990336,25.992403841275273,57.94020578940996,763.1781757371432,1016.7701938862064,1012.2325863964171,113.0,718.9650990052972,952.064309303263,0.755164427423446,1621.205860392157,1636.8418560000002,109.96786240539538,52.39231681298641,828.740225038576,1306.4177759055021,1300.006600883154,102.0,923.7768684054279,973.1078408344625,0.949305749723759,928.7395203575419,713.495168,33.246097936514886,73.85828846675068,441.69245648170704,534.6807993272516,533.2120147972632,179.0,378.07641897454323,564.5472194009834,0.6696984875343177,865.8561153333335,713.495168,95.30548075134264,76.96223311676547,384.0972868094588,508.26111159755675,506.92902952905115,192.0,359.39487862404496,480.08240134187315,0.7486108168504078,960.950139560694,713.495168,95.30548075134264,72.80894688741809,532.2753787086642,716.5708134144608,714.4848888676256,173.0,506.6920813657255,662.016408331046,0.7653769226703978,deceptive
1783334453960507487,1783334463960507487,1413.241443310345,1406.005184,37.620584507108944,59.64483884277097,744.9252361969203,1038.2249552035305,1033.711965667177,116.0,734.1359062215159,916.7057601238424,0.8008413802508864,1627.7894374901962,1636.8418560000002,33.246097936514886,53.037415176269576,860.1277233633576,1331.9141578752042,1325.3041864002728,102.0,941.8055329919266,1017.9099026973663,0.9252346700785893,929.9487582921349,713.495168,89.34888820438375,73.6010978658481,437.66692061154197,539.480153674459,537.9540921161076,178.0,381.4700749787707,557.0861313504628,0.6847595973247949,873.1162709787235,713.495168,95.30548075134264,76.18828040947434,356.6019069392241,454.72840439543853,453.51114536469566,188.0,321.54153834615323,450.15037445766575,0.7142980581401083,925.9403584719101,713.495168,89.34888820438375,73.81723818489826,435.5096591541331,539.2463658989124,537.7227955768298,178.0,381.3047620573232,553.7514475369816,0.6885846777526632,deceptive
1783334454960507487,1783334464960507487,1444.8733350956525,1426.990336,21.993572481079074,58.07535367776355,745.2735523940804,1039.7319785960651,1035.187893322553,115.0,735.2015326817839,916.8449645209173,0.801882064178595,1567.155313509434,1594.871552,34.03767169690809,55.42203378411849,853.4168902153218,1293.4676148254246,1287.293509812724,106.0,914.6197216882471,1019.0074383237043,0.8975594164384335,924.5190428603353,713.495168,89.34888820438375,74.0283102596835,436.0418028727552,556.0924964002678,554.5282888698283,179.0,393.2167751715851,550.4136549604079,0.7144022893106998,853.75861919171,713.495168,89.34888820438375,77.18820248753278,335.0708225377001,430.0461379282759,428.9248197843705,193.0,304.0885403521693,422.2676781917193,0.7201321722144834,924.5190428603355,713.495168,89.34888820438375,73.76051624391356,425.79940060587035,534.5764831546276,533.0728010057263,179.0,378.00265630149335,539.5991614403644,0.7005249142576171,deceptive
1783334455960507487,1783334465960507487,1415.2528781016947,1426.990336,59.56592546958916,58.71434485535127,726.9860403539778,1045.3203675268594,1040.8441565383619,118.0,739.1531203906565,885.3495005067144,0.8348715619849731,1574.090139339806,1636.8418560000002,79.42123395945222,53.72738166451567,787.0131207678048,1150.6489421245687,1145.0159803838253,103.0,813.6316697414098,952.7754496827997,0.8539595242638609,912.9120820331492,713.495168,89.34888820438375,74.82474499384219,436.2109574889327,559.2238369512179,557.6683226361743,181.0,395.43096730936634,549.8883285842794,0.7191114027232168,878.9206747234043,713.495168,89.34888820438375,76.70116959425805,425.5024153461278,532.4278041106473,531.0023394692332,188.0,376.4833107789015,539.6617174520126,0.697628344949962,930.1845465168541,713.495168,59.56592546958916,73.98584038938888,444.4662087874638,554.686823475915,553.122774744767,178.0,392.22281431464495,564.0753969757523,0.695337567313728,deceptive
1783334456960507487,1783334466960507487,1407.0722256271185,1426.990336,178.6977764087675,58.81376355712087,718.0220377754099,1025.601104440483,1021.3363633922074,118.0,725.2094957422781,876.4398936064696,0.8274492079064404,1563.1958508679247,1594.871552,37.620584507108944,53.33744498107893,786.7892686908956,1160.8850223115805,1155.3437733825224,106.0,820.8696714544152,949.2951058008615,0.8647149515870497,936.4624080000001,713.495168,43.32067306879212,73.67050760092587,466.54036418352797,604.5012956134285,602.7797378584305,176.0,427.44696536430905,586.4847557485356,0.7288287737654063,882.9391080851067,713.495168,89.34888820438375,76.39439113592633,426.1702738122003,534.3905889039233,532.9678082719654,188.0,377.87120921623676,540.2303945402009,0.6994630680449759,959.494522080925,713.495168,51.05650754536213,72.85532882722819,477.5996916759382,588.7313955797747,587.0175230214065,173.0,416.29596211187845,607.9076960711841,0.6848012696702749,deceptive
1783334457960507487,1783334467960507487,1403.8711007457628,1426.990336,33.246097936514886,56.826081378220735,648.4296156562671,860.6538966297559,857.1632537442127,118.0,608.5742065615262,809.7781489236869,0.7515320182082093,1573.0792787692308,1636.8418560000002,29.78296273479458,52.72037492129763,790.0342285548775,1141.4104986282657,1135.8587878985966,104.0,807.0991036975652,960.5226093028182,0.8402708024576191,952.4590375953759,713.495168,44.67444410219188,73.65109339917558,521.1204845250192,689.6433358156476,687.6496637311366,173.0,487.65147935535583,651.3302819034656,0.7487007635054672,883.2011798260871,713.495168,84.0930712511847,76.36544941241604,426.997663634181,540.230038614246,538.7521735476384,184.0,382.00032370480375,540.0850727828079,0.707296577808628,977.0586841904762,713.495168,64.98100960318817,72.10595489977908,492.1599178461421,619.9469667320667,618.0905547098556,168.0,438.36870415227537,623.1847311019181,0.7034329987147627,deceptive
1783334458960507487,1783334468960507487,1353.3702945573768,1426.990336,34.867858811466824,57.30204465894236,582.5408291440953,782.6926428380141,779.4517427703439,122.0,553.4472753355802,724.952199770158,0.7634258858874385,1512.471138642202,1636.8418560000002,36.655954135131786,54.90751248863844,765.692927078168,1070.4494658150347,1065.5002985949288,109.0,756.9220761953285,941.331930000859,0.8040968887506427,966.2930455813954,713.495168,89.34888820438375,72.90958678105936,524.797213560122,708.9934843426503,706.917364265262,172.0,501.3341005957663,652.0400988519447,0.7688700456896311,903.2739339130434,713.495168,89.34888820438375,75.95570280752408,492.9800141343293,646.2444419398024,644.4763279781635,184.0,456.96382719975037,617.7787783561728,0.7396884503149661,995.2239750898204,713.495168,89.34888820438375,71.90957117776169,543.3552066998399,699.2127611104835,697.1565179678365,167.0,494.4180848733924,684.2843999176913,0.7225330358734806,deceptive
1783334459960507487,1783334469960507487,1382.2451358677688,1426.990336,54.98393120269769,57.095790061631625,645.2092057646923,824.4192721155172,820.9817734584183,121.0,582.9524578537598,814.0473293047157,0.7161161726943618,1490.6952617142858,1594.871552,54.98393120269769,56.166353375445894,769.3692659197576,1067.856679539177,1063.0362367390373,112.0,755.0886994375021,948.039378229989,0.7964739828078342,960.4649337341042,713.495168,37.620584507108944,73.1788286543128,522.0327884687985,698.3844043434779,696.3738737524121,173.0,493.83234818620093,650.4623512667508,0.7592020463974296,907.9805111256832,713.495168,95.30548075134264,75.53841408515356,492.53339636204873,647.3359914725445,645.5551463062384,183.0,457.7356692763533,616.7797999285762,0.7421379061528274,993.2971946666668,713.495168,84.0930712511847,71.66314853412243,533.9314199615668,697.50633306244,695.4150367424697,168.0,493.2114580290139,669.728864003036,0.7364345252809322,deceptive
1783334460960507487,1783334470960507487,1378.0249813333332,1406.005184,39.71061697972611,57.12589383208706,644.6758583947005,823.6494988900739,820.211817685056,120.0,582.408145986073,813.3967669830146,0.7160197453775162,1488.6224040360364,1594.871552,42.04653562559235,55.45759649363812,739.5227724406168,1003.1514921804738,998.7938353403803,111.0,709.335222678217,917.7198008382159,0.7729322414426854,950.8444733793106,713.495168,89.34888820438375,73.71329707165765,516.8668982609696,688.9664097987298,686.9723343877201,174.0,487.1728203784317,644.6969075294942,0.7556617919035762,919.1496576000001,713.495168,89.34888820438375,74.80575156233782,496.62113154686375,659.0221830483684,657.1788025713403,180.0,465.9990545858636,620.2318414595588,0.7513304274886188,998.3845042424244,713.495168,89.34888820438375,71.76528137666581,551.7954984585039,719.8059712041025,717.6080852451744,165.0,508.97968337698967,692.4062284474824,0.7350882508931601,deceptive
1783334461960507487,1783334471960507487,1403.3599967731093,1426.990336,34.03767169690809,57.79467327523304,695.5189743569281,934.4115744444081,930.569471141379,119.0,660.7287607088394,865.5703551803903,0.7633449514004433,1428.7994008275864,1552.9012480000001,158.84246791890445,58.58389046264101,716.3210590391061,982.0650542871383,978.0149806321854,116.0,694.4248594527704,886.0692842734213,0.7837139507913314,917.0859244198896,713.495168,84.0930712511847,75.07989380382234,480.87065994365577,669.3627442000591,667.5125829493918,181.0,473.3109354974982,591.9979411776155,0.7995144958713496,897.2570395675676,713.495168,84.0930712511847,75.9141919593465,481.18364744788676,632.303989648073,630.5953539519128,185.0,447.10643885146095,602.5971467832276,0.7419657415210077,980.1300404705885,713.495168,84.0930712511847,72.4429576570617,535.9948475266372,701.0421117246965,698.9651218223503,170.0,495.71163109787017,672.0981643683834,0.7375583767048736,deceptive
1783334462960507487,1783334472960507487,1411.6960726779664,1510.930944,38.63735706135513,57.32054698891931,687.3171493640083,942.4612732121042,938.42837747659,118.0,666.4207572939863,850.1478781621394,0.7838880439655549,1410.2733505084743,1552.9012480000001,37.620584507108944,57.630085609531726,638.0500888853028,866.106274009951,862.4077656215495,118.0,612.4296195806504,791.6317403838956,0.7736294394710064,899.0719716324326,713.495168,68.07534339381618,75.87113244840184,463.0100781239031,650.8881810484535,649.1180553883762,185.0,460.2474466135387,568.1925807606648,0.8100201625255031,893.2717108021391,713.495168,84.0930712511847,76.00061752817203,476.2535300480677,640.4853376378203,638.7613223133701,187.0,452.8915254942582,592.5196054429198,0.7643485908887573,949.1011927272727,713.495168,84.0930712511847,73.29459708143739,486.7286403838429,665.2770964315773,663.3736248776931,176.0,470.421946254865,602.628521545986,0.7806167969747637,deceptive
1783334463960507487,1783334473960507487,1428.8151318260868,1510.930944,142.95822112701399,58.29977512624318,717.0895680648829,998.185035509747,993.890741051617,115.0,705.8234074878768,882.8032374068764,0.7995251688939705,1376.348481586777,1510.930944,28.591644225402803,58.539050687404796,634.3840108966351,853.1149453269189,849.5574708486354,121.0,603.2433629722551,789.2622308697953,0.7643129740383742,915.5060817582417,713.495168,51.05650754536213,75.08305547392739,478.4501598011977,654.8678307366358,653.0984513772464,182.0,463.06148389479944,592.1284842786711,0.7820287255035525,887.0480467027028,713.495168,51.05650754536213,76.2131588189791,469.9926720611945,632.6761877092334,630.9596055525988,185.0,447.36962262445195,584.5651665630367,0.7653032513975665,937.7365065142858,713.495168,95.30548075134264,73.69428681380059,468.4371579087373,646.7847890970405,644.9641294024327,175.0,457.34591033882833,578.1730718110321,0.7910190436684771,deceptive
1783334464960507487,1783334474960507487,1424.4132120701754,1510.930944,178.6977764087675,59.8282851537492,758.4779659858401,1103.2650167542918,1098.4679768791193,114.0,780.1261747928497,919.9343593287363,0.8480237387394653,1360.793271154472,1468.9606400000002,89.34888820438375,58.74947457759853,626.7504814156122,878.1340567940118,874.5927647120221,123.0,620.9345463498986,769.9691399556388,0.8064408222720112,913.1439621657458,713.495168,52.94748930630148,75.01033588521949,468.5253800977219,653.3657560512846,651.554331351141,181.0,461.99935669893887,576.4636682361802,0.8014370760130113,917.0159717541901,713.495168,84.0930712511847,75.16055293471672,512.6693801827985,663.9685994975914,662.1008922830008,179.0,469.4966991996818,644.5511705631535,0.7284087294255875,961.677948300578,713.495168,37.620584507108944,72.68722937352794,490.39118363571276,690.4331120358223,688.4459898078509,173.0,488.2099354762613,601.4919412813467,0.8116649650138904,deceptive
1783334465960507487,1783334475960507487,1512.8561873027525,1510.930944,36.655954135131786,56.87097266765983,859.9529405546785,1331.4261340829564,1325.2498404366243,109.0,941.4604480590478,1017.7741558457384,0.9250190159099921,1314.4033300317465,1468.9606400000002,178.6977764087675,60.790661827396875,599.588668830893,845.8461559801783,842.4977947071832,126.0,598.1035527341584,734.9484428748682,0.8138034151002222,949.5781280000002,713.495168,43.32067306879212,73.50013085330049,509.3596444654826,663.3962104501909,661.6111486068277,176.0,469.09195902278793,639.4301070563437,0.7336094341604933,919.6366058784532,713.495168,43.32067306879212,74.56977506400398,478.05002917019993,616.4565781944226,614.7531340330605,181.0,435.90062674833143,601.7133724452731,0.724432340562578,948.3857898181818,713.495168,84.0930712511847,72.9014484630804,472.42082230542167,656.0256307749614,654.1830537238831,176.0,463.8801721531575,582.0399124089688,0.7969903133158561,deceptive
1783334466960507487,1783334476960507487,1485.4489737142856,1510.930944,46.11555520226258,57.908333109540344,843.6181997633088,1302.8978532847423,1297.0297750362638,112.0,921.2879072510368,999.4986893039302,0.9217499903803167,1337.9313982439028,1468.9606400000002,29.78296273479458,59.57735078157472,600.2401868273541,864.9538366379331,861.4017185114835,123.0,611.6147233000038,730.4384155330304,0.8373255161472906,919.6159943111112,713.495168,84.0930712511847,74.15472262287959,426.8933743932602,548.5582748788884,547.0819298306986,180.0,387.8892760428561,537.8167540781925,0.721229439398352,942.7905576497176,713.495168,84.0930712511847,73.51803003444633,498.2895238059057,655.1054335964069,653.2418615832485,177.0,463.22949448817286,623.9343850017792,0.7424330276121133,927.077381688889,713.495168,84.0930712511847,73.60601327441353,443.2690577192512,621.6450911925033,619.9063977691939,180.0,439.5694594735488,544.393479214889,0.8074480614784093,deceptive
1783334467960507487,1783334477960507487,1523.3665896296297,1552.9012480000001,49.295938319659996,57.11627947670657,860.9437243816808,1345.3548537612894,1339.0539082809694,108.0,951.3095401968437,1014.8661352462373,0.9373744055081976,1330.290755584,1468.9606400000002,35.739555281753496,61.14227225614801,612.4024516539479,872.8496662497982,869.3675280536028,125.0,617.1979179616471,748.0687739876835,0.825055047641661,937.258193258427,713.495168,89.34888820438375,73.70074406396397,474.8758726562436,633.6379308883274,631.8583164013647,178.0,448.0496777481493,592.1485725702187,0.7566507773604711,937.258193258427,713.495168,37.620584507108944,73.55462896592928,461.54877239698,583.9106871238359,582.284426538079,178.0,412.88720647256093,583.7950119416582,0.707246889793267,921.7235270718236,713.495168,89.34888820438375,73.64019522503388,415.35205795416675,569.6412309234332,568.0566903549601,181.0,402.79717722941166,513.723545403101,0.7840738094130973,deceptive
1783334468960507487,1783334478960507487,1524.4076471192661,1552.9012480000001,25.992403841275273,56.958971238991296,856.1035341980667,1332.2611187907285,1326.0803228310167,109.0,942.0508714081006,1010.9879328520492,0.9318121817245894,1316.5244958720002,1468.9606400000002,25.08038967140596,61.51399619100992,607.2382544891072,880.2770789661683,876.8356337449493,125.0,622.4498918600636,737.3972209682195,0.8441174907640318,937.6547461818183,713.495168,95.30548075134264,73.7325242459815,476.92899349240366,621.8366329851751,620.0575970310725,176.0,439.7048999740277,598.5418365801755,0.7346268432735171,927.1192995955058,713.495168,95.30548075134264,73.96295017319494,451.8640318405832,582.881054899845,581.232359481625,178.0,412.1591465448487,568.7043392679242,0.7247336059988722,944.8142572873564,713.495168,79.42123395945222,72.40113683612289,431.2082028347489,587.680060220631,585.9791515616864,174.0,415.5525557501268,534.3585548007225,0.7776661419879358,deceptive
1783334469960507487,1783334479960507487,1529.413279706422,1594.871552,64.98100960318817,55.978443663188656,811.6556200157302,1319.8558581711063,1313.7541948946055,109.0,933.2790275015793,939.1830595890729,0.9937136514258713,1339.6375081626015,1468.9606400000002,102.11301509072426,60.32063425826303,610.2360562487181,871.6407367984633,868.0971486909385,123.0,616.343075748632,744.873610205339,0.8274465188513324,944.5730486436781,713.495168,52.94748930630148,73.09674103840887,475.4558178774028,624.8799814442264,623.0760755742799,174.0,441.85687230693645,595.3971126101519,0.7421212883782509,936.1511875254238,713.495168,59.56592546958916,73.39691610597467,456.9177113305844,595.4120590099183,593.7183294747857,177.0,421.01990452615803,573.5143501705522,0.7341052658943141,926.9034934237288,713.495168,71.47911056350699,73.28513629197813,411.65787987018126,555.359487551638,553.7799763557638,177.0,392.6984596440493,511.6819129254235,0.7674659778355,deceptive
1783334470960507487,1783334480960507487,1492.7816233513515,1594.871552,109.96786240539538,58.83603172362659,840.5808389518861,1348.9863202733295,1342.841052606787,111.0,953.8773747931591,978.8826643448994,0.9744552738928371,1334.5879731612902,1489.945792,109.96786240539538,61.00265003989269,611.3775361318854,887.5956605057675,883.9804479669212,124.0,627.6249104953808,742.0299651875404,0.8458215165700959,976.1163684678363,713.495168,89.34888820438375,72.02497737336192,528.4482995533954,710.8020731288331,708.7084383189407,171.0,502.6129659908541,657.4232379606675,0.764519622929612,932.4910559106147,713.495168,89.34888820438375,73.49721199947773,450.43855192310656,580.4527255128631,578.8199918916475,179.0,410.44205836835926,567.0612281564862,0.7238055398403885,953.8051371885715,713.495168,89.34888820438375,71.97672915486093,438.4234454530324,598.6314269029093,596.90879170189,175.0,423.2963413944262,542.9920245518002,0.7795627233085533,deceptive
1783334471960507487,1783334481960507487,1495.6690152727274,1594.871552,52.94748930630148,57.659705423365764,813.2131580684893,1286.375994416076,1280.471374773822,110.0,909.6051888071959,953.3837009090118,0.9540809098581453,1437.4829120000002,1594.871552,34.867858811466824,56.17447204151537,647.0573931198636,891.9579637887923,888.1110877169956,116.0,630.7095247284001,799.0427320804472,0.7893314079539122,963.6088982325582,713.495168,95.30548075134264,72.67796850540111,521.5761154780795,693.9111743154472,691.879393360386,172.0,490.6692968995731,650.926346843055,0.7538015618499438,935.2027060790961,713.495168,71.47911056350699,73.47855425621435,455.78109942665395,596.989866225151,595.3008179756606,177.0,422.13558270745415,571.2911657773625,0.7389149491451515,951.8093079540231,713.495168,62.15574831609303,71.96940247800957,437.1705859344809,599.4540667147996,597.7208020182585,174.0,423.87803558388794,540.7401851974448,0.7838848437519286,deceptive
1783334472960507487,1783334482960507487,1499.1029492363634,1615.8567040000003,36.655954135131786,56.89942299575044,804.3896675137929,1270.4237539008334,1264.5841597344347,110.0,898.3252513637489,943.7114738027875,0.9519066751873325,1397.1131704406782,1510.930944,39.71061697972611,58.06375100540862,647.7444040946415,861.2582562499077,857.6285856482643,118.0,609.001553347211,808.5197462537241,0.7532302781336133,960.9501395606936,713.495168,43.32067306879212,72.61219268971868,512.354100100189,681.5060275715455,679.5220612711105,173.0,481.89753351534597,639.4535412169222,0.753608358471615,923.5798563555555,713.495168,89.34888820438375,74.31536808071249,450.34360549835804,594.5408855562816,592.8778772347304,180.0,420.4038918695019,563.2486217266843,0.7463913370630534,944.5703076363636,713.495168,89.34888820438375,72.34372996280563,433.06467724722154,586.1610751602336,584.4839790813928,176.0,414.47847111339877,537.7674477413356,0.7707392346900879,deceptive
1783334473960507487,1783334483960507487,1489.756736576576,1594.871552,84.0930712511847,57.08432968494933,799.7192630839476,1209.158866814105,1203.6506859985507,111.0,855.0044342560951,955.8166708089326,0.8945276436039586,1463.3893607079647,1594.871552,21.023267812796174,55.27005168586992,658.9830456026505,862.2899015986137,858.6528997717753,113.0,609.7310367690606,826.2150689643424,0.7379810168959472,956.3922721839081,713.495168,39.71061697972611,72.88736407844901,510.12325589730114,681.1170992214899,679.1613420438301,174.0,481.622519641626,635.9806181807371,0.7572911907588281,918.4772052154697,713.495168,95.30548075134264,74.43848322380214,440.12782680524697,581.168078885864,579.5516623195833,181.0,410.9478895893528,550.4415717200577,0.7465785847264308,944.5703076363639,713.495168,95.30548075134264,72.02242460309805,420.3500150413572,571.6197035748041,569.9843664152031,176.0,404.19616865758815,521.2494593875391,0.7754370990283866,deceptive
1783334474960507487,1783334484960507487,1484.6995040000002,1615.8567040000003,89.34888820438375,53.97224579558179,670.676532741,896.5871017454949,892.585414702315,112.0,633.9828195686324,835.8510126720447,0.7584878285209214,1466.3835160701753,1594.871552,71.47911056350699,56.971229116477886,717.3037346524094,927.2768083961639,923.1862887551637,114.0,655.6837192539464,902.2686549167295,0.7267056388149266,932.2565849385476,713.495168,84.0930712511847,73.45293151749685,463.7258511239791,627.2611944302073,625.509586606096,179.0,443.54064415677306,575.9506736620898,0.770101788989309,895.2904521739131,713.495168,84.0930712511847,74.92686712289171,395.0681898386345,556.6112772378385,555.1369125368982,184.0,393.583608619781,484.4623006567861,0.812413283936024,911.8793918251367,713.495168,84.0930712511847,73.58290581662253,389.3451130976405,517.4767455885561,516.0680384696549,183.0,365.9113159120139,486.0387727638589,0.7528438808107009,deceptive
1783334475960507487,1783334485960507487,1493.5378450450455,1594.871552,28.591644225402803,54.219430424459695,685.1104989023295,931.2474342583663,927.0161340541249,111.0,658.4913757266644,849.6748469027432,0.774992196281924,1499.4844974545456,1615.8567040000003,36.655954135131786,55.14895226546812,722.5074840765014,935.9865501201215,931.6838569907321,110.0,661.8424366893403,908.3041470739139,0.7286572882238337,924.5125297777778,713.495168,25.992403841275273,73.88976482348863,462.67261283729533,627.2232728171226,625.5322568778371,180.0,443.5138295270074,574.2644293777248,0.7723163874307881,866.7304966666667,713.495168,37.620584507108944,75.95410998899662,338.6290582014737,488.3603526570943,487.10210295382353,192.0,345.3229170264852,411.96519222501524,0.8382332380107248,894.6895449462367,713.495168,37.620584507108944,74.43619924705673,370.5982782134103,495.5825026322534,494.26423703859894,186.0,350.42974824866644,461.82860825275503,0.7587874418920343,deceptive
1783334476960507487,1783334486960507487,1506.7339136,1615.8567040000003,25.08038967140596,54.32972150806118,699.206076657757,932.2392322716282,927.9818908788567,110.0,659.1926828274093,872.0726911924645,0.7558918992475673,1521.3272578348624,1636.8418560000002,102.11301509072426,56.54382461567328,843.3056225789794,1086.9186601470265,1081.876043585628,109.0,768.5675551881588,1061.5934733704273,0.7239753959187902,918.9164892444445,713.495168,84.0930712511847,73.72587026975556,432.3952428861421,588.0099507602243,586.3771654067118,180.0,415.7858235877225,536.1831465020803,0.7754548539994242,853.1809490051281,713.495168,84.0930712511847,76.58806554197628,318.7401607616994,465.639826467022,464.43817329868637,195.0,329.2570788853585,385.9863574878371,0.8530277625051393,890.4510443243244,713.495168,84.0930712511847,74.52933893636147,363.2805305832494,491.827506973198,490.48919835107756,185.0,347.7745653548223,451.0786113836774,0.7709843840478905,deceptive
1783334477960507487,1783334487960507487,1483.5752994285717,1594.871552,142.95822112701399,55.95219281701301,724.3381749912072,959.8659214245063,955.6348289905286,112.0,678.7277020691422,904.9839427974158,0.7499886682752758,1533.0819377777777,1636.8418560000002,142.95822112701399,56.39427415142437,840.1012113455143,1182.5950732956467,1177.1001360945234,108.0,836.220995725154,1030.4888712463699,0.8114798898446617,903.8522845027321,713.495168,84.0930712511847,73.94738095517428,395.13368491416236,538.9738325727673,537.4911451684462,183.0,381.1120518943066,489.52840556820064,0.7785289833221137,847.7149219086295,713.495168,44.67444410219188,76.63614554811242,296.4609539223751,421.8819919516087,420.8150646780845,197.0,298.31561736947094,362.3287052082196,0.823328687684399,888.520265531915,713.495168,51.05650754536213,74.4398937756406,353.1089831694146,479.88455465123525,478.6039835435225,188.0,339.3296227805748,437.94932531249805,0.7748148088559029,deceptive
1783334478960507487,1783334488960507487,1518.1803601454549,1636.8418560000002,35.739555281753496,55.478086911258885,738.1726568414501,1002.2151168882588,997.6146377621355,110.0,708.6731053593561,915.7996273677414,0.7738298686539941,1556.8237063177571,1636.8418560000002,39.71061697972611,55.33156926882048,849.7856368237948,1184.046795858693,1178.4516938151269,107.0,837.2475185938855,1045.8391623037626,0.8005509343803938,928.7095601777779,713.495168,44.67444410219188,72.87180423768157,419.3049670077261,567.2209207346372,565.6452199750704,180.0,401.0857594823391,520.7671432463247,0.7701825368284114,852.8965348571428,713.495168,44.67444410219188,76.35898366008496,301.2873031815864,429.8970784762032,428.8055152689341,196.0,303.98313940280866,367.89292409106304,0.8262815604672107,893.9450311871657,713.495168,44.67444410219188,74.20361241158626,353.7984008989775,486.1528118996198,484.8560024031884,187.0,343.76194998712924,437.33337150035834,0.7860409755783926,deceptive
1783334479960507487,1783334489960507487,1511.3124922181821,1636.8418560000002,158.84246791890445,56.75178248312143,778.858553146502,1053.628779929231,1048.9032954129793,110.0,745.0280551412679,967.3199523141942,0.7701981679989953,1578.882864761905,1678.8121600000002,37.620584507108944,55.24480652774864,868.2178016811653,1205.8669068081856,1200.0554662033796,105.0,852.6766670125146,1069.6146750481525,0.7971811596303391,902.474969254054,713.495168,43.32067306879212,74.33067958636259,400.4697887159615,554.3858646870552,552.8909271533655,185.0,392.0100043141845,493.8787114334958,0.7937373999708659,851.8258638367347,713.495168,84.0930712511847,76.60632911750642,308.3125656943085,450.605586308528,449.44870227821093,196.0,318.62626571930025,373.2987111240829,0.853542367611846,883.374969904762,713.495168,43.32067306879212,74.7075496071414,340.06819391390314,478.68265220460114,477.40791478266027,189.0,338.4797494102352,417.1432399587943,0.8114233121545261,deceptive
1783334480960507487,1783334490960507487,1459.7566259649125,1594.871552,84.0930712511847,58.094020518856325,761.2367076169695,1035.827373178765,1031.24518484179,114.0,732.4405597133532,943.7839070944376,0.7760680747018324,1577.6837132190478,1678.8121600000002,79.42123395945222,55.74748079007232,880.2937007125773,1184.4545077659395,1178.8308829118555,105.0,837.5358144482701,1095.034647299676,0.7648486890470629,897.3973064946235,713.495168,84.0930712511847,73.96262573317401,346.8366088124773,461.49026767700275,460.24807222734523,186.0,326.32289772600365,432.8370936448619,0.7539162020012731,847.2888274517766,713.495168,84.0930712511847,76.84962359361155,304.48844372641383,445.04948594714915,443.9189530290614,197.0,314.6975094768162,368.6586001850649,0.8536285585602492,864.8492176580311,713.495168,84.0930712511847,75.49319468720438,305.8796249048131,422.31388601187496,421.21953781331894,193.0,298.62101258823947,377.5413027526996,0.7909624997608402,deceptive
1783334481960507487,1783334491960507487,1418.6686377931032,1510.930944,34.867858811466824,60.338489071517124,769.0141302249825,990.4612181366128,986.1487715748266,116.0,700.3618438466872,968.2520894959159,0.723325930761796,1540.7416272149535,1594.871552,34.03767169690809,56.298133809445076,851.3969811714667,1177.4432035515435,1171.8761319085083,107.0,832.5780736933089,1050.314483713494,0.7926940803002585,892.1495101604278,713.495168,84.0930712511847,74.17793138246567,339.71170587929754,445.6125660062167,444.427733101976,187.0,315.0956672049338,425.63534448772407,0.7402948821935101,846.6496857664977,713.495168,84.0930712511847,76.96800565300966,306.0499856627599,428.18204626896977,427.10042648279835,197.0,302.77042849912056,376.16249316163965,0.8048926567727155,846.8627329949238,713.495168,84.0930712511847,76.45890551315412,283.56165356737193,391.4036434003707,390.40394661484214,197.0,276.7641704295234,350.0217417974966,0.7907056544780123,deceptive
1783334482960507487,1783334492960507487,1410.8479113846156,1510.930944,57.183288450805605,59.88075043044561,750.5619910963856,942.9017532416011,938.8566117002571,117.0,666.7322237098209,951.0103447863331,0.7010777825551603,1543.963127703704,1573.8864,52.94748930630148,57.702850166738926,927.581272532284,1355.6121101855156,1349.2927647090096,108.0,958.5625157707833,1123.1175299071847,0.8534837096256521,895.8177789247312,713.495168,51.05650754536213,74.26519680977887,359.56201780395577,465.61802481023994,464.3672582278749,186.0,329.2416627860068,452.07261920786254,0.7282937492717776,850.1127902040816,713.495168,84.0930712511847,76.83829344422027,310.24624026354155,439.1347934859191,438.0075710758224,196.0,310.5151903288475,379.86262975297547,0.8174407430675016,833.1105344000002,713.495168,51.05650754536213,77.08493443908498,261.03000127364567,367.2737801723246,366.36007916736577,200.0,259.7017805118681,320.2355628741468,0.8109710807288801,deceptive
1783334483960507487,1783334493960507487,1368.717517223141,1426.990336,31.077874158046516,61.31785469622819,703.349584091555,888.2521733825097,884.6098275006824,121.0,628.0891352024615,890.0299399479991,0.705694389605768,1560.0282807547173,1594.871552,34.03767169690809,56.42306495519771,905.4859439985576,1327.0094543862733,1320.6854668899275,106.0,938.3373838951944,1095.249317073642,0.856734050656434,909.049111912088,713.495168,68.07534339381618,73.78997634363951,381.24458457364705,508.3440176733271,506.9467698811943,182.0,359.45350207242376,475.4907532827536,0.7559631803369107,878.0629389473685,713.495168,64.98100960318817,75.81217025281452,369.30909632544814,494.1765542340569,492.86927592176755,190.0,349.4355926023033,460.1367194310586,0.7594168816484956,851.8895550358975,713.495168,20.42260301814485,76.54793269647759,317.76661212823666,394.3529715719194,393.5087369185237,195.0,278.84966037957,403.8225761643517,0.6905251881362895,deceptive
1783334484960507487,1783334494960507487,1437.4829120000002,1573.8864,95.30548075134264,59.12617151896425,742.2699934984805,950.794226950963,946.7476182377583,116.0,672.3130453900471,935.9097557968123,0.7183524279193512,1558.7849354766354,1594.871552,84.0930712511847,57.087982939277964,961.8237378532186,1360.3733074723164,1353.9803829458872,107.0,961.9291906588471,1177.9456360439906,0.8166159466317882,943.3779694545455,713.495168,84.0930712511847,72.48241688841942,426.3643362830671,566.1314767539984,564.5189769767709,176.0,400.3154062559066,532.3972973872847,0.7519110412852134,897.4839060756757,713.495168,84.0930712511847,75.01125434658222,397.3439387865247,519.6093343901323,518.2026579225978,185.0,367.4192839150909,498.26292886832334,0.7374004017308486,883.1623543829787,713.495168,84.0930712511847,75.17418025063347,375.96624638385873,500.5997820629323,499.2667502014744,188.0,353.97750055720724,469.0961536716891,0.7545947622605086,deceptive
1783334485960507487,1783334495960507487,1386.7834901512606,1510.930944,119.13185093917832,61.583918392437745,723.0635694682264,932.4875758227904,928.6424584858695,119.0,659.3682882365,910.0871283664544,0.7245111678702918,1559.5694271401874,1594.871552,34.03767169690809,55.78986945375071,879.2271603747922,1272.9072837749598,1266.891807697015,107.0,900.081372179023,1068.1795545738576,0.8426311553380217,960.9501395606936,713.495168,64.98100960318817,71.88753156519486,454.8586329075541,567.2360242310448,565.5859945390464,173.0,401.09643926706855,577.3677987770859,0.6946983190206051,901.100133420765,713.495168,62.15574831609303,75.12380445103358,424.9463779340863,579.6282678405969,578.0353451164144,183.0,409.8590787574985,526.4661584742422,0.7785098285240516,908.4392029726775,713.495168,20.42260301814485,74.42854765317942,417.8994291984492,514.8007078913748,513.5299373193476,183.0,364.01907150962614,532.0008680795681,0.684245258515597,deceptive
1783334486960507487,1783334496960507487,1335.3271920640002,1343.049728,40.8452060362897,62.51779683859485,694.023969097987,933.9796102129801,930.2060013686897,125.0,660.4233158715667,863.2838822146801,0.765012911138,1588.4760771047618,1594.871552,37.620584507108944,54.026243093484545,863.3543857963565,1258.6333771252894,1252.5678988415593,105.0,889.9881959930173,1046.289680941256,0.8506135654442967,965.316992,713.495168,84.0930712511847,71.95752030670761,470.0866890052746,613.0944021639651,611.2990999139774,172.0,433.52320927765203,589.9083012373077,0.7348993197219897,927.5671654972069,713.495168,84.0930712511847,73.67580601309739,442.76821189976926,603.7898346277692,602.0914069745879,179.0,426.9438864767997,548.5862173240234,0.778262145482639,917.3178045524863,713.495168,84.0930712511847,74.23652659322609,446.89851019962276,548.6475789399765,547.1632187999755,181.0,387.95242355003904,569.3707187484356,0.6813705214817125,deceptive
1783334487960507487,1783334497960507487,1311.324143874016,1343.049728,84.0930712511847,64.12836136716992,679.1782331130233,907.5439998609265,903.9906945244879,127.0,641.7305165268243,846.5560328461219,0.7580484830629887,1536.819168897196,1594.871552,57.183288450805605,57.11616716717095,855.4012598501439,1186.9824668171848,1181.4515039972225,107.0,839.3233514359674,1054.1303461022146,0.7962234979189013,989.5498460952381,713.495168,44.67444410219188,71.34784327699315,532.6622248670622,704.9341324752648,702.8304923129257,168.0,498.4637053631158,665.7514992987201,0.7487233688368415,972.1893224795322,713.495168,44.67444410219188,71.97098658607997,494.5441594882886,671.8947687704648,669.9259286379516,171.0,475.10134724136304,613.4225348751678,0.7745091192941692,945.8907370057143,713.495168,44.67444410219188,73.04427735258915,481.650749947353,605.3123081270096,603.5708323735205,175.0,428.0204378122894,610.2246653956092,0.7014145151520602,deceptive
1783334488960507487,1783334498960507487,1282.5344059534884,1259.1091200000003,33.246097936514886,65.42128940226549,669.2237640803569,849.7761853400606,846.4508099662855,129.0,600.8825031447933,845.6896602932934,0.7105236487536118,1558.8404419622643,1594.871552,39.71061697972611,56.70727927480891,897.5205933820631,1205.3074139150458,1199.555189274192,106.0,852.2810457937497,1117.0921808786136,0.7629460311175171,999.2450820598804,713.495168,79.42123395945222,70.8666078038478,540.5127119843872,707.5849044300112,705.4558873388805,167.0,500.33808418769604,677.5978780878281,0.7383997210847874,989.0501996190478,713.495168,64.98100960318817,70.88339333448906,497.3769689312665,679.9775335116909,677.9654472689888,168.0,480.8167250006195,615.7721469231516,0.7808354557820321,971.6984417309943,713.495168,64.98100960318817,72.32919489988258,520.7586568577584,630.6596505185021,628.8299495097968,171.0,445.943715502371,665.5420788248955,0.6700458613972912,deceptive
1783334489960507487,1783334499960507487,1270.0859687384616,1217.1388160000001,119.13185093917832,66.27275190132174,668.6628699477534,831.9955218743221,828.7647145464974,130.0,588.3096754341738,849.2148904657765,0.6927689116608615,1515.5095226181816,1510.930944,75.24116901421789,59.3389403742917,903.0368279933043,1207.0006218423014,1201.6516154727115,110.0,853.4783246010709,1125.4947357240246,0.7583139196577698,1032.3130673291926,713.495168,84.0930712511847,69.9500947429041,589.4620288530451,767.5839507657303,765.1814911927235,161.0,542.7638167164089,740.0234364875308,0.733441388414128,1014.7088741463415,713.495168,43.32067306879212,69.65784530487566,515.9793032864995,708.5422576302341,706.3711498507681,164.0,501.01503512756426,637.9351457069173,0.7853698585180986,977.6611990588236,713.495168,43.32067306879212,72.41119622322172,546.9523620251422,676.7390825125133,674.7456252307302,170.0,478.5267943385606,695.5715823693453,0.6879619674923193,deceptive
1783334490960507487,1783334500960507487,1296.1991560930235,1301.079424,34.867858811466824,65.94481460157911,696.7423612990899,894.3110695434249,890.8113602068757,129.0,632.3734217643498,878.0385890040865,0.7202114231466957,1491.8194662857145,1510.930944,35.739555281753496,60.71447082518294,893.3653730971338,1248.020833982559,1242.3863996357884,112.0,882.483994771158,1098.5510362219552,0.8033163373147625,1025.053866404908,713.495168,42.04653562559235,69.97596370595346,560.9992975916787,737.2084700832376,734.9428100149756,163.0,521.2851083440173,702.546327088895,0.7419939272959258,1034.0433648000003,713.495168,84.0930712511847,68.74210308148864,523.3732036873791,732.5171776871396,730.2238193871408,160.0,517.9678636782076,643.1902259629718,0.8053105329806842,1019.0181263105591,713.495168,89.34888820438375,71.18853893433713,605.5263915101324,793.8208244379393,791.3378112705939,161.0,561.3160880071628,758.8060004393296,0.7397359637142759,deceptive
1783334491960507487,1783334501960507487,1321.7314783492063,1364.0348800000002,16.81861425023694,64.33536242207042,711.1458224047662,934.5619414892376,930.870687619908,126.0,660.8350862659054,890.5645713969702,0.7420406195019601,1402.3019218823529,1468.9606400000002,68.07534339381618,62.62353121170249,803.5787130028124,1122.6140374698164,1117.8527359182497,119.0,793.807998550116,988.1355811331975,0.8033391507264358,1042.1751112,713.495168,84.0930712511847,68.99806503338576,565.2943396777899,752.8192465705322,750.4481564397603,160.0,532.3235942577709,705.2880095689569,0.7547605900504465,1029.308751802469,713.495168,84.0930712511847,68.68588845803767,515.4362899920201,720.9552734031437,718.712794336623,162.0,509.7923627555643,633.5653174847288,0.8046405772011851,1089.8563254379087,713.495168,84.0930712511847,67.54266117352498,633.5258683998786,862.681263929223,859.8388138165657,153.0,610.0077717269353,785.2740356588968,0.7768087877948219,deceptive
1783334492960507487,1783334502960507487,1298.45628,1364.0348800000002,36.655954135131786,66.69769050917766,705.9171831787557,986.4397206434727,982.5984422911356,128.0,697.5182156987631,867.9702232209726,0.8036199826191331,1395.9534725378153,1510.930944,29.175147168778363,62.399219534012424,727.4081091573246,938.4616873977958,934.4834630104966,119.0,663.5926230427514,915.460283058358,0.7248731980221246,1069.9737115897437,713.495168,43.32067306879212,67.91184942239376,591.5646602959878,798.7400059823783,796.1592560826265,156.0,564.7944746351233,735.1197829830403,0.7683026463296165,1058.0235495696204,713.495168,84.0930712511847,67.74979390058252,554.0933441750952,764.1444850958899,761.7070164133992,158.0,540.3317472176064,684.1488650817638,0.7897868063451812,1138.6600968767123,713.495168,43.32067306879212,65.80938138690708,673.805184479902,907.3297524219445,904.1956624347744,146.0,641.5790207098682,837.9827166215737,0.7656232139207714,deceptive
1783334493960507487,1783334503960507487,1294.8977513178297,1385.0200320000001,40.8452060362897,66.34036918701133,703.5720294640497,1005.5201475091365,1001.6083018194386,129.0,711.010114923408,858.6381714823913,0.8280672098421717,1320.732185396826,1426.990336,57.183288450805605,67.48914649196895,740.4053929070541,962.9627245595668,959.1146581908548,126.0,680.9174725659433,929.8257844719635,0.7323065072374045,1018.0357884878049,713.495168,84.0930712511847,69.9803658875856,555.8203664603693,743.2420239438916,740.9715623356507,164.0,525.55147519354,692.6545914127946,0.7587497169716041,1042.3945314213838,713.495168,89.34888820438375,68.20307344912594,529.5386472762974,745.3356278926046,742.9732744189402,159.0,527.031876742794,649.5699026024113,0.8113551361159349,1115.7340546577182,713.495168,84.0930712511847,66.74841189609944,657.1945881813076,892.5694495912,889.5489013360893,149.0,631.1419104858818,815.2541921902105,0.7741657958118507,deceptive
1783334494960507487,1783334504960507487,1299.1120660000001,1385.0200320000001,89.34888820438375,65.84497437645737,698.1548409830781,1009.8919911300488,1005.9507401477235,128.0,714.1014751940422,848.4514750644614,0.8416527004561906,1352.9451655284554,1426.990336,84.0930712511847,66.22655089376596,754.8934444599328,1002.380420020119,998.3171988388181,123.0,708.7899923248459,942.6221928043258,0.7519343356601621,1031.6404353580247,713.495168,84.0930712511847,69.46368727871885,584.5923227798431,804.4597187483998,801.9575051635861,162.0,568.8389223184163,722.2932284980083,0.7875456945668775,1085.2321462857144,713.495168,84.0930712511847,67.56046034642289,616.3575039858137,820.3868099352703,817.7014121903051,154.0,580.1010765012289,769.1128109453789,0.7542470600485508,1176.9419051267605,713.495168,84.0930712511847,66.4459630482069,849.0378231466099,1190.6131645408736,1186.3836195053736,142.0,841.8906424168264,1042.756214736963,0.8073705344726184,deceptive
1783334495960507487,1783334505960507487,1290.993536992248,1343.049728,30.4166427929817,65.80164010631755,690.8143267818994,981.5884253928339,977.7960584023531,129.0,694.0878319294983,844.7306724382405,0.821667609068906,1320.399087746032,1364.0348800000002,29.78296273479458,67.22970158310528,742.5143599075099,978.8408863413498,974.925986406393,126.0,692.1450284346191,929.0440135668161,0.7450077911565387,1013.1733752195123,713.495168,84.0930712511847,70.82415236108724,608.2054830665691,806.1692627583177,803.6925464205935,164.0,570.0477524805661,759.835902817447,0.75022481876264,1058.3467104203821,713.495168,84.0930712511847,68.32702490262855,582.2817280113989,734.5364072048627,732.1783388171801,157.0,519.3956745629616,737.0333019440332,0.7047112704310369,1150.8546807172415,713.495168,84.0930712511847,67.09473337366606,818.9090753047506,1149.1950735209575,1145.2085799138997,145.0,812.6036293928421,1005.5156975312486,0.8081461397250724,deceptive
1783334496960507487,1783334506960507487,1301.4073170000001,1385.0200320000001,28.031023750394898,66.00713682472559,676.2484188127883,962.407896684881,958.6196038825746,128.0,680.5251500133616,826.4784377061742,0.8234033931993502,1280.7399689846152,1322.064576,109.96786240539538,69.19695644556035,732.8072175893012,978.0838294884132,974.3141680999648,130.0,691.6097084001639,913.7017248124615,0.7569315999070897,952.5540925380119,713.495168,68.07534339381618,72.72558076447746,513.3048333608812,675.03129757576,673.0430283826107,171.0,477.3192080289742,642.6872417642818,0.7426928325489311,1029.0496758518518,713.495168,51.05650754536213,69.32606398317186,557.3336595261549,681.8564980819096,679.8156084035627,162.0,482.14535358983045,710.6402360459902,0.6784661621082594,1108.0160256000001,713.495168,68.07534339381618,67.9354681240041,713.503452654626,975.0568112840031,971.7861993315198,150.0,689.4692833010503,883.4536816337982,0.780424936399601,deceptive
1783334497960507487,1783334507960507487,1328.9477058560005,1426.990336,102.11301509072426,63.80275716028731,667.641196197565,978.7828745853852,974.8282388916645,125.0,692.104007928588,807.456224711175,0.8571412130436568,1318.4005018412702,1343.049728,31.077874158046516,65.8409624112805,719.2543430727101,945.794162635697,942.1412473623603,126.0,668.7774660063537,900.5675824384151,0.7426177435740507,954.0449674971428,713.495168,84.0930712511847,72.87264285088928,520.6081443756685,687.779644274633,685.8004181732431,175.0,486.33365042866444,651.0034333326657,0.7470523587548358,1011.8658746181818,713.495168,44.67444410219188,69.81783739251213,535.7811972541709,675.964927962563,673.9118413523846,165.0,477.97938440660437,678.1525172874958,0.7048257909864396,1070.2427519999999,713.495168,84.0930712511847,69.95306123253995,708.4440375904961,971.882885940084,968.7427068559332,156.0,687.2249791673853,876.1545655871697,0.7843650038013897,deceptive
1783334498960507487,1783334508960507487,1343.049728,1426.990336,34.867858811466824,62.863874463031735,694.0928213772573,1069.607858985657,1065.2616974467219,124.0,756.3269702991827,823.1126571581268,0.9188620339170486,1344.7558379186992,1426.990336,33.246097936514886,63.481736794747945,689.1062550238677,901.9974425628288,898.3564283418477,123.0,637.8085082490996,863.9068322617715,0.7382839033455381,931.7889905287356,713.495168,84.0930712511847,73.75113697612267,496.7834206153637,665.9795783415918,664.0535876782803,174.0,470.9186759770971,618.6318245164822,0.7612260755339632,969.2440379883043,713.495168,64.98100960318817,71.89386005243537,491.29730067903876,649.7679946183073,647.9022620555425,171.0,459.45535519258925,614.1632222800755,0.7480997534936483,1025.0138840248449,713.495168,84.0930712511847,71.17646048124197,642.8557320340257,891.9584316041849,889.167659897571,161.0,630.7098555238365,792.2307261717111,0.7961189015876847,deceptive
1783334499960507487,1783334509960507487,1354.058332327869,1426.990336,95.30548075134264,61.81369961361891,694.2458982195344,1069.229571355598,1064.8066768298768,122.0,756.0594805507288,823.4936340518834,0.9181121131813073,1355.7784267540985,1426.990336,44.67444410219188,64.09832667133176,715.0724495402113,957.5302034359975,953.5957911671383,122.0,677.0761000405282,890.7531608475102,0.7601164158612941,959.5279845517241,713.495168,52.94748930630148,73.40237344459234,610.2188773093733,830.8181536105833,828.4170173897223,174.0,587.4771503509302,756.4188359349596,0.776655898084278,943.4924339199999,713.495168,89.34888820438375,72.98225351655434,460.59409917850087,608.5338050050763,606.7826728998306,175.0,430.29838010034166,575.9474806244232,0.7471139202377036,1019.3153709268294,713.495168,44.67444410219188,71.24435685017257,631.7867058780555,870.8494384429201,868.1826025943859,164.0,615.7835433154856,780.2013825541467,0.7892623072514867,deceptive
1783334500960507487,1783334510960507487,1333.2340923870966,1426.990336,42.04653562559235,62.769824517132534,672.6778202497455,1039.0177385128711,1034.7855257001006,124.0,734.6964886755623,796.9325156346663,0.9219055243221691,1366.9832071404962,1468.9606400000002,32.490504801594085,63.473693531515146,711.4725099002009,971.1722525345997,967.1780104925757,121.0,686.7224854674297,881.2447892975599,0.7792641656523338,949.4881916342857,713.495168,43.32067306879212,73.49967424892976,591.9537730980541,804.0070450004371,801.7026402063765,175.0,568.5188336415667,734.3103614054899,0.7742214512041017,923.1135196444446,713.495168,84.0930712511847,73.89437545098215,440.19937768076363,557.669209910491,556.1092929810044,180.0,394.3316799866524,556.5988207861344,0.708466610528751,960.4649337341041,713.495168,84.0930712511847,73.04707224812731,527.4584383109071,708.2784944785558,706.216586132781,173.0,500.8285264143854,656.5136722533352,0.7628607713460168,deceptive
1783334501960507487,1783334511960507487,1370.4518273057854,1468.9606400000002,57.183288450805605,61.8954511299516,686.3932967214179,1032.5972614707202,1028.3009988308424,121.0,730.1565258206047,822.014135808494,0.8882530044358148,1410.8479113846154,1594.871552,75.24116901421789,63.260244048597,730.4655489322728,1005.0075886877559,1000.6851864340938,117.0,710.6476811050528,902.5795106381812,0.7873518872620758,949.728021942857,713.495168,43.32067306879212,73.68857361021546,596.653124838332,814.5034322966181,812.1595684869501,175.0,575.9409002766567,739.0101098448853,0.7793410301214202,913.2000210989011,713.495168,43.32067306879212,74.77110342376231,443.967722364694,565.2156288567737,563.6521448474375,182.0,399.66780399724354,560.6670136787061,0.7128434422687042,930.9345395706215,713.495168,43.32067306879212,73.94883638933909,466.2274522907605,610.4458281184105,608.7091833213462,177.0,431.6503846095657,584.4442208391437,0.7385655794316917,deceptive
1783334502960507487,1783334512960507487,1366.6363451239672,1468.9606400000002,109.96786240539538,60.58472411137795,667.2242759817022,1006.4271816978256,1002.2250231958361,121.0,711.6514849489981,798.2183604149659,0.8915498818882533,1440.128865947826,1594.871552,42.04653562559235,60.58484876485433,737.8410943560078,1031.815400154791,1027.2989914491668,115.0,729.6036663821636,907.0050749812785,0.8044096846946787,930.9345395706215,713.495168,84.0930712511847,74.08109475324514,539.1574370373094,738.6172664999581,736.5214920319743,177.0,522.2812778435916,667.0776695650312,0.7829392313254103,874.6431801497328,713.495168,84.0930712511847,75.94296478110869,355.3736317586551,448.69354918035333,447.4857581627028,187.0,317.2742513000875,449.72142602911066,0.705490628057268,878.2342222032086,713.495168,89.34888820438375,76.29929666109257,400.73708666628704,543.2178196595485,541.7556356826329,187.0,384.11300394263776,497.40227719688625,0.7722381290799654,deceptive
1783334503960507487,1783334513960507487,1383.2712693333333,1426.990336,46.11555520226258,60.40033004916833,688.4049337652082,1019.0155070072818,1014.7470229307337,120.0,720.5527751390969,829.5809513147191,0.8685743977090669,1496.1846209729727,1678.8121600000002,26.47374465315074,58.276247155785676,733.8891979950969,1033.6749047887238,1028.9691214960033,111.0,730.9185347184655,900.0365312976351,0.8120987418862406,937.8110300564973,713.495168,84.0930712511847,74.17890329641494,559.9177457080924,758.7891372863486,756.6304155940569,177.0,536.5449444658673,695.0363481154952,0.7719667409059142,892.4330769892474,713.495168,84.0930712511847,76.56596444052806,540.4685398988589,743.9216115612545,741.9082882172654,186.0,526.0320162061878,667.7257252823463,0.7877965402392673,882.9391080851065,713.495168,84.0930712511847,76.33026635902287,431.726222752134,575.2209076675596,573.6808221524368,188.0,406.7426044920123,538.5678134359476,0.7552300645244306,deceptive
1783334504960507487,1783334514960507487,1357.1545022950818,1426.990336,42.04653562559235,61.070380867663964,671.4080189083357,1011.0881400624555,1006.9186876628735,122.0,714.9472802154561,803.742899791403,0.8895223589545957,1565.5330870679616,1678.8121600000002,31.077874158046516,57.16580778824407,867.767839513038,1249.4706355508713,1243.3331446970938,103.0,883.5091592914864,1056.2896521836597,0.8364269757495159,938.0481504180791,713.495168,84.0930712511847,74.44936804550096,566.5662694631949,773.6209798923094,771.4200622607286,177.0,547.0326409500337,701.6924684322178,0.7795902985424107,883.1623543829786,713.495168,84.0930712511847,76.59701218750486,515.7274886293369,702.0817204080228,700.201980166283,188.0,496.4467454476306,639.3121299671025,0.7765326546724158,842.8148356548222,713.495168,84.0930712511847,77.47276664205802,323.08596099462,405.850218822867,404.81356267561904,197.0,286.97944187569345,409.37815813009854,0.7010130759943785,deceptive
1783334505960507487,1783334515960507487,1339.3265558709677,1426.990336,102.11301509072426,61.59912564596539,656.906732560329,990.0294110943643,986.0498252588343,124.0,700.0565101589491,786.1382523819916,0.8905005042532714,1629.4353317647062,1720.7824640000003,27.491965601348845,56.41184995573274,952.0532225124696,1303.0868467857179,1296.6348569367235,102.0,921.4215458371767,1178.2622137819194,0.7820173939717968,938.0481504180793,713.495168,84.0930712511847,74.47912191423106,566.9018106716105,773.9201800403308,771.7184111975002,177.0,547.2442074036317,702.1518458404041,0.7793815691656214,884.2785858723404,713.495168,84.0930712511847,76.86520015400349,525.2331032175762,716.4679527133723,714.5505762547253,188.0,506.61934786646816,650.6981201869322,0.7785781642045113,831.22187072,713.495168,84.0930712511847,78.00359912189701,295.4505169180183,377.8504794447723,376.8999106949845,200.0,267.1806362899867,372.67850714803416,0.7169198952057035,deceptive
1783334506960507487,1783334516960507487,1343.3881981935483,1426.990336,40.8452060362897,62.32916399133981,701.675201850168,1003.0460724124421,998.9640577565173,124.0,709.2606796453706,856.2539471076566,0.828329822059431,1720.7824640000001,1783.73792,119.13185093917832,52.629566558256556,976.8974105165703,1349.0675677070506,1342.0138769617656,96.0,953.9348254044972,1205.6787614402963,0.7912014841042175,945.6509066971428,713.495168,89.34888820438375,74.51280618660732,578.5520140451978,794.4166404477515,792.1305813811612,175.0,561.7373935480405,715.3114120831824,0.7853046715864739,874.7494938947369,713.495168,84.0930712511847,77.59240138587302,522.6175933062882,729.1091479277205,727.1777295735181,190.0,515.5580227248367,642.9294364613756,0.8018889686594856,834.1334287437187,713.495168,84.0930712511847,78.26247959534592,321.5214519548434,419.19141481184676,418.1315106762252,199.0,296.4130920286398,403.5117440314618,0.7345835565210427,deceptive
1783334507960507487,1783334517960507487,1335.6033837419357,1426.990336,68.07534339381618,61.97191472678532,669.8817549179528,944.1994751287531,940.3596236344439,124.0,667.6498516563203,821.3433928239509,0.8128754154347063,1643.4254330980395,1699.7973120000001,28.031023750394898,56.33046020773761,975.404460834527,1337.6279655698022,1330.990156227255,102.0,945.8458051591728,1206.4475043959378,0.7839925083460245,956.1510635402299,713.495168,84.0930712511847,74.1298151451586,586.4542093159158,803.7933100799534,801.4668412060589,174.0,568.3677002299163,725.4902879545598,0.7834256497524821,871.0486128586388,713.495168,84.0930712511847,77.90474710286263,522.8048653585187,733.1260605515657,731.1942362173252,191.0,518.3984088805915,642.091425982401,0.8073591826700397,848.8279849795917,713.495168,84.0930712511847,78.36650528858216,400.40640635457504,539.5223772793094,538.1372084282384,196.0,381.4999315760865,497.8749658330802,0.7662565056624878,deceptive
1783334508960507487,1783334518960507487,1302.0631030000002,1385.0200320000001,39.71061697972611,63.63402697785853,671.5964254160939,937.8698132409471,934.173856243307,128.0,663.1741048128346,825.9440481147604,0.8029286079687206,1717.7536791752577,1720.7824640000003,28.591644225402803,54.74238994338098,1040.6048492364382,1369.079546457758,1361.9347480693023,97.0,968.0854312840836,1302.7364289742325,0.7431168805545331,913.2000210989012,713.495168,84.0930712511847,75.45075432954101,483.485625937951,651.399635031615,649.6096566336627,182.0,460.60909919329714,601.1957500243946,0.7661549489905861,847.2888274517768,713.495168,84.0930712511847,79.4848442744002,514.9554061420391,728.0148792091636,726.1553234794437,197.0,514.7842578935049,630.7588481680948,0.816134818225042,843.009590949495,713.495168,84.0930712511847,78.79280891666508,399.5276588728378,539.1849934547378,537.814762539606,198.0,381.2613651858693,496.5527022553849,0.7678165146502024,deceptive
1783334509960507487,1783334519960507487,1290.0174834108527,1301.079424,142.95822112701399,65.22039607589385,679.0147837167283,929.5564194799596,925.9438231248131,129.0,657.2956477097663,840.2995708452135,0.7822158555295071,1718.6190462680413,1720.7824640000003,21.66033653439606,53.89625052953315,1035.3922287518224,1307.1392930962227,1300.3670312693987,97.0,924.2870581037292,1310.3132647692723,0.7053939565104557,878.2838352842107,713.495168,42.04653562559235,76.97929720188269,412.00414007415174,539.0789576347202,537.66418465722,190.0,381.1863865384862,516.5687681571045,0.7379199247728342,826.1085579405942,713.495168,42.04653562559235,80.3433895579234,486.7219682457359,672.7275621235489,671.0614124729428,202.0,475.6902210686558,600.5463808365121,0.792095725239503,826.1085579405942,713.495168,84.0930712511847,79.7342392313784,384.3647395426606,506.7295043021935,505.46741142263096,202.0,358.3118687193788,480.91455413078097,0.7450634746685971,deceptive
1783334510960507487,1783334520960507487,1325.3955525079366,1426.990336,35.739555281753496,62.45246794019434,675.2155203726976,929.6932854224581,925.9680188335336,126.0,657.3924265458205,834.1160570714633,0.7881306455769357,1738.7072813333336,1720.7824640000003,43.32067306879212,52.737390785335094,1037.9440548143693,1329.0083058250955,1321.9962015562185,96.0,939.7507853021701,1308.8506227262783,0.7179969730577127,860.6075737731959,713.495168,84.0930712511847,78.10805347834258,403.81564391773554,520.6968370825622,519.346129652817,194.0,368.1882644434667,508.284221187757,0.7243747672967017,826.5241055049505,713.495168,84.0930712511847,80.37640764933957,490.839065392581,679.8411975719896,678.1479416486534,202.0,480.72032093313726,605.2271992829599,0.7942807618406252,830.6361657313435,713.495168,84.0930712511847,79.56298051782804,391.5991739542928,523.549960828484,522.2394457297243,201.0,370.20572759177236,488.03041474122506,0.7585710160873304,deceptive
1783334511960507487,1783334521960507487,1329.283468288,1426.990336,25.992403841275273,62.55957656030024,684.36500731676,948.487195691968,944.6928058844618,125.0,670.6817279424025,843.6847375539246,0.794943535291268,1703.2948373333336,1720.7824640000003,129.96201920637634,53.56959036261375,1040.832660759408,1308.1118179884966,1301.3287991913705,96.0,924.9747370499288,1318.6645226579526,0.7014481099298197,842.1617060202021,713.495168,84.0930712511847,79.24045206060323,395.4628801504906,520.2334849991154,518.9114155556298,198.0,367.86062504318454,495.09702021448425,0.7430071481420373,837.9297376482414,713.495168,84.0930712511847,80.19319538751647,533.6345039390982,725.4941035715448,723.6597286927328,199.0,513.0018003462948,661.7749950016131,0.7751906678568965,826.6051372800002,713.495168,51.05650754536213,79.94831028195908,395.24663794967955,515.5360707413959,514.2443557823212,200.0,364.5390515675087,495.9792834002049,0.7349884637688843,deceptive
1783334512960507487,1783334522960507487,1283.373202,1301.079424,26.47374465315074,64.71384189104616,668.3076139448435,905.1456909084293,901.6099691749774,128.0,640.034656003133,829.7276380058553,0.771379217331334,1624.6174956116504,1594.871552,178.6977764087675,56.643994312665505,1028.656660084751,1254.5238404249283,1248.4963810203826,103.0,887.0823147246571,1312.5591537621463,0.6758417799167691,827.65439488,713.495168,84.0930712511847,80.24140153102888,392.48146494994336,522.1136065943205,520.8207798918771,200.0,369.1900717726093,489.8293030340009,0.7537116899414702,849.9524640820512,713.495168,68.07534339381618,80.27314562775477,589.5026039619856,821.3356904843216,819.2165680342364,195.0,580.7720363719991,725.5195111367331,0.8004912720569763,859.4024028481675,713.495168,23.05777760113129,78.10877527243724,427.2521394996729,536.1830098297761,534.8625181723263,191.0,379.13864220764793,541.493976334517,0.7001714862538538,deceptive
1783334513960507487,1783334523960507487,1298.784173,1301.079424,21.337047929405074,63.59584381009013,695.895289506839,947.9618058762517,944.2528899336689,128.0,670.3102212409432,862.4862964508907,0.7771836190316911,1582.480319390476,1594.871552,52.94748930630148,54.468410355138,910.135051535383,1025.8728322621546,1020.9576314433705,105.0,725.401636327619,1180.5032219664777,0.6144850965499677,807.2629691317072,713.495168,84.0930712511847,81.07747935009948,357.18010698709656,487.3185494834545,486.17008227712245,205.0,344.5862509377428,442.4764575510916,0.778767423796676,831.0120191999999,713.495168,84.0930712511847,80.26613629891779,453.79297797441455,635.7139887097276,634.1147057013842,200.0,449.5176723117967,557.5150803856942,0.8062879160162199,853.0356117113402,713.495168,84.0930712511847,78.62151441569915,428.25506511028925,537.7667630585378,536.419780112095,194.0,380.2585248554314,542.6845572914543,0.7006989967676741,deceptive
1783334514960507487,1783334524960507487,1309.010820031496,1301.079424,84.0930712511847,63.84732570783668,728.5938758674804,993.1126320384824,989.1647557756442,127.0,702.2366765964315,902.8454446496334,0.777803865277238,1516.3715389629635,1552.9012480000001,32.490504801594085,55.44305036986448,784.9427945073076,906.0690246314481,901.8254594932108,108.0,640.6875515399779,1013.4249414479281,0.6322002995353532,806.604046291262,713.495168,84.0930712511847,81.27992880945123,388.36757442725514,539.5345868296985,538.2170400844547,206.0,381.5085650319619,478.4185961442613,0.7974367386775296,830.8021676800001,713.495168,84.0930712511847,80.29299936334525,453.8572952160468,623.7052432355114,622.1361709554665,200.0,441.0262069534351,560.9998495826756,0.7861431821800164,856.4970800824742,713.495168,84.0930712511847,78.38105135457936,429.1097685725264,549.651434717381,548.2256179584342,194.0,388.66225677757507,541.0556459801667,0.7183406358757822,deceptive
1783334515960507487,1783334525960507487,1285.4625666976744,1217.1388160000001,49.295938319659996,64.4431305587955,721.5137654943035,983.863139866568,980.0523759680899,129.0,695.6962979591389,893.961720712085,0.7782171001740232,1456.5943897142856,1510.930944,47.65274037567132,57.15159213442738,776.1391492861975,993.1407093239513,988.6986274481097,112.0,702.2565302353838,978.8778478340821,0.7174097685316247,819.2438751372549,713.495168,43.32067306879212,80.79940733510985,435.3210722799886,608.8737926452729,607.3722872189471,204.0,430.5387876662443,535.0953635562902,0.8046019774958358,816.9519673600001,713.495168,95.30548075134264,80.96118889199528,440.7685800457423,602.9037220383752,601.3871286414001,200.0,426.31731025594445,545.6011893307677,0.7813716659578099,833.6244564897959,713.495168,84.0930712511847,79.33010912615157,393.54745476309813,481.91954645651293,480.6822670171687,196.0,340.7685792857457,501.69471393150314,0.6792349407378272,deceptive
1783334516960507487,1783334526960507487,1231.859743522388,1175.1685120000002,119.13185093917832,66.03099452872232,665.2882721676153,926.9381792754862,923.447089967132,134.0,655.4442723064079,818.7877460721452,0.8005057176914019,1485.8237085714286,1468.9606400000002,62.15574831609303,55.7898408227772,803.619974980786,985.760609348443,981.3521581585521,112.0,697.0380114968673,1024.0503569846967,0.6806677100814523,832.8679924422111,713.495168,44.67444410219188,79.82479719732068,419.78963037007395,534.5022620763204,533.1528650955642,199.0,377.9501740737154,530.1164970940922,0.7129568239160678,832.867992442211,713.495168,84.0930712511847,79.99107105186687,455.876837888117,634.6039379623339,633.0002615157955,199.0,448.73274790085344,561.2190687480349,0.7995678922704542,851.210228,713.495168,44.67444410219188,78.91056807214161,480.79247453089,637.310477915331,635.6484822996958,192.0,450.64656065517,600.6510183258712,0.7502635422332385,deceptive
1783334517960507487,1783334527960507487,1250.2063282424242,1196.1536640000002,26.973249269247923,64.8280391079678,660.8682422863735,912.2992697281906,908.8964316781513,132.0,645.0930000963388,815.7335214018817,0.7908134006650994,1445.7665246315787,1426.990336,34.867858811466824,57.15502314436418,789.5104347994813,985.119443119259,981.0388490508287,114.0,696.5846385083435,1002.0171525536039,0.6951823496565135,807.928352,713.495168,84.0930712511847,81.29553035309449,401.8989459444719,526.1673248328973,524.8789082043729,204.0,372.05648342812657,503.817935441071,0.7384740741760356,815.4230491428572,713.495168,84.0930712511847,80.89744944975395,437.7220269743587,612.0681752492789,610.561492336864,203.0,432.79755726724125,538.0931917510543,0.8043171032490456,836.636466030457,713.495168,84.0930712511847,79.80764231235365,477.21996273257764,631.5673518570685,629.9541503671132,197.0,446.5855572741634,596.4549066593619,0.7487331435923796,deceptive
1783334518960507487,1783334528960507487,1241.4374130526317,1217.1388160000001,44.67444410219188,64.58919932119713,650.2670432971111,907.7044734989323,904.2598859115977,133.0,641.8439885244599,799.8203563264943,0.8024851873893204,1364.5551730247932,1385.0200320000001,43.32067306879212,59.010513269858194,679.2863924743175,971.6776462545645,967.6483946297852,121.0,687.0798527939859,828.7464292193616,0.8290592014268844,827.0864385273632,713.495168,84.0930712511847,80.46595839968936,426.7544307367346,556.6718071586826,555.2783836787517,201.0,393.62640973727457,535.5070616579584,0.7350536303267154,831.22187072,713.495168,44.67444410219188,80.19563071219791,458.0584019367823,647.7326909973206,646.1109172958879,200.0,458.01617820041594,561.0219152788062,0.8163962328865524,870.3893934240837,713.495168,44.67444410219188,78.39106934272988,528.9705414835701,702.1237472815038,700.281454590726,191.0,496.4764629348611,660.5870331687471,0.7515685867361493,truth
1783334519960507487,1783334529960507487,1220.869509688889,1175.1685120000002,84.0930712511847,65.64372347580345,644.1984413798916,917.5026364026346,914.0746398158491,135.0,648.7723359568382,787.1025929325332,0.824253841598573,1329.8493904516129,1385.0200320000001,79.42123395945222,60.55797616755296,665.4915487792822,965.7850555137663,961.8540535458764,124.0,682.9131619224105,807.8197878424762,0.8453781056123097,853.2519534845361,713.495168,43.32067306879212,78.95678485815195,444.05775192276855,573.5728831479335,572.0955939550084,194.0,405.577275178623,558.6842677351385,0.7259507714845828,854.1935446217617,713.495168,84.0930712511847,78.86023653603398,473.2338034052004,670.5903195098585,668.8417107461001,193.0,474.17896232347454,579.2043000665828,0.8186730697078128,902.361536,713.495168,51.05650754536213,77.05677219511323,572.1967987374809,764.5602715485755,762.4726210941673,184.0,540.6257526378259,713.2182350187315,0.7580088759559369,truth
1783334520960507487,1783334530960507487,1246.80203837594,1217.1388160000001,33.246097936514886,65.28070059966973,692.8429611700249,982.8551945386292,979.1253868481747,133.0,694.9835729826881,847.6801603953023,0.8198653282844244,1326.5973688320005,1385.0200320000001,158.84246791890445,62.11721173841327,680.6626510277047,968.4832971693779,964.6103607881186,125.0,684.8211068943734,831.9334797831546,0.8231681060279887,881.376384,713.495168,38.63735706135513,77.34972645907274,460.1734333126744,592.938617668895,591.3597688943383,187.0,419.27091738105327,579.3316203805673,0.7237148856222124,884.9674260534761,713.495168,54.98393120269769,77.59429380959374,515.2127309794619,719.0488946580961,717.1162380689566,187.0,508.44434941743117,633.7432351507772,0.8022876162085809,907.0631274316939,713.495168,84.0930712511847,76.82454485341484,562.2087232290039,756.7268774114509,754.6450938869684,183.0,535.0867065237582,699.2842091741757,0.7651920342312211,truth
1783334521960507487,1783334531960507487,1222.7348565333334,1175.1685120000002,36.655954135131786,67.16909762351074,689.0665718020941,958.0993076272207,954.5189001316087,135.0,677.4785174733439,848.6088085397424,0.7983401900330568,1310.663194204725,1385.0200320000001,57.183288450805605,62.305222203530825,645.4359545851177,924.547239329591,920.890611478339,127.0,653.7536224572557,787.0694019617407,0.830617504412952,910.2021422417582,713.495168,84.0930712511847,76.18450163905435,545.3119636307198,718.3341469466475,716.3470500640607,182.0,507.93894646382836,682.4436157589805,0.7442943779302902,897.4305986448088,713.495168,89.34888820438375,76.40036556142549,475.11715639070235,617.5051089294496,615.8063727987361,183.0,436.64204994135156,596.778421782391,0.731665278106467,914.0714826961328,713.495168,84.0930712511847,76.64462978117459,570.9192221989243,771.381190219825,769.24569318941,181.0,545.4488704841884,709.3238198426801,0.7689701871356339,truth
1783334522960507487,1783334532960507487,1187.1600274285718,1133.198208,39.71061697972611,68.08076325877173,643.3095641838318,903.7467771797635,900.5216601072174,140.0,639.0454746192986,789.6232211789878,0.80930430802825,1366.4831477333335,1385.0200320000001,129.96201920637634,62.09751940906014,803.4883067261236,1156.9949201641493,1152.131114571534,120.0,818.1189538464581,978.0222935955065,0.8365033795280931,928.7095601777777,713.495168,84.0930712511847,75.28504925436654,557.2412151162075,708.0792231515109,706.0985780881247,180.0,500.687620307736,704.0536180460002,0.7111498435265806,893.9450311871659,713.495168,42.04653562559235,76.47298735162855,479.6739678694535,629.6335517513907,627.9504240419099,187.0,445.21815410597935,600.8865354877602,0.7409354808467801,923.5785681325968,713.495168,42.04653562559235,76.39556822539585,594.2993932851236,842.012834104466,839.6800081215232,181.0,595.3929848413715,727.4181290832483,0.8185017131642488,truth
1783334523960507487,1783334533960507487,1162.5480709370631,1133.198208,39.71061697972611,68.760618155903,601.2335921950028,872.0999536152134,869.030991517155,143.0,616.6677910737909,729.9479998558112,0.8448105771857765,1386.0692896,1385.0200320000001,34.867858811466824,62.4466664627043,833.4680132813428,1204.7763507146478,1199.7077848938145,120.0,851.9055274035097,1013.1467536916708,0.8408510655533015,956.6334808275864,713.495168,84.0930712511847,73.86411866162199,575.755722553632,743.2473381665245,741.0961112576102,174.0,525.5552329164005,724.4895807971318,0.725414480548015,925.9258686927376,713.495168,84.0930712511847,75.94247879624041,610.2730246285909,845.8782265270381,843.4988175195261,179.0,598.1262300353192,752.3222950641073,0.7950398837832545,933.8978817430169,713.495168,84.0930712511847,75.41596192011068,578.7061756026496,824.3925114009145,822.0735405303597,179.0,582.9335351709948,707.0331832013352,0.8244783258001602,truth
1783334524960507487,1783334534960507487,1185.0615122285715,1133.198208,32.490504801594085,68.66609179936951,633.5299065561977,907.7719996082575,904.5374781192551,140.0,641.8917366942708,772.4686299028691,0.8309615586266368,1391.7779623050849,1385.0200320000001,25.528253772681065,62.47075214980021,845.232472162659,1210.3585174250989,1205.2366587026204,118.0,855.8527153381834,1030.8219675678868,0.8302623947348305,944.4504001807911,713.495168,19.855308489863056,73.41751121062083,496.8436292470394,691.3175596008347,689.4755513857823,177.0,488.83533434708545,611.7411150099572,0.7990885725232458,956.6334808275864,713.495168,25.992403841275273,74.51274780921521,632.2783686878638,876.2935298662335,873.8058515790882,174.0,619.6330972783101,779.4737220713836,0.7949377634331136,944.4504001807911,713.495168,29.175147168778363,74.1722105996853,548.8534436209386,771.8636524070184,769.705562427327,177.0,545.7900227684189,673.4514315615863,0.8104370964107261,truth
1783334525960507487,1783334535960507487,1213.067070089552,1154.18336,46.11555520226258,68.38085104756873,678.546373187475,955.3872226407948,951.7900723977651,134.0,675.5607837882878,832.261482249076,0.8117169882266744,1347.7883107096775,1385.0200320000001,57.183288450805605,62.794824427357376,742.3705639447717,1008.4191720973454,1004.3185551859332,124.0,713.060034868557,920.8695899854565,0.7743333503713794,924.7456981333335,713.495168,44.67444410219188,73.5618259525064,436.5944067983293,606.3966273370028,604.7106375788292,180.0,428.78716727864645,537.8662795563105,0.7972003146067381,949.8165956363638,713.495168,84.0930712511847,74.35752659390162,612.5528069584827,848.2361148241649,845.8091109518639,176.0,599.793508839498,755.3580316660663,0.7940519378824302,933.8978817430169,713.495168,84.0930712511847,73.87213285867054,476.77080525452925,639.7705978051916,637.9709582407486,179.0,452.38612811182236,593.5437616824066,0.7621782205738776,truth
1783334526960507487,1783334536960507487,1292.294941767442,1301.079424,37.620584507108944,65.05751755342217,714.2214558826366,987.7723095173736,983.9063128824349,129.0,698.4604983280321,881.0794755434407,0.792732684979671,1428.7994008275862,1447.975488,129.96201920637634,61.026853724397824,845.4860365995333,1156.0460299713461,1151.0088262664392,116.0,817.4479871565256,1046.7008504422106,0.7809757552133161,916.8897181538463,713.495168,44.67444410219188,74.06615671157766,431.340821612859,591.1521987234613,589.5271805594589,182.0,418.007728430697,533.6146346057394,0.7833513200767845,927.077381688889,713.495168,95.30548075134264,75.76843487157451,603.0776372852781,824.8494921510126,822.5423499996563,180.0,583.2566693582609,746.5327199873701,0.7812874824403255,932.2565849385476,713.495168,95.30548075134264,74.19729344473262,470.88367029141034,658.217850746739,656.366489478279,179.0,465.43030576105406,578.921563887376,0.8039609073045332,truth
