window_start_ns,window_end_ns,red_Mean_NN,red_Median_NN,red_Heart_Rate,red_Mean_HR,red_SDNN,red_SDSD,red_RMSSD,red_NN_Count,red_SD1,red_SD2,red_SD1_SD2,infrared_Mean_NN,infrared_Median_NN,infrared_Heart_Rate,infrared_Mean_HR,infrared_SDNN,infrared_SDSD,infrared_RMSSD,infrared_NN_Count,infrared_SD1,infrared_SD2,infrared_SD1_SD2,ppg0_Mean_NN,ppg0_Median_NN,ppg0_Heart_Rate,ppg0_Mean_HR,ppg0_SDNN,ppg0_SDSD,ppg0_RMSSD,ppg0_NN_Count,ppg0_SD1,ppg0_SD2,ppg0_SD1_SD2,ppg1_Mean_NN,ppg1_Median_NN,ppg1_Heart_Rate,ppg1_Mean_HR,ppg1_SDNN,ppg1_SDSD,ppg1_RMSSD,ppg1_NN_Count,ppg1_SD1,ppg1_SD2,ppg1_SD1_SD2,ppg2_Mean_NN,ppg2_Median_NN,ppg2_Heart_Rate,ppg2_Mean_HR,ppg2_SDNN,ppg2_SDSD,ppg2_RMSSD,ppg2_NN_Count,ppg2_SD1,ppg2_SD2,ppg2_SD1_SD2,label
1783333831066946695,1783333841066946695,1190.0147519999998,1074.1726079999999,64.74327685095332,66.39999984807262,608.8729330198915,821.7765306772312,818.8207723440476,140.0,581.0837574618251,756.7187922441956,0.7678992030031515,1354.541671868852,1347.981312,74.96589951163016,61.19107658180803,787.2568374801738,1145.3480733645858,1140.6360127591417,122.0,809.883389495046,954.7728023087888,0.8482472348778917,839.8960482461537,716.1150719999999,89.0220056700608,79.75942790135946,489.135479337951,610.7143117458301,609.1508110717585,195.0,431.8402312031516,620.6964166575625,0.6957350157241158,852.6937197525773,716.1150719999999,89.0220056700608,79.54979652753597,548.3607830405542,765.1061073807932,763.122516645601,194.0,541.0117168562017,674.5756131567847,0.8020030761628791,876.6312677052632,716.1150719999999,89.0220056700608,77.92402561004226,494.9558791749167,629.4941166406506,627.8266191892309,190.0,445.1195585936396,625.2175093024276,0.7119435268060099,truth
1783333832066946695,1783333842066946695,1198.879062561151,1095.234816,50.86971752574903,66.45927329024059,611.3514711768729,813.865920849093,810.9138381009631,139.0,575.4901116090275,762.8281643596861,0.7544164446157948,1357.994492852459,1326.9191039999998,17.37014744781674,61.91037822077713,787.4064579285662,1144.8508509830265,1140.2952547387126,122.0,809.5318001772877,955.1685674403664,0.8475276802152818,851.9933164307693,716.1150719999999,83.7854171012337,79.72388954803522,532.4764047253688,688.1917222894298,686.415740690549,195.0,486.6250335873051,669.8210817237589,0.7265000264473526,867.3596507234039,716.1150719999999,94.95680604806486,79.00618014863205,565.1370453878866,787.5669318661354,785.458444354109,188.0,556.893918160828,695.4813743711911,0.8007316064565139,882.6068114285713,716.1150719999999,37.48294975581508,77.43399075355421,492.25445331951903,627.2665287016863,625.6137377105354,189.0,443.54441605630853,621.5006589847119,0.7136668475635827,truth
1783333833066946695,1783333843066946695,1218.84076659854,1095.234816,37.48294975581508,64.90551411983752,611.7262360511056,840.7519385099887,837.6969814289862,137.0,594.5013970161483,756.109793759762,0.7862633203836513,1356.2007102439022,1347.981312,41.89270855061685,61.35003944032315,795.5273082745535,1121.7242717281663,1117.3161182259153,123.0,793.1788391605279,975.2748643203576,0.8132874825121968,874.4141931789472,716.1150719999999,83.7854171012337,79.09548322227927,578.4000887377205,769.9989045605352,767.9591687799449,190.0,544.4714469209677,721.7123714108689,0.7544161198963313,928.1491435977654,716.1150719999999,83.7854171012337,76.61176312448218,631.6121714557819,866.9670675281585,864.5283367688123,179.0,613.0382925145764,780.999293352806,0.7849409054940649,919.0143423999999,716.1150719999999,41.89270855061685,76.21918049794955,554.3817019939486,727.9021725014331,725.8771032959974,180.0,514.7045622161835,694.4190016325431,0.7412017254800628,truth
1783333834066946695,1783333844066946695,1269.8421281221374,1179.483648,30.305363632361125,65.01339611394505,703.5606355886462,1044.6710935830242,1040.6455729129532,131.0,738.6940143821229,846.8534185192923,0.8722808436833329,1350.0361615609754,1305.8568959999998,56.97408362883891,62.38627509742079,799.634002071958,1155.3089154565303,1150.5694811872174,123.0,816.9267684845884,972.1853743015764,0.8402993812486361,882.6068114285713,716.1150719999999,89.0220056700608,78.44621565278318,579.575803491615,769.3277320328891,767.2789522384588,189.0,543.996856275323,723.7747813838122,0.7516106809292733,953.215356342857,716.1150719999999,89.0220056700608,75.0117373404951,635.0125501073375,873.1287396773322,870.6161674381747,175.0,617.3952526747054,784.7887795929653,0.7867024462237096,954.820096,716.1150719999999,83.7854171012337,74.91366068638297,606.8061876578408,804.4652952470269,802.1368814047491,174.0,568.8428654984108,758.0477530772478,0.7504050545486461,truth
1783333835066946695,1783333845066946695,1209.9239194160582,1095.234816,41.89270855061685,67.24883771782258,660.6310674485883,998.7023149519815,995.024612228726,137.0,706.1891792892492,789.6298095208354,0.8943294323168729,1285.2845067906978,1305.8568959999998,33.91314501716602,64.91383971497038,680.8282639403367,954.5214637628769,950.8368118096123,129.0,674.9485998148397,836.2275071797263,0.807135132508594,877.5180975157893,716.1150719999999,89.0220056700608,78.7362018202522,576.8050826448014,763.4435798205834,761.4212417895402,190.0,539.8361323444678,720.8999111093268,0.7488364529186354,952.7339344457142,716.1150719999999,89.0220056700608,75.42307779552061,648.790741425296,890.7802020703656,888.2252466295145,175.0,629.8767214306786,802.1761092292891,0.7852100233150155,958.209416827586,716.1150719999999,89.0220056700608,74.66333233775434,606.5543344036014,804.12230312594,801.8043470071732,174.0,568.6003334436967,757.7355419745403,0.7503941704542633,truth
1783333836066946695,1783333846066946695,1247.3856917014923,1179.483648,61.928351770477086,66.13459250287131,685.1403940642901,1012.0963109797782,1008.3762333502576,134.0,715.6601647076899,826.2868651276158,0.8661158671536668,1260.5412363636362,1179.483648,59.34800378004054,66.58396608524251,723.6813514717945,1011.6266344551947,1007.7585289122524,132.0,715.3280532521928,889.7091013647663,0.8040021757166671,846.3372514111675,716.1150719999999,44.5110028350304,79.87432110016682,523.7222803662883,710.4634420407817,708.6487502321851,197.0,502.37351765217244,649.9080537160786,0.7729916790224011,926.2691029333332,716.1150719999999,44.5110028350304,76.53419295714613,614.9869578974134,852.8900983363488,850.5044196521831,180.0,603.0843721404937,757.9990348330155,0.7956268338433321,941.9685792542372,716.1150719999999,44.5110028350304,75.29133776642706,587.247882942167,775.7757243738722,773.5687136156746,177.0,548.556275384671,734.3453944896521,0.7470003618200685,truth
1783333837066946695,1783333847066946695,1255.4976317593985,1221.608064,40.69577402059923,64.52446576045058,666.0749378234744,990.7101049937248,986.9521381478653,133.0,700.5378334310993,801.2084732196242,0.8743515038177467,1243.9277172537313,1179.483648,33.124467226069136,66.12220466579993,655.5400940693485,928.715008501616,925.23869542578,134.0,656.7006803012148,802.395001299772,0.8184256871459169,810.8436367609754,716.1150719999999,43.162184567302205,80.95252654752434,451.8910577876176,647.9402911540793,646.3609381135086,205.0,458.1629736790355,550.8669539840048,0.831712576631233,893.6717501935482,716.1150719999999,43.162184567302205,77.21131018810034,539.8414147060267,727.128765329206,725.1724720334587,186.0,514.1576807600833,671.3258863780801,0.7658838891705091,918.3588151160221,716.1150719999999,43.162184567302205,75.79540098030438,531.973909698987,709.3498542285197,707.3892361226439,181.0,501.5860921586753,663.4743229977678,0.7559992523785474,truth
1783333838066946695,1783333848066946695,1304.2114109999998,1221.608064,94.95680604806486,62.706701105380766,728.8000844222194,1076.087503220376,1071.8433867000153,128.0,760.9087706772287,879.0950161733954,0.8655591906201238,1226.6005873777779,1179.483648,64.74327685095332,66.5294570875859,646.6168377374673,926.3411074904407,922.8781914984679,135.0,655.0220787983471,788.4793642414178,0.8307409280502001,838.6588276363636,716.1150719999999,94.95680604806486,80.02866550168294,521.1484626157765,734.0327340707257,732.1673365593857,198.0,519.0395238743118,639.1325578483219,0.8120999587655017,917.4278887955801,716.1150719999999,94.95680604806486,76.4131262860229,594.3969233736694,820.0809031226751,817.7997279024028,181.0,579.8847677196317,733.813486599655,0.7902345463923016,936.9132749662922,716.1150719999999,94.95680604806486,74.7826962444353,541.2795750309192,712.1901907165483,710.1756638959596,178.0,503.59451335021186,677.6159972676904,0.743185691277693,truth
1783333839066946695,1783333849066946695,1258.9816060150374,1179.483648,101.73943505149806,66.17777740072579,732.2582817836069,1061.624762240651,1057.613192190318,133.0,750.6820684559206,889.1808581670722,0.8442400233439028,1218.5332891094888,1179.483648,89.0220056700608,67.48961728169473,647.5837701208912,921.5993999983161,918.2082590225103,137.0,651.6691852762629,791.4500079781797,0.8233864157017349,829.9138674626864,716.1150719999999,83.7854171012337,80.32069836381912,494.8865024293318,697.2255755209816,695.4803591809201,201.0,493.0129324675794,606.8726594462245,0.812382836487406,921.6170572375689,716.1150719999999,83.7854171012337,75.90058733195295,584.5311995465995,812.240521804021,809.9811895613194,181.0,574.340780922123,720.0137360992886,0.7976803109807928,931.9144545251396,716.1150719999999,83.7854171012337,74.47665164269347,511.2902736531149,677.3512966470503,675.4459860980553,179.0,478.95969510463,638.853890257541,0.7497171143648309,truth
1783333840066946695,1783333850066946695,1273.7008532519083,1221.608064,45.94684163616042,65.63819232374694,739.3143260547871,1055.8711678138225,1051.8264427784625,131.0,746.6136628205129,902.4718082381061,0.8272985992527847,1231.8294296470588,1179.483648,33.91314501716602,65.97842321019525,636.9423086200046,910.7884965892712,907.4094186294494,136.0,644.0247221649744,777.1789289735834,0.8286698186935341,829.7042932537314,716.1150719999999,83.7854171012337,80.54413200199289,514.6811376862587,722.0238497601915,720.2166513425369,201.0,510.54796034384844,632.0314367770097,0.8077888703564242,916.3217744175824,716.1150719999999,83.7854171012337,76.17414509444919,579.9343688975736,808.891031787983,806.6535655793243,182.0,571.972333818266,713.4925151187621,0.8016514843509748,942.2065703050848,716.1150719999999,83.7854171012337,74.13392522128275,524.2248708666631,680.1605515075307,678.2256936070912,177.0,480.94613826655706,658.7631110752802,0.7300744838027169,truth
1783333841066946695,1783333851066946695,1268.8384698181817,1200.545856,129.48655370190664,66.61012948467953,752.6456815060045,1034.8860616383831,1030.9598908254675,132.0,731.77495193994,930.1632940704148,0.7867166513716929,1258.6648810827069,1179.483648,109.56554544007484,65.93436612371067,665.218232259779,939.1934106476943,935.6299671958573,133.0,664.1100295147065,815.1745380043702,0.8146844614903148,826.8480665346534,716.1150719999999,44.5110028350304,80.16969563587605,454.9292694545083,620.3506893761966,618.814689382235,202.0,438.65417917165814,563.6599470961589,0.7782248524691162,884.6127359999999,716.1150719999999,67.82629003433205,76.63862573511376,454.4044075767103,607.078209572212,605.4538775674285,188.0,429.2691186990991,566.4192291191493,0.7578646638933229,939.8266597966102,716.1150719999999,19.511672475629766,73.98651676360875,498.3207460330789,636.0024132487018,634.3346324171168,177.0,449.72161925916595,628.9056880323038,0.7150859466166347,truth
1783333842066946695,1783333852066946695,1246.4426077611938,1221.608064,38.49600245191819,67.36890890213131,734.1592776543703,1010.9788856574683,1007.1714902511715,134.0,714.8700256848151,906.8958667458296,0.7882603195115978,1265.3281018181817,1179.483648,37.48294975581508,64.77660572994252,659.3289142635534,913.9900101682258,910.4948724652244,132.0,646.288534126714,812.7636801039304,0.7951739846988134,828.9334336633663,716.1150719999999,79.13067170672072,79.64040474689563,418.15295897480337,547.7874591282036,546.4231448729319,202.0,387.34422699850154,524.1049695473549,0.739058489243162,872.6405335578945,716.1150719999999,89.0220056700608,77.29249217459454,448.0365761468282,604.3726601889373,602.7717114033508,190.0,427.35600638335046,556.91738079789,0.7673597936036433,936.67662094382,716.1150719999999,83.7854171012337,74.55143913366932,532.856058750636,711.9070023039433,709.8932766471731,178.0,503.3942689033054,664.2049862144786,0.7578899275844253,truth
1783333843066946695,1783333853066946695,1207.0503614117645,1137.3592319999998,56.97408362883891,69.65454893035941,699.0223793304324,931.0985226744651,927.6444394003087,136.0,658.3860793358907,872.0828279916507,0.7549581968631471,1218.7997696,1137.3592319999998,67.82629003433205,67.23139403868392,626.9050030303765,823.1919887022225,820.1233005876057,135.0,582.0846374297813,785.2442314867094,0.7412784635523086,836.7729469748742,716.1150719999999,83.7854171012337,79.53062578023044,473.93713836253824,660.016286662208,658.3516285606822,199.0,466.7019919924116,583.3759058906195,0.8000021723213167,857.0364430515464,716.1150719999999,83.7854171012337,77.73531399349105,421.59171574953865,587.172958927521,585.65082668036,194.0,415.1939809870202,518.9278645952196,0.8000996078922932,911.1694330434782,716.1150719999999,44.5110028350304,75.12833869049265,470.61380755936597,616.3676448448936,614.6909709094931,184.0,435.8377413738058,589.8961292703468,0.7388381102159483,truth
1783333844066946695,1783333854066946695,1199.4851692661869,1137.3592319999998,36.52184848002495,68.73601098224076,659.4358588730453,825.3599966649504,822.3687135237905,139.0,583.6176505618927,836.305280930098,0.6978524037452227,1196.0325257142856,1179.483648,178.0440113401216,68.16456075013656,601.7778584784052,808.2293770361716,805.3170573553169,140.0,571.5044732564558,748.975634072058,0.763048151712599,833.0574805970149,716.1150719999999,83.7854171012337,80.23579909866757,495.71798486846234,691.9299758411087,690.1979831976763,201.0,489.26837802349195,609.7383604278386,0.8024234815736117,854.3089469387754,716.1150719999999,83.7854171012337,78.14776623561885,428.41519652581326,598.7756488589318,597.2471434865137,196.0,423.39832171752573,526.7315177696258,0.8038218854082423,890.6625191489361,716.1150719999999,83.7854171012337,75.89844663850576,436.6968184265416,566.0354502818099,564.5199577355467,188.0,400.24750528624867,548.9163776968172,0.7291593429324079,truth
1783333845066946695,1783333855066946695,1212.1453328695654,1116.297024,61.928351770477086,70.6410101436936,739.8237431135279,935.5972581739478,932.178900609256,138.0,661.5671657143395,935.8647254669719,0.7069046922184559,1211.4613068613137,1179.483648,26.37689056890691,66.90554247373959,597.6430975896375,807.5578354899116,804.6236968762953,137.0,571.0296216752469,742.5073264135419,0.769055875089386,837.43339008,716.1150719999999,44.5110028350304,79.9696039732226,498.4864970233931,685.6042533739603,683.8868311661814,200.0,484.79541677106727,616.0067186063721,0.7869969630653513,850.186182822335,716.1150719999999,83.7854171012337,78.39287666984646,426.08877826663297,595.3930569333866,593.8722548150856,197.0,421.0064680289858,523.9084565726947,0.8035878458292631,890.8865851914893,716.1150719999999,44.5110028350304,76.23934565278446,479.2224893889702,620.2068923028464,618.5555913160223,188.0,438.5524992859775,602.6145047684587,0.7277496572281837,truth
1783333846066946695,1783333856066946695,1188.2721952230215,1137.3592319999998,38.49600245191819,70.39534436952336,704.1183845370484,926.9696552173939,923.610007168988,139.0,655.4665291583751,881.3326349697157,0.7437220671862426,1277.3419067076923,1284.794688,39.56533585336036,62.41941283075074,595.6418099060287,786.093160465504,783.0501646530605,130.0,555.8518044095227,745.0454463880698,0.7460642932645987,833.4766290149253,716.1150719999999,43.162184567302205,80.1709568742664,495.5289073542563,683.4545958610795,681.7521472395395,201.0,483.27537936648065,611.8171703184689,0.7899016288067259,850.4000123451776,716.1150719999999,83.7854171012337,78.3662950019844,426.01046741914246,599.5358192587111,598.0044353547365,197.0,423.9358433620669,522.5983515643721,0.8112077699691094,881.7305391157895,716.1150719999999,83.7854171012337,76.78787164349508,474.8476879063715,615.3380624154333,613.7080249496213,190.0,435.1097166561439,596.9090555987224,0.7289380393462324,truth
1783333847066946695,1783333857066946695,1171.770726760563,1074.1726079999999,50.86971752574903,70.68820157393674,691.1671485281812,922.8904613981296,919.6143548113776,142.0,652.5821035469991,861.679960005013,0.7573369856984983,1281.5543483076924,1347.981312,36.52184848002495,63.09095714503875,605.8006837887432,819.8878390277171,816.7048410685875,130.0,579.7482507888832,752.2864612708597,0.7706482578584458,809.1143865507245,716.1150719999999,83.7854171012337,81.29919787650691,463.7594249438801,655.588045028812,653.9994796195222,207.0,463.57075230470457,568.0639816538115,0.8160537673152687,837.4333900799998,716.1150719999999,83.7854171012337,78.99614066360317,412.16167954533864,577.31143778923,575.8646820917851,200.0,408.22083251732016,506.3915245348226,0.8061367790314358,868.5966819999999,716.1150719999999,94.95680604806486,77.40848571232335,462.8895896765576,606.5344196846927,604.9524292156193,192.0,428.88460118209355,580.1401071261165,0.7392776260663847,truth
1783333848066946695,1783333858066946695,1178.000393915493,1074.1726079999999,29.06841001471373,70.67717178519055,699.417041631839,940.4412063451645,937.1620913567023,142.0,664.992354313923,870.207435386575,0.7641768241367777,1276.5948970992365,1347.981312,178.0440113401216,64.87680424701,621.1446545686206,820.9405616148139,817.8080732659479,131.0,580.4926380689276,776.6308726623159,0.7474498613208356,825.2650366108375,716.1150719999999,83.7854171012337,80.03905698209968,404.46763591574756,517.5908509321769,516.3080959217998,203.0,365.9920005742577,510.1108357645167,0.7174754483027904,841.8532785527638,716.1150719999999,83.7854171012337,78.34053813886338,362.5528089635194,464.2328076731457,463.05901867041814,199.0,328.26216635495166,457.1772672002113,0.718019442141676,877.1141488586387,716.1150719999999,83.7854171012337,77.0808261570185,476.97461682758944,631.9925263345492,630.327193989778,191.0,446.88620103037744,595.949605134503,0.7498724677055828,truth
1783333849066946695,1783333859066946695,1231.5931107555555,1137.3592319999998,67.82629003433205,68.89337060751163,727.7300491644124,1026.2944684678519,1022.473497776931,135.0,725.6997781478614,892.1109599773722,0.8134635832366282,1300.920441,1390.105728,67.82629003433205,64.398761949689,645.2165408167805,886.3899834100469,882.897349854165,128.0,626.7723680450755,797.6132950338331,0.7858098303370045,860.917752,716.1150719999999,89.0220056700608,78.63152303212645,472.70047169340813,623.436823498262,621.8026872616296,192.0,440.83640553702185,591.3739118822713,0.7454444585387494,861.2587851606216,716.1150719999999,37.48294975581508,77.46078033103629,384.27322145931066,485.18288563071457,483.94404825677384,193.0,343.0761085451354,486.2933367158099,0.7054921024871647,904.4089096393443,716.1150719999999,67.82629003433205,75.86512750339797,515.8749026027499,691.3655873530381,689.465013720889,183.0,488.8692950963536,642.4618560092035,0.7609312374326397,truth
1783333850066946695,1783333860066946695,1204.208848695652,1095.234816,36.52184848002495,70.13051514523548,721.2914356215564,1037.9088748091788,1034.1341071880581,138.0,733.9124036312697,878.185038645101,0.8357149932360259,1305.193519370079,1347.981312,40.69577402059923,63.49201560904609,643.1104599878814,881.7252231859519,878.2216344476348,127.0,623.4738844580087,795.501279188833,0.7837496943986823,859.4249408659794,716.1150719999999,52.75378113781382,77.946227191311,436.1352618602312,572.0942635376038,570.6144035101681,194.0,404.53173322536344,546.4475928052265,0.7402937418914627,887.766435593583,716.1150719999999,83.7854171012337,76.68696936774181,458.951345365726,556.1336621396086,554.6367106098261,187.0,393.2458837450256,586.4737950538087,0.6705259247072506,916.0903215824175,716.1150719999999,83.7854171012337,75.22152555788195,510.1107603471537,686.5978297380065,684.6985236659472,182.0,485.4979813557109,634.4854850141706,0.7651837478123992,truth
1783333851066946695,1783333861066946695,1220.9931090218977,1095.234816,79.13067170672072,68.41712423473471,735.2630080427937,1088.1118060288404,1084.105120307597,137.0,769.4112367321343,886.1301012760136,0.8682824741245039,1268.2343259847325,1305.8568959999998,118.69600756008109,64.4641999465792,622.1845000414428,869.2546045308945,865.9458476258745,131.0,614.6558254414261,765.0661489760868,0.8034021976583858,855.7336260618556,716.1150719999999,83.7854171012337,78.14949583110379,430.3329387247806,548.4098678787269,546.9874459744966,194.0,387.78433644666643,543.308872103448,0.7137456359682469,883.0442737021276,716.1150719999999,83.7854171012337,77.24797493007587,468.21446754437443,558.8433469594283,557.3472925048873,188.0,395.1619202559983,600.3108391704419,0.65826217764461,887.7664355935829,716.1150719999999,83.7854171012337,75.77943069557966,420.9830874458985,534.9919924226643,533.5520959563806,187.0,378.29646572256803,531.882892977269,0.7112401446209612,truth
1783333852066946695,1783333862066946695,1246.4426077611938,1116.297024,36.52184848002495,67.91527141569463,779.1919077509269,1128.8671340725966,1124.6188779103552,134.0,798.2296055613566,946.411541884258,0.8434275896214467,1267.8810967272725,1326.9191039999998,37.48294975581508,64.61611188998894,615.2560521917492,864.2783173778067,860.9761680583395,132.0,611.1370590503462,755.2057779471762,0.8092324991362725,851.7772937846153,716.1150719999999,54.78277272003742,78.62266361670203,440.4933698375485,567.160529897321,565.7002628502416,195.0,401.04305671175126,554.6630067647618,0.7230391279399632,880.5361796129032,716.1150719999999,83.7854171012337,77.32613191361315,460.3704032621987,547.2279337377469,545.7576228882136,186.0,386.9485828006635,590.7767882490627,0.654982711740414,892.7658487741935,716.1150719999999,29.06841001471373,76.07107471741504,444.0030779037527,576.3586462689315,574.8509429218036,186.0,407.5471071722601,557.8800445380466,0.7305282043377803,truth
1783333853066946695,1783333863066946695,1257.714706285714,1137.3592319999998,47.47840302403243,65.39750713707693,738.1366339417219,1063.8849980954624,1059.8479017091258,133.0,752.2802965559385,898.1806936471556,0.8375600832625634,1303.866766110236,1390.105728,67.82629003433205,62.09156738780038,614.9884969042372,882.805302698875,879.3113989388148,127.0,624.2376160058172,749.3900199700772,0.8329943011927791,900.5517042162161,716.1150719999999,83.7854171012337,77.18067535753156,538.4672501760483,666.0600565346408,664.2476448580427,185.0,470.9755826531397,684.8247653937303,0.687731528491612,893.0376191999999,716.1150719999999,83.7854171012337,77.57933383479921,528.2520943765322,664.3399852353216,662.5322540335198,185.0,469.7593085732667,669.151437591498,0.7020224155298673,901.5540772173913,716.1150719999999,83.7854171012337,75.70240408310346,457.25164568420473,602.7951435423314,601.1571882760469,184.0,426.2405336651009,572.1168051126203,0.7450236207992458,truth
1783333854066946695,1783333864066946695,1223.1454514452553,1095.234816,38.49600245191819,66.12088830508522,719.9566152795385,1028.6206759660645,1024.835796315414,137.0,727.3446552442946,878.7263123483432,0.8277260450987405,1284.6314150697674,1305.8568959999998,94.95680604806486,62.90782026151739,618.6099041375444,863.9478558238768,860.5755036044824,129.0,610.903387444641,760.7594577778544,0.8030178017491408,952.9746453942856,716.1150719999999,44.5110028350304,75.46861015904994,608.3079359866966,786.9275724491581,784.6714310147069,175.0,556.4418227814679,765.0250576932816,0.7273511072425026,931.6791225921788,716.1150719999999,44.5110028350304,75.64314564511632,554.7662686827099,705.7272699186,703.7510507626099,179.0,499.024538227711,700.7271086946638,0.7121524656828382,916.3217744175824,716.1150719999999,83.7854171012337,74.92460821101679,461.97934582504786,614.5771199409721,612.8770416635647,182.0,434.5716490723595,576.5618551804683,0.7537294483977529,truth
1783333855066946695,1783333865066946695,1195.1298596571428,1095.234816,109.56554544007484,65.32745922488225,640.9101465345353,903.2260887270817,899.9712093528351,140.0,638.6772922835218,785.8608591999817,0.8127103988022828,1229.9709995294115,1179.483648,178.0440113401216,66.93593381164678,625.3069636215447,878.5054637527545,875.2617663541482,136.0,621.1971707290054,767.5119771354263,0.8093647906935479,957.3074424685714,716.1150719999999,36.52184848002495,74.59710575718152,578.699537020272,749.8549470069329,747.7160559645257,175.0,530.2275179348815,727.4721286119914,0.7288629998052978,958.8783249017341,716.1150719999999,89.0220056700608,73.74243338975772,544.0193913316779,710.8354496382835,708.7660976054107,173.0,502.6365667470189,682.343342587999,0.7366329168547517,951.8681956363636,716.1150719999999,36.52184848002495,73.48340125200134,494.4435293197212,685.8044722780317,683.8627279854015,176.0,484.93699291585784,609.398772416836,0.7957629960307094,truth
1783333856066946695,1783333866066946695,1176.8137906478871,1095.234816,61.928351770477086,67.20963121955066,671.8064835802472,964.8529308865416,961.429138388099,142.0,682.2540502775888,818.4818924086388,0.8335603470344872,1227.8952902686567,1179.483648,118.69600756008109,67.26570205417941,626.0115347454577,878.8573157198786,875.5700213544113,134.0,621.4459676409327,768.5592611634701,0.8085856212312992,991.0454320473373,716.1150719999999,83.7854171012337,73.00543970811316,599.3539878061687,782.9082512793376,780.5746894529672,169.0,553.5997335265212,751.8072046196395,0.7363586437118582,957.0667315199997,716.1150719999999,83.7854171012337,73.3392195327169,524.6516089957428,678.2059476545317,676.2640219071486,175.0,479.564024627568,659.9452968126586,0.7266723877626237,975.2664499649121,716.1150719999999,89.0220056700608,72.2497104016908,507.3073505680874,711.315411206393,709.2313027696024,171.0,502.97595082653805,623.0803257413081,0.8072409447820773,deceptive
1783333857066946695,1783333867066946695,1165.8377104225353,1095.234816,89.0220056700608,67.88467431450971,643.5109405046336,923.1277036005229,919.8811724548564,142.0,652.7498591170951,784.328675881242,0.8322402064207203,1218.5555700869565,1179.483648,109.56554544007484,67.18731411535283,621.5561976118128,864.6570908951503,861.5063830897021,138.0,611.4048923729938,765.3471384741002,0.7988595784025186,1013.5389789090908,716.1150719999999,44.5110028350304,72.08269574095067,620.6655903261207,831.0984278513529,828.5607566170958,165.0,587.6753341671703,773.1561296630172,0.7600991722374505,966.6701243930635,716.1150719999999,83.7854171012337,72.74572973741779,528.1352554712691,690.9293399920738,688.9178965974252,173.0,488.560821629141,662.1992584773369,0.7377852140042248,1001.40078754491,716.1150719999999,83.7854171012337,70.92836992387038,521.6792139657963,741.9233375911256,739.6852530421326,167.0,524.6190231312411,637.7192523770576,0.8226488712325327,deceptive
1783333858066946695,1783333868066946695,1131.0117172602738,1053.1104,59.34800378004054,68.45669339710108,594.4818477621076,836.8708578726292,833.9842021599313,146.0,591.7570585791395,729.1975908134788,0.8115181207866948,1185.2005330285715,1158.4214399999998,158.26134341344144,67.1815373056196,584.8119865869746,829.1174850156387,826.139058404056,140.0,586.2745960548939,715.6473770803209,0.8192227273252386,987.0229928622754,716.1150719999999,64.74327685095332,73.5292158278497,622.9638114408002,850.1805119944328,847.6177203636981,167.0,601.1684052639143,771.6644963881122,0.7790541201231499,953.9374891885712,716.1150719999999,83.7854171012337,73.25729763531095,520.8939845049601,673.2443683457773,671.3071450768803,175.0,476.0556582529529,655.245443562625,0.726530284078891,1020.2895359999998,716.1150719999999,43.162184567302205,70.46999038646712,558.6479733912364,800.7855403235006,798.315278189293,163.0,566.2408858388808,681.073230974813,0.8313950102376306,deceptive
1783333859066946695,1783333869066946695,1129.9589967567567,1074.1726079999999,33.91314501716602,67.63353176533488,575.5441108512908,781.0584672850582,778.4357242385091,148.0,552.2917387204358,714.1351165863396,0.7733714893624941,1144.860840328767,1116.297024,37.48294975581508,69.43908021927798,558.9461119604241,795.4680745032613,792.7591414480925,146.0,562.4808696986619,683.1172284190089,0.8234031382877796,981.3244129704142,716.1150719999999,94.95680604806486,73.39872204826011,593.5017563511899,801.9525898748071,799.584909443473,169.0,567.0661144905904,737.3646862185404,0.7690443075036592,925.340762519337,716.1150719999999,83.7854171012337,74.3083129989408,483.58349596153414,632.4170253086971,630.7419219562505,181.0,447.1863671336042,606.3977009007232,0.7374473327807284,1013.5862565925927,716.1150719999999,94.95680604806486,70.57798382257313,538.8361515147342,764.3867842966423,762.0093943410254,162.0,540.5030786255346,659.2548880035541,0.819869656579051,deceptive
1783333860066946695,1783333870066946695,1113.0458106845638,1053.1104,158.26134341344144,69.86136421142479,582.1541486754877,785.9089574740981,783.2609951952024,149.0,555.7215532251848,723.4595242863679,0.768144636389102,1148.3231210958902,1179.483648,31.652268682688288,69.62258490003,556.7605129013962,781.6528983209454,778.9620355873203,146.0,552.7120649368594,683.5343620397352,0.8086090409376216,998.8783674251496,716.1150719999999,31.652268682688288,72.2767155156952,597.5226960865845,834.5103086849849,832.0254718427321,167.0,590.0878982412319,734.8230268927235,0.8030340322029382,920.1844650666666,716.1150719999999,36.52184848002495,74.10218940365984,456.76044981512166,625.013800165867,623.2890084613923,180.0,441.95149643245827,565.3314553703694,0.7817564231286575,1059.281492789809,716.1150719999999,25.89731074038133,68.74598022695879,581.6591750334345,835.962638062383,833.3455071325208,157.0,591.1148501925064,708.4817631683236,0.834340248292414,deceptive
1783333861066946695,1783333871066946695,1123.0311993469388,1010.9859839999999,47.47840302403243,70.36624757460304,620.0316792917503,871.660958682425,868.6829555972662,147.0,616.3573747799097,760.8747334009092,0.8100641902313603,1172.9110440851061,1179.483648,129.48655370190664,69.62826854889092,599.7217570208577,800.3773476072439,797.5718545983395,141.0,565.9522500011848,747.7843252219636,0.7568388784201836,993.9356251428571,716.1150719999999,83.7854171012337,71.53089382745668,535.823993259553,749.7756560100355,747.5276183130327,168.0,530.1714507332883,658.5391559496727,0.8050720233464833,950.5675359085715,716.1150719999999,83.7854171012337,72.94238366709689,524.1042877537423,684.8404720635708,682.956599840999,175.0,484.2553418271473,657.3575821724819,0.7366695919544214,1091.3802942745099,716.1150719999999,44.5110028350304,67.03411820407213,579.02142098409,829.5217505523456,826.8019808097556,153.0,586.5604549572993,706.0488851751079,0.8307646499743794,deceptive
1783333862066946695,1783333872066946695,1128.5358745945946,1010.9859839999999,34.74029489563348,70.85153972580557,629.5073279754262,883.7513261368895,880.776787503127,148.0,624.9065555939987,772.8549995551195,0.8085689501312863,1186.9525160851063,1179.483648,38.49600245191819,69.146802704442,610.9862746278163,803.8303457087753,800.9654553092736,141.0,568.3938883742018,764.9004179607842,0.7430952775389159,998.8783674251496,716.1150719999999,83.7854171012337,71.46388906356694,553.0966569038704,793.3323954805961,790.9392711718511,167.0,560.9707165792975,674.1570672526769,0.8321068543646124,942.4445613559321,716.1150719999999,83.7854171012337,72.72918406097054,471.94248914830325,591.9299050025365,590.2459390071987,177.0,418.5576498144025,598.217496415739,0.6996747041372399,1090.279002352941,716.1150719999999,83.7854171012337,66.83053586168052,574.864896892161,800.892255368533,798.2534420831092,153.0,566.3163447708778,707.5183376989928,0.8004263841594051,deceptive
1783333863066946695,1783333873066946695,1116.5778534399997,947.79936,64.74327685095332,72.54814746506905,633.8092059852307,905.8492025046846,902.8087492233561,150.0,640.5321138234885,773.4904813659081,0.828106006802271,1176.4961007659574,1179.483648,56.97408362883891,70.88317068052969,616.8981760180378,784.6569348984665,781.8510139923251,141.0,554.836239571757,779.2336573696621,0.7120280731258856,989.0409289580839,716.1150719999999,21.581092283651103,71.78633255809514,539.5516031782489,752.4371632325639,750.2746559469172,167.0,532.0534205385151,663.8459488699694,0.8014712169957534,945.2718950399999,716.1150719999999,38.49600245191819,72.36151058486799,465.35740458039913,580.1408786767358,578.4718609926396,175.0,410.2215493558421,590.7403560090141,0.6944193759289784,1104.4408141986755,716.1150719999999,83.7854171012337,65.84994567741892,570.945535731279,801.8280163860879,799.1509841929757,151.0,566.9780277319609,700.8748587141233,0.8089575773515126,deceptive
1783333864066946695,1783333874066946695,1154.3260106666667,1032.048192,39.56533585336036,71.11408861704969,652.3094386860623,935.5646483248183,932.2906827692359,144.0,661.5441070688867,795.106851183579,0.8320191255856069,1242.9846333134328,1263.73248,33.91314501716602,67.13957640532654,645.5741843467399,855.4747298076016,852.3128543203209,134.0,604.9119825806846,806.5809331090526,0.7499705953238772,984.2245903058823,716.1150719999999,83.7854171012337,72.13512191870058,537.6561229790856,743.6273673131121,741.4290918149039,170.0,525.8239541030011,663.2516851087116,0.7927970119168486,945.3004539661017,716.1150719999999,83.7854171012337,73.31765309928899,521.2787891354416,688.7553646992326,686.8009322544042,177.0,487.023588957441,651.8183519237022,0.7471768591971909,1085.8738346666667,716.1150719999999,83.7854171012337,66.31450677521426,556.7762593784992,775.297240814901,772.7427124837074,153.0,548.2179364154363,685.3671666422516,0.7998894068726163,deceptive
1783333865066946695,1783333875066946695,1133.0608222040817,926.7371519999999,29.06841001471373,72.4348822632654,653.7373889234017,945.3023664077198,942.0789515224305,147.0,668.4297135585891,794.5728452248825,0.8412440943276989,1250.648381090909,1305.8568959999998,142.4352090720973,65.93117434005379,619.1466072299606,818.8041909785268,815.7192027054795,132.0,578.9819959048813,773.9993324917937,0.7480393995185002,980.755520752941,716.1150719999999,83.7854171012337,72.84326853878727,567.9424184076055,802.0641042172331,799.727389863528,170.0,567.1449670383192,695.9098177457414,0.8149690557254534,943.1585345084744,716.1150719999999,83.7854171012337,73.21553937021854,516.7377412561483,682.6159333849768,680.6740894235542,177.0,482.68235544250166,646.1769559101062,0.7469816913583199,1104.1618445562913,758.2394879999999,43.162184567302205,64.86926545993342,553.7101172456454,772.3922728365062,769.8133777189993,151.0,546.1638138587836,681.2065267567441,0.8017595140479566,deceptive
1783333866066946695,1783333876066946695,1128.475851755102,926.7371519999999,36.52184848002495,73.23612025959955,657.6391672593371,942.8339432128913,939.6892121575038,147.0,666.6842747786877,801.7135320727201,0.8315741821833382,1233.153274311111,1305.8568959999998,40.69577402059923,67.09841096812745,610.385020899653,819.6142179535898,816.5795163815931,135.0,579.5547714718922,759.7354019060986,0.7628376537645192,970.3396176842106,716.1150719999999,52.75378113781382,72.89691737656943,550.5619127547336,775.6805836654991,773.3959640410059,171.0,548.4890007446135,675.1420203063867,0.812405366941467,951.2896687542857,716.1150719999999,83.7854171012337,72.9611128927796,526.1391036770656,695.7804412492487,693.778867055424,175.0,491.991068224312,657.7363508503709,0.748006503803886,1088.076418509804,716.1150719999999,83.7854171012337,65.4252668526267,543.354066895651,744.38045857482,741.9365452891046,153.0,526.3564700410071,672.2661059781851,0.782958512053986,deceptive
1783333867066946695,1783333877066946695,1154.0334799999998,1010.9859839999999,40.69577402059923,70.80212634447714,636.2640572265993,921.9610816474668,918.7424116614596,144.0,651.924932823008,772.7618274855226,0.8436298347503733,1262.4262965581395,1347.981312,30.305363632361125,66.36617238358741,620.775708962031,824.3272482363383,821.122273960384,129.0,582.8873871447613,775.142637601881,0.751974357839591,949.268816372093,716.1150719999999,83.7854171012337,73.54169081579165,508.16275852468925,672.9732761476374,671.0048484775506,172.0,475.8639671213215,635.0082839622033,0.7493822980577772,947.9211068670519,716.1150719999999,83.7854171012337,73.00347374346123,518.6215807718407,692.5172045401082,690.5109108123439,173.0,489.6836114186619,646.5614189220961,0.7573659625949065,1081.193344,758.2394879999999,83.7854171012337,65.4740987604948,524.4447498239101,711.0932299871181,708.7659060815579,153.0,502.81884497973647,650.9002963606248,0.7724974896941124,deceptive
1783333868066946695,1783333878066946695,1175.9238381971827,1010.9859839999999,71.21760453604865,71.00754171244424,687.0374634801991,994.2861081102241,990.7799419078247,142.0,703.0664494843201,834.799219127191,0.8421982596239108,1329.783564288,1432.2301439999999,178.0440113401216,65.25643048462099,722.1115987780709,956.641290803406,952.776299909829,125.0,676.4475438901404,902.27472665599,0.7497135006731153,943.491181090909,716.1150719999999,44.5110028350304,73.37117097414404,489.47420741724136,644.7542227221855,642.9224514333997,176.0,455.910083085519,612.5708102121345,0.7442569503558886,957.2410394482758,716.1150719999999,52.75378113781382,72.85171001059811,542.6856044550271,717.8501529250276,715.7783985788981,174.0,507.5967110090872,678.3716680786537,0.7482575332881296,1044.3675966792453,716.1150719999999,94.95680604806486,67.2778527203524,497.88343623359617,669.6938428569523,667.5865803491695,159.0,473.54505760302914,619.3975874681938,0.7645251889641009,deceptive
1783333869066946695,1783333879066946695,1190.9174180571426,1010.9859839999999,67.82629003433205,70.05561188129647,698.1219483918156,994.7911509559981,991.2141357319332,140.0,703.4235687053567,852.8459128985023,0.8247956143855867,1387.6484704,1474.3545599999998,59.34800378004054,60.89544641615624,712.6039919574534,957.7963599680728,953.7688362003132,120.0,677.2643011292157,886.7160943139435,0.7637893407734054,969.8412055813952,716.1150719999999,28.487041814419456,72.88438427439607,541.7582554207877,670.7090405533149,668.797475056148,172.0,474.26291077837215,688.8696250838498,0.6884654127704418,975.5127915789473,716.1150719999999,83.7854171012337,72.23900537291715,564.3334333410821,753.6628492423298,751.442965247847,171.0,532.9201114276261,703.5215173618006,0.757503641716705,1046.9783647594936,716.1150719999999,83.7854171012337,67.01802193034125,480.923098539211,616.4392607497698,614.4730008867919,158.0,435.88838146578456,606.2794016529679,0.7189562770520868,deceptive
1783333870066946695,1783333880066946695,1198.2729558561152,1053.1104,142.4352090720973,70.74823311684057,707.5196039996681,994.7319249799727,991.1213178755621,139.0,703.3816896160869,868.2137291267074,0.8101480845316547,1390.8078016,1474.3545599999998,49.11558933520596,60.15030201129404,710.1029480507902,963.1813911539597,959.2252241737907,120.0,681.0720931976574,881.2280043181376,0.7728670558133777,961.514286139535,716.1150719999999,29.06841001471373,72.99355921146423,528.6991062088259,646.4113189240294,644.5728748410628,172.0,457.08182704692126,674.2281449952582,0.6779334716887796,971.3249841403508,716.1150719999999,44.5110028350304,72.24383552234498,556.7609379295882,759.9027974792542,757.6748656674475,171.0,537.3324211402083,689.6393395132491,0.7791498981474292,1026.3275922962962,716.1150719999999,94.95680604806486,67.68438743404546,453.56643957060334,583.7784666577121,581.9911320433725,162.0,412.7937124843531,571.1792237784916,0.7227043549546861,deceptive
1783333871066946695,1783333881066946695,1230.0329471999999,1179.483648,30.305363632361125,68.54719773741378,675.8114920556657,963.1839106776852,959.5844978738731,135.0,681.073874769969,825.537118573066,0.8250069675209754,1341.5267643870968,1432.2301439999999,118.69600756008109,63.61014746929701,719.2016608023987,963.9562502808789,960.0962524552799,124.0,681.6200013407663,895.6557065569135,0.7610290386705122,975.5127915789473,716.1150719999999,19.78266792668018,72.30813802470067,544.6428636654063,653.4296781958724,651.5962130925815,171.0,462.04455648084485,697.5163881920756,0.6624139078343938,991.8155910898203,716.1150719999999,44.5110028350304,70.96165726103277,533.8526853086559,727.20711574978,725.0234161893462,167.0,514.2130828737801,661.6568838327362,0.7771597264962044,1011.7612799999998,716.1150719999999,43.162184567302205,68.37446862955385,447.7513155245177,580.971581745605,579.1906266359829,163.0,410.8089451289919,562.6548554921346,0.7301260108555744,deceptive
1783333872066946695,1783333882066946695,1244.0744192,1137.3592319999998,47.47840302403243,69.00060589306187,714.4822299850366,1019.1110205088984,1015.3188149315289,135.0,720.6203133837847,872.5381916558779,0.8258897092128566,1351.0888508852458,1432.2301439999999,56.97408362883891,63.274393774758785,755.8794789501076,1020.9934642244074,1016.7716898374813,122.0,721.9514021002232,939.2021400627945,0.7686858571808131,949.845403062857,716.1150719999999,83.7854171012337,72.91635745964763,487.1999769498168,572.0848892283718,570.4388038539591,175.0,404.52510458773656,626.8232246486599,0.6453575564537778,972.0640089824562,716.1150719999999,83.7854171012337,71.7373346401813,509.09390122839915,710.4549261389835,708.3624442117983,171.0,502.367496000263,626.2321055464299,0.8022065485798007,997.5366222650603,716.1150719999999,83.7854171012337,69.57182121760616,457.56570181540934,610.0687713939355,608.2346285864617,166.0,431.3837652427975,570.6897287477055,0.7558989473832052,deceptive
1783333873066946695,1783333883066946695,1296.6421799999998,1200.545856,28.487041814419456,64.99846037429091,710.1281926133277,997.2073142121819,993.2790803080608,128.0,705.1320541282581,871.7559824910721,0.8088640265058112,1376.6397261639343,1432.2301439999999,36.52184848002495,61.82447611989501,757.5286949139079,994.393770212875,990.3144256551068,122.0,703.1425780871814,948.9439944888176,0.7409737373025413,934.0734266966292,716.1150719999999,41.89270855061685,73.07370424096435,446.87656355171606,543.9910157163323,542.4672289528098,178.0,384.65973611757636,570.4522502441025,0.6743066329442585,952.4932234971428,716.1150719999999,83.7854171012337,72.07977641104607,457.24914776877057,655.3915348698961,653.5099963911797,175.0,463.43179863876315,557.4666360202684,0.8313175510326212,992.1804411428571,716.1150719999999,83.7854171012337,69.53536561454054,439.6772534318381,576.1670539238781,574.444950762704,168.0,407.41163092584947,551.0354397531064,0.7393564942182155,deceptive
1783333874066946695,1783333884066946695,1294.1916731076924,1179.483648,36.52184848002495,65.29855165416613,712.2729488611199,1002.1363597175567,998.2659170415812,130.0,708.6174156298857,873.8399089602407,0.8109236123960636,1335.8494801919999,1347.981312,101.73943505149806,63.25604723513575,743.3693043039958,992.4224875797972,988.4409383500607,125.0,701.7486707696969,926.806477480221,0.7571685004593345,941.9685792542373,716.1150719999999,83.7854171012337,72.29581244849378,437.4801650272046,536.2128019544726,534.6875144134688,177.0,379.15970842104684,557.5811576259493,0.6800081086588732,947.3206734545453,716.1150719999999,83.7854171012337,71.89206006028803,420.6657831266035,570.0451562780063,568.414326316587,176.0,403.0827955867234,522.1891727506738,0.7719095236376735,982.8199543668641,716.1150719999999,83.7854171012337,69.97486222108417,436.5550009083688,585.192878769579,583.4486876990396,169.0,413.79385288004653,543.643137817038,0.7611497765641034,deceptive
1783333875066946695,1783333885066946695,1315.4758571338582,1263.73248,33.124467226069136,65.64348053194804,731.0276174650478,1040.2999449034269,1036.2187747079597,127.0,735.6031455092049,893.4465631204422,0.8233319997785261,1390.8078016,1390.105728,28.487041814419456,60.21810619412239,756.0728125996102,1011.4309943215269,1007.1882434849102,120.0,715.1897147870042,942.095553453052,0.7591477447968282,940.9363933483144,716.1150719999999,83.7854171012337,72.36070724897456,426.25706879924013,557.3983667127842,555.8215647794595,178.0,394.14016492491567,534.524969107263,0.7373653013500734,963.9916933179189,716.1150719999999,64.74327685095332,71.27049519050854,437.5067849239805,597.1111444677832,595.3740852547077,173.0,422.2213393752298,541.930755721734,0.7791056973928757,986.8080647573964,716.1150719999999,83.7854171012337,70.05814543225178,449.9221261481179,612.543330208851,610.7175636135477,169.0,433.13354256126917,557.725296494115,0.7766073105953147,deceptive
1783333876066946695,1783333886066946695,1360.7567496393442,1369.04352,40.69577402059923,64.24820992039754,742.3861707678046,1085.8380242876765,1081.3417812712778,122.0,767.8034302440191,898.6174933459323,0.8544274242705456,1403.5572221848736,1347.981312,89.0220056700608,57.845044639710046,742.4253297922545,982.0008752638056,977.8685352674946,119.0,694.379478030162,928.067514181784,0.7481993146181295,957.3074424685714,716.1150719999999,83.7854171012337,71.98571893979273,467.5842268190405,594.5618148373893,592.8634960781679,175.0,420.4186911060984,590.6725661686323,0.7117626840757527,949.3639811657143,716.1150719999999,83.7854171012337,71.9955425521225,425.66950232467406,576.7634183129419,575.103664027751,175.0,407.83332422941453,528.4174866927324,0.7718013398496104,998.4489554285714,716.1150719999999,83.7854171012337,69.62248555791383,457.15988192851984,613.8142702585576,611.9966682052318,168.0,434.0322328888982,569.0327984365532,0.7627543334609604,deceptive
1783333877066946695,1783333887066946695,1329.4465689600001,1347.981312,28.487041814419456,65.11561616023477,699.8110892136689,1010.5248726078809,1006.4605028972059,125.0,714.5489899787046,850.988244121533,0.8396696369364383,1347.9813120000001,1347.981312,29.67400189002027,59.77831662344573,674.2046688514229,864.3098079697841,860.8252225036638,124.0,611.1593262614771,849.9094127987536,0.7190876075238749,957.0667315199997,716.1150719999999,83.7854171012337,72.30052472209834,487.84784096238394,616.640624506015,614.8768389551401,175.0,436.03076714331075,617.194958595359,0.7064716927300408,925.3407625193371,716.1150719999999,83.7854171012337,73.33663304441711,413.0890464636555,544.4129487798458,542.8985843755253,181.0,384.9580878479935,516.9030430522852,0.744739449732848,962.5671150344829,716.1150719999999,83.7854171012337,71.7757343157946,449.58451789226484,576.2217927758521,574.5539982712932,174.0,407.4503371392746,566.7844288963717,0.7188806120391339,deceptive
1783333878066946695,1783333888066946695,1365.1050583414633,1474.3545599999998,19.511672475629766,64.17902366339615,724.893128811742,1010.028395200734,1005.9090992198875,123.0,714.1979274374053,892.1327012384486,0.8005512256707592,1329.593670095238,1326.9191039999998,56.97408362883891,60.80247301984472,676.7965366275391,884.8133057193895,881.2927184713867,126.0,625.6574885582661,848.7540618386138,0.7371481524376277,925.3407625193367,716.1150719999999,83.7854171012337,74.52424444563853,493.6111784410279,615.5508783202766,613.8388117817875,181.0,435.260200225603,626.5606674645836,0.694681653074251,910.8541754754098,716.1150719999999,83.7854171012337,74.80092877639886,426.9568371755596,565.5031275092582,563.9580940505261,183.0,399.87109624399733,533.5127316346129,0.7495061926991785,927.6784797318435,716.1150719999999,83.7854171012337,73.43861188597842,423.1792207878363,546.2727120199561,544.7793073897327,179.0,386.273139046477,532.5014899873906,0.7253935365619799,deceptive
1783333879066946695,1783333889066946695,1384.535557289256,1516.4789759999999,101.73943505149806,62.7434341816797,724.3469030951413,1039.872521826964,1035.531190667473,121.0,735.3009117534024,882.6228847216413,0.8330861622575072,1335.849480192,1221.608064,94.95680604806486,62.22996332027835,715.7116190641934,940.566222697052,936.7661859794673,125.0,665.080754224102,896.2812273540756,0.7420447220427635,886.8533964255317,716.1150719999999,83.7854171012337,75.68289609623048,412.52021160063885,544.0677267243431,542.6477080224611,188.0,384.71397899153243,516.084709270022,0.7454473501756961,864.6362088247421,716.1150719999999,83.7854171012337,76.69516467491282,363.9170386488901,449.773351651462,448.60922411515793,194.0,318.03778694975045,462.92246118978517,0.6870217231031353,891.595927957219,716.1150719999999,83.7854171012337,75.24176438143516,392.22825553291455,502.94371484443934,501.59009802027686,187.0,355.6349113216563,494.41674102057414,0.7193019204559202,deceptive
1783333880066946695,1783333890066946695,1435.135276137931,1516.4789759999999,59.34800378004054,57.97907311022045,699.0009936272105,1018.2725901870173,1013.8436582623681,116.0,720.0274536176303,847.3399619999701,0.8497503787242076,1317.7976753385822,1347.981312,41.89270855061685,64.17619170695482,724.8504500678957,948.3043915484479,944.5508817081002,127.0,670.5524658928905,908.8432456533657,0.7378087135486512,879.2636038095237,716.1150719999999,26.37689056890691,75.81108226516554,385.7214139980003,503.3004477612559,502.03615673848213,189.0,355.88715958620975,483.97746151454544,0.7353382913173405,864.7509647253886,716.1150719999999,20.061297052408072,76.90483785544066,374.2877092118994,402.86498151970414,402.0022794720672,193.0,284.86856033517597,489.497221851631,0.5819615467021404,865.5251099999999,716.1150719999999,44.5110028350304,76.26080779624168,349.3081674073512,450.61092166237734,449.44540253193384,192.0,318.6300383841872,439.6246591748578,0.7247774476123147,deceptive
1783333881066946695,1783333891066946695,1423.6624661694916,1516.4789759999999,50.86971752574903,59.42152208804373,712.2513836705374,1046.707465816463,1042.2605775130485,118.0,740.1339469974073,860.6421656717789,0.859978718820605,1359.8179247603307,1347.981312,118.69600756008109,62.29959779187335,757.7366197879584,901.4588632771594,898.4951303702283,121.0,637.4276751839963,972.1998505400651,0.6556549816685323,896.4531123891891,716.1150719999999,27.928472367077898,75.0964867807685,408.8760871880549,516.121692025308,514.737641672668,185.0,364.95314834857015,517.4590893043246,0.7052792305556282,853.2343444897958,716.1150719999999,83.7854171012337,77.8481419488616,408.73703934175995,497.05370833987325,495.7776205417891,196.0,351.47004778104474,521.8872842062066,0.6734596883609314,895.4254203208556,716.1150719999999,28.487041814419456,75.94095908245392,478.75713273934565,630.2306441161718,628.5813579778477,187.0,445.6403621661108,599.2654821544686,0.7436443036297576,deceptive
1783333882066946695,1783333892066946695,1413.5081813333334,1516.4789759999999,40.69577402059923,59.34908042664551,691.211534050248,989.0852727876813,984.8344386744801,117.0,699.3889035599157,843.1929496840114,0.829452978493254,1336.4310689032259,1305.8568959999998,33.124467226069136,62.79958765490192,721.1306544319091,937.867104054606,934.0558966316238,124.0,663.1721891288013,905.6269459914737,0.7322796567219687,901.7830142608695,716.1150719999999,83.7854171012337,75.23053512005993,436.75445667753206,542.7890245460868,541.303962872452,184.0,383.8098000101694,554.8458610852651,0.691741304980534,864.208722,716.1150719999999,83.7854171012337,77.79936980325341,447.8193179736669,570.4546112065532,568.9593147652062,192.0,403.37232394328925,565.4464318033101,0.7133696514042233,901.4625024000001,716.1150719999999,83.7854171012337,75.70289135991278,488.63691005453916,626.1224626318286,624.4355121633317,185.0,442.73543918018675,616.0557809015829,0.7186612850743062,deceptive
1783333883066946695,1783333893066946695,1407.8050624537814,1516.4789759999999,35.60880226802433,60.861316122354204,715.9574723483162,1043.0813618100572,1038.7110757782925,119.0,737.5699042651901,867.8626173444153,0.8498694257877938,1315.3688609032258,1305.8568959999998,35.60880226802433,63.467093274246835,701.0764002456156,902.2265582935388,898.5525300039324,124.0,637.9705175359612,882.9003609355644,0.7225849549545279,881.4924088888889,716.1150719999999,83.7854171012337,76.75055275893075,435.9869799605751,508.73946274271265,507.3846776877213,189.0,359.733123962573,561.6630067508006,0.6404785781488719,854.3695655384614,716.1150719999999,83.7854171012337,78.93573259306834,527.327526988456,705.8082680439082,703.9868578021808,195.0,499.0818125513799,656.9682744468993,0.7596741455613762,895.7100283870968,716.1150719999999,83.7854171012337,76.31229927867462,492.18808847242997,621.7346353718987,620.0520363811653,186.0,439.6327767700151,622.7838627188667,0.7059154918541483,deceptive
1783333884066946695,1783333894066946695,1415.4517749152542,1474.3545599999998,32.37163842547666,60.37966387704407,718.4333475988665,1051.9228473766068,1047.4208358606675,118.0,743.8217786650603,869.2856438915809,0.8556701515685347,1334.8384942079997,1347.981312,33.91314501716602,63.166910348824246,712.416959089982,898.0481993562856,894.426158307653,125.0,635.0159715971981,901.9164069392835,0.7040740879214841,858.3676810052355,716.1150719999999,83.7854171012337,78.69815692553904,473.54465387197706,503.84534106791637,502.51890574918883,191.0,356.27245733837253,620.5030592128454,0.5741671246396929,827.6706862311557,716.1150719999999,83.7854171012337,80.40159248173744,513.7526789852241,699.9069824762746,698.1373357460858,199.0,494.9089735087878,636.7230043741379,0.7772751575000104,859.7309566010363,716.1150719999999,83.7854171012337,78.26935013970099,486.6830887582205,626.9528382345676,625.3235594622531,193.0,443.32260339981536,612.7425172320661,0.7235055360650193,deceptive
1783333885066946695,1783333895066946695,1406.743102386555,1474.3545599999998,45.94684163616042,59.41736667489586,706.7771269525873,1031.9013207713697,1027.5469018205758,119.0,729.6644214327903,856.0740215742347,0.8523380023739188,1309.5054674645664,1347.981312,26.37689056890691,64.8279716855086,706.7523473221694,906.276552657084,902.711746490678,127.0,640.8342960141914,890.8779172348984,0.7193289715870488,834.0211007035175,716.1150719999999,67.82629003433205,79.95866451798248,458.60519038124477,517.2750593376259,515.9687347223246,199.0,365.76870219630894,594.7638771277635,0.614981366996733,825.722383283582,716.1150719999999,44.5110028350304,80.93298503632361,535.9755421521297,726.8217422168183,725.011252501783,201.0,513.9405826353329,665.1857652797195,0.7726271508820007,846.7867297959183,716.1150719999999,38.49600245191819,79.41705173218035,491.065235581384,635.2410626169999,633.6279689736548,196.0,449.1832630646289,617.581840151171,0.7273258924755273,deceptive
1783333886066946695,1783333896066946695,1391.1766877288135,1432.2301439999999,35.60880226802433,60.485394407302074,732.5923294811515,1083.3881044215416,1078.7498074062119,118.0,766.0710752933114,883.1481168120753,0.8674321562940313,1324.39163904,1347.981312,45.94684163616042,63.30099005943262,699.8315375950161,916.9307587051313,913.2512465890638,125.0,648.3679573589243,877.1190671512717,0.7392017590778288,853.9375202461537,716.1150719999999,83.7854171012337,79.0485948040634,477.33697592455957,544.3250246825032,542.9204862829508,195.0,384.89591612253287,617.7610735921334,0.6230498044890639,828.4468479999998,716.1150719999999,83.7854171012337,80.93185123786199,541.7261042078567,736.3799019762912,734.5367660512859,201.0,520.6992222169207,671.8411299941304,0.7750332615412663,855.0822175670102,716.1150719999999,83.7854171012337,79.50333789936309,531.5809924053954,677.1917500104414,675.4350888153664,194.0,478.8468785959684,671.2000718138065,0.713418991899039,deceptive
1783333887066946695,1783333897066946695,1381.329808,1347.981312,89.0220056700608,60.14588125927891,713.0767478784575,1048.6380311472612,1044.223233509868,120.0,741.4990628343385,861.4211900329207,0.8607857241194645,1335.849480192,1347.981312,24.55779466760298,62.41959489936774,702.2283652582672,922.0113015903619,918.4076328280611,125.0,651.9604436851799,879.6153385892657,0.7411881251761702,892.312898064516,716.1150719999999,94.95680604806486,77.69173540656618,555.8299462388238,682.5500617838119,680.702832248503,186.0,482.6357771866304,708.1138408204123,0.6815793582391417,858.1221238762886,716.1150719999999,52.75378113781382,79.42461909692749,563.8984179589912,775.874241435778,773.8660263170801,194.0,548.6259374672072,696.7550802989673,0.7874014169108031,892.312898064516,716.1150719999999,94.95680604806486,78.00891616479191,574.1813363502449,755.819067134941,753.7735449346903,186.0,534.4447877212071,718.7160763922865,0.7436104538024816,deceptive
1783333888066946695,1783333898066946695,1330.2623116190478,1305.8568959999998,64.74327685095332,61.80448671162346,688.9340391702804,1036.9284654623473,1032.8095893539858,126.0,733.2191495337864,824.8969996511263,0.8888614576654865,1323.1822606451613,1369.04352,40.69577402059923,62.63505652846242,691.6954978474673,926.8072010421893,923.0325750809618,124.0,655.3516567094558,861.4768868106661,0.7607304000176709,910.4826219130434,716.1150719999999,83.7854171012337,76.24835384755882,524.3948568900284,618.1148495424452,616.4237406531302,184.0,437.07320166356556,674.1390361484839,0.6483428168774624,881.7305391157895,716.1150719999999,83.7854171012337,78.07853373974076,577.7443201905784,797.9603986744319,795.8466237899999,190.0,564.2432090210117,713.0159882932377,0.7913472043896986,900.6924861935482,716.1150719999999,83.7854171012337,77.48052285743293,575.6337790270635,762.975109003456,760.9102540117299,186.0,539.504873452889,719.1493175094081,0.7501986865833757,deceptive
1783333889066946695,1783333899066946695,1321.9042925714286,1305.8568959999998,41.89270855061685,61.40162490860395,655.4289948590335,965.1664789098552,961.3009549989335,126.0,682.4757622111015,791.3834415762274,0.8623831714899032,1358.9405096585363,1390.105728,22.60876334477735,63.59734405754165,756.469527940344,994.2988022351745,990.3975072289859,123.0,703.0754255861539,947.2775550877358,0.7422063594877806,915.2277487213113,716.1150719999999,41.89270855061685,76.49976592651181,570.022503939849,710.941916341732,708.9862400506528,183.0,502.71185007499787,723.5272682441187,0.69480705446665,890.8865851914894,716.1150719999999,83.7854171012337,77.69892011006878,586.7076722758883,814.2664637232516,812.0866433706872,188.0,575.7733381915011,722.976014075633,0.7963934169070062,895.6506845775399,716.1150719999999,41.89270855061685,77.87285695425741,574.3356879075955,757.6893886083545,755.6620958203235,187.0,535.7673047180567,718.4703629281838,0.7457055048652166,deceptive
1783333890066946695,1783333900066946695,1301.5449479055121,1305.8568959999998,34.74029489563348,61.948594388138524,652.4339976378756,947.2496961518513,943.5439333229488,127.0,669.8066836258707,791.8457841224737,0.8458802169012656,1385.5039010420169,1390.105728,31.652268682688288,60.84283977433662,765.4989621854538,1025.9280533544108,1021.5732106365259,119.0,725.4406835364181,953.3337451014313,0.7609514372736631,857.111821927461,716.1150719999999,83.7854171012337,78.59471287506526,459.64117986235357,628.2807604823702,626.6818046990917,193.0,444.261586226125,569.083341833546,0.7806617301338427,841.8532785527638,716.1150719999999,83.7854171012337,79.09115116158117,414.6284033470538,577.7445788713362,576.2838204091813,199.0,408.527109513688,510.28053668589973,0.8005931642365473,873.5854019685864,716.1150719999999,83.7854171012337,79.17472664209959,563.8754595879268,744.3178571899197,742.3565419041864,191.0,526.3122041772324,705.2721458543808,0.7462540627343892,deceptive
1783333891066946695,1783333901066946695,1277.9899746461538,1284.794688,56.97408362883891,61.44552401840425,609.9573275739539,897.403997487536,893.9477870503755,130.0,634.5604520873521,736.724099813266,0.8613271267333201,1382.0986076033057,1390.105728,34.74029489563348,61.13947186803801,759.1616479390732,992.569241527925,988.47375360824,121.0,701.8524414815839,952.0264652814586,0.7372194650850249,839.7364737286432,716.1150719999999,28.487041814419456,79.34463515191524,437.44364473216626,611.1007405651973,609.5960338320965,199.0,432.1134776417721,537.9152868745136,0.8033113915622493,818.2410951804878,716.1150719999999,79.13067170672072,80.27181862875422,397.64249596863647,552.9859858122203,551.6293107772013,205.0,391.02014046894897,489.6843208375737,0.7985147243434996,830.3931906534652,716.1150719999999,40.69577402059923,80.04795914485229,413.2820751788202,518.2673738361766,516.993535343946,202.0,366.4703745073039,523.8834599722177,0.699526521655672,deceptive
1783333892066946695,1783333902066946695,1260.8819556090223,1263.73248,67.82629003433205,62.66380581621556,605.8694849709098,907.6732577146407,904.2488938998425,133.0,641.8219156317073,726.7654229152992,0.8831211494035378,1442.3981064827583,1411.1679359999998,41.89270855061685,58.59751060517165,813.0666227297968,1055.2562697672518,1050.7708118477788,116.0,746.1788642420445,1021.6473057145023,0.7303683571310303,868.8979279585491,716.1150719999999,41.89270855061685,78.0573581222134,469.7976121051605,636.1313315938582,634.4862707599593,193.0,449.81277829524544,583.3128019515583,0.7711347612984508,831.1713127164179,716.1150719999999,41.89270855061685,78.7893835153085,362.19028189628756,489.90178798900246,488.6886161814658,201.0,346.412876402438,449.84737426322624,0.7700675745185876,842.7000004824121,716.1150719999999,41.89270855061685,79.14621339392929,410.173954526668,522.5708230471662,521.265202715477,199.0,369.51337262688656,517.895046963226,0.7134908410373819,deceptive
1783333893066946695,1783333903066946695,1283.8225860923076,1305.8568959999998,21.258986428671236,61.06082371706452,592.2373113282819,857.1349092928166,854.0020231514931,130.0,606.0859067526669,719.5971113592684,0.8422572814499119,1423.6624661694916,1390.105728,22.2555014175152,60.346499623010395,817.0187687872518,1026.191093281046,1021.7968212959175,118.0,725.6266808522646,1035.264360981743,0.7009095533474672,900.6924861935482,716.1150719999999,83.7854171012337,75.74399866264535,435.9902944312376,554.3210242271872,552.8210168321317,186.0,391.9641551853166,550.7786526377043,0.711654588114812,854.7387879183673,716.1150719999999,83.7854171012337,77.20080881009993,353.21734498904,458.3669878949854,457.1903813968142,196.0,324.11440541259634,443.84672095694543,0.730239495098211,877.1141488586386,716.1150719999999,83.7854171012337,77.6070717230899,453.6109586015481,591.6013689526645,590.0426359675334,191.0,418.3253397456738,569.2343617440571,0.7348912290958359,deceptive
1783333894066946695,1783333904066946695,1284.4706540307693,1347.981312,33.124467226069136,61.35192327618662,592.2147991376305,886.8581690099173,883.4145897755661,130.0,627.1034252575978,710.4979828615577,0.8826252014564698,1358.255559804878,1305.8568959999998,32.37163842547666,62.95705583855227,796.6725301683906,1001.9372407564053,997.8227303360637,123.0,708.4766172621927,1009.160384699167,0.7020456094036936,919.793566945055,716.1150719999999,83.7854171012337,75.14864930103697,470.0490586891375,614.6250624373532,612.925028278063,182.0,434.60554953665763,589.4499497879852,0.7373069582803046,867.3700993989638,716.1150719999999,83.7854171012337,76.63714221286496,369.82351492524174,468.9372816326924,467.7260744978156,193.0,331.58873179366265,467.50756235279897,0.7092692364694482,885.7271385396825,716.1150719999999,83.7854171012337,77.04264333502213,451.596819873594,592.1983530943567,590.6214274859364,189.0,418.7474712805251,565.8662855197945,0.7400113454291967,deceptive
1783333895066946695,1783333905066946695,1229.0968490666667,1263.73248,89.0220056700608,64.06171973246913,571.6088275907173,809.9983707290394,806.9713085312791,135.0,572.7553406925589,699.6062917193814,0.8186823753184547,1328.9250285714284,1263.73248,54.78277272003742,63.99802382320668,786.8246840618655,963.104791978908,959.2461168836448,126.0,681.0179294015451,1003.1417929759107,0.6788850132355108,882.6068114285713,716.1150719999999,83.7854171012337,76.81410770597094,419.2291481221611,523.5936089845762,522.1992641435409,189.0,370.2365914989315,531.9479207855713,0.6960015765305984,846.7649104568527,716.1150719999999,83.7854171012337,77.8129330918123,353.9245234645564,465.0347960363996,463.84701554510735,197.0,328.8292577650412,443.238983211171,0.7418780166463338,859.8592131958762,716.1150719999999,83.7854171012337,78.08457339520646,418.9133420704789,560.4206161738427,558.9669063604865,194.0,396.27721801326754,521.9760143638294,0.7591866428886387,deceptive
1783333896066946695,1783333906066946695,1222.2230189781021,1263.73248,50.86971752574903,64.6759780134659,569.069188508268,813.112230116594,810.1182788282102,137.0,574.9571717811601,694.5441727691782,0.8278194452179773,1353.4167205161289,1390.105728,178.0440113401216,64.59058049043117,799.5608073004719,986.6379037291033,982.619234087208,124.0,697.658352302529,1017.463208609149,0.685684107689961,866.7153157305698,716.1150719999999,83.7854171012337,77.70477478951443,410.27583446379896,512.5909670182124,511.2649440122095,193.0,362.45654875354796,520.5431258049294,0.6963045534278681,840.5831956582914,716.1150719999999,83.7854171012337,78.38055990594037,362.57305563905396,467.0650211832406,465.9338111348598,199.0,330.26484373370795,456.4876864140541,0.7234912431660718,821.950047522388,716.1150719999999,83.7854171012337,79.34258890721529,325.5895672966965,418.13020833988736,417.19125006812817,201.0,295.66270573607824,410.25469513865494,0.7206808581097464,deceptive
1783333897066946695,1783333907066946695,1210.6981433093526,1221.608064,64.74327685095332,66.62397909216175,602.9878059265745,828.657735157141,825.6535044552278,139.0,585.9495038123006,745.3322599239536,0.7861587849049833,1342.2523914239996,1347.981312,61.928351770477086,64.70878360844834,793.4746250501568,992.5138653421559,988.5205617236065,125.0,701.8132846051103,1006.4457352350731,0.6973185538326013,849.6170673230769,716.1150719999999,61.928351770477086,78.5088579791289,389.53686869997983,476.1185933660911,474.9010672898007,195.0,336.6666860181634,496.79544625121554,0.6776766746930294,830.7521642985075,716.1150719999999,36.52184848002495,79.06615976623839,360.45799033104606,448.26754050360734,447.1740391014483,201.0,316.9730176759161,457.847112713081,0.6923119287519752,830.3931906534654,716.1150719999999,36.52184848002495,78.96418315471682,338.0591573260888,423.667829266972,422.63553063899565,202.0,299.5783950452603,428.5958239590109,0.6989764675679871,deceptive
1783333898066946695,1783333908066946695,1236.8976668444445,1221.608064,89.0220056700608,66.15979464528804,641.7976111899311,902.8125581112009,899.4430396654504,135.0,638.3848819808042,787.4266433690069,0.8107229890640641,1362.8284422295078,1432.2301439999999,158.26134341344144,63.97202096447812,775.0332882678765,975.2118916847573,971.250164306073,122.0,689.5789417040528,981.6280545225844,0.7024849570333745,856.1678983917524,716.1150719999999,61.928351770477086,78.1613184783798,398.1814841983929,501.48836751141073,500.1905352608575,194.0,354.60582535349005,504.20664714931627,0.7032946260394634,837.5950797575757,716.1150719999999,83.7854171012337,78.95758331618923,384.958987357782,503.8423915410621,502.5621587460282,198.0,356.2703717079326,482.62050828430785,0.7381998186825012,842.4883199999999,716.1150719999999,61.928351770477086,78.291643394006,350.77297778384275,450.29465908800614,449.1544480362059,198.0,318.4064069732138,442.03172271443657,0.7203247880444821,deceptive
1783333899066946695,1783333909066946695,1196.3334144,1095.234816,24.141560859677504,69.03438785270433,654.1088003691405,910.5735963642403,907.3947246792554,140.0,643.8727647585765,805.2518716785361,0.7995917642717587,1350.6990162580646,1495.4167679999998,34.74029489563348,62.52169933991817,713.8600901640013,960.7570527615369,956.8450980501223,124.0,679.3578270804843,887.935204871478,0.7650984253730724,859.6420770309279,716.1150719999999,83.7854171012337,77.75727283638537,392.34639899852806,486.4296615062458,485.1680408124501,194.0,343.95771222134334,498.7162918092351,0.6896861359261776,864.0961810569949,716.1150719999999,83.7854171012337,77.80202058118519,425.6987135274046,541.9983932763115,540.5852745811526,193.0,383.2507392778931,537.5855511630208,0.7129111607422532,868.596682,716.1150719999999,83.7854171012337,76.9817455764886,384.9348850930105,500.98310455420943,499.67010405278717,192.0,354.2485504901706,483.32568084154695,0.7329396399408521,deceptive
1783333900066946695,1783333910066946695,1192.8179955107914,1053.1104,47.47840302403243,69.63512411683126,664.0934599365374,939.4783953259548,936.0902476908439,139.0,664.3115441132387,813.2560071957079,0.816854149536425,1347.9813120000001,1474.3545599999998,44.5110028350304,63.09008990010107,717.3935056828302,978.2582805180738,974.2584583226513,123.0,691.7330639062218,888.8529507974068,0.7782311610549922,877.9615124210526,716.1150719999999,28.487041814419456,76.93006784093501,414.4275151678287,520.5837560132252,519.2633223584437,190.0,368.10830405251465,525.1175762628333,0.7010016817038859,877.9615124210526,716.1150719999999,28.487041814419456,77.04661429233778,437.82620751902215,557.3935204315919,555.9717078926087,190.0,394.13673808662105,552.912010925969,0.7128380832721559,877.9615124210524,716.1150719999999,28.487041814419456,76.67168670558183,402.0779644076644,522.5562869048823,521.2304068220442,190.0,369.5030940221054,505.0416920200427,0.7316288929418555,deceptive
1783333901066946695,1783333911066946695,1192.5149421582732,1053.1104,38.49600245191819,70.70911716561983,679.5925293659077,964.2836364818407,960.7852484856543,139.0,681.8514983435333,831.403198841118,0.8201213313756276,1356.2680823606554,1474.3545599999998,43.162184567302205,62.06824737289219,712.3193307525013,974.7715615694943,970.7442123836962,122.0,689.2675812935896,881.6193955535604,0.7818198927676779,859.2078047010309,716.1150719999999,83.7854171012337,77.77063639588084,395.0042478718248,511.768082635236,510.4883179999307,194.0,361.8746816262128,496.5682924558671,0.7287510844409678,872.7032152460732,716.1150719999999,83.7854171012337,77.25312095160568,431.00517652448036,551.2907822983198,549.8385054290861,191.0,389.8214505687786,543.645603973787,0.7170506810307521,891.3706637005347,716.1150719999999,83.7854171012337,75.71500253405027,403.60836373792773,519.3796800264168,517.9927561895797,187.0,367.2568937571786,508.2918546979963,0.722531534516495,deceptive
1783333902066946695,1783333912066946695,1187.9691418705036,1010.9859839999999,118.69600756008109,71.12261002640955,711.4887048884236,995.1032345283818,991.5363874802307,139.0,703.6442451156862,874.5711763632511,0.8045591532545879,1312.877632,1474.3545599999998,33.124467226069136,62.77236652213782,627.0003884834236,848.6368390839406,845.2387671539224,126.0,600.0768636809713,778.5967204876558,0.7707158890999788,851.3000600816324,716.1150719999999,56.97408362883891,77.9925838865472,376.77734454953196,504.97326830480415,503.6805530997786,196.0,357.0700223362609,469.22578180017405,0.7609769884475867,868.3772839999998,716.1150719999999,28.487041814419456,77.75724301631176,436.5954545770352,555.7764108438083,554.3703058809375,192.0,392.99326893117745,551.3704083481898,0.7127572734788528,883.0525724444444,716.1150719999999,54.78277272003742,76.56305286952541,417.22247878353795,531.1549912962477,529.7452001869865,189.0,375.58329620665836,526.8944746434815,0.7128245109436637,deceptive
1783333903066946695,1783333913066946695,1225.9444009411764,1074.1726079999999,43.162184567302205,69.27972629050647,720.5757177085346,996.652541228073,992.9614342876874,136.0,704.7397703891755,888.8923770166136,0.7928291305123925,1321.5699718095236,1474.3545599999998,33.91314501716602,62.2090526867628,624.5045841266057,859.2628133529735,855.8205190916226,126.0,607.5905621433183,771.6403343446173,0.7874012478357129,853.3451282474225,716.1150719999999,83.7854171012337,78.35675712192612,420.119851867053,571.0474352795968,569.5661164801764,194.0,403.791513865389,521.0351106506525,0.7749794699269817,851.5149805714285,716.1150719999999,43.162184567302205,78.23353243763248,401.09332565930805,518.9953013273939,517.6774372749496,196.0,366.9850969725558,504.3933792952772,0.7275771491792696,883.0525724444444,716.1150719999999,83.7854171012337,76.10909453925885,400.508963547732,505.17191842155415,503.8377950301454,189.0,357.2104891808983,506.9666586411069,0.70460351404248,deceptive
1783333904066946695,1783333914066946695,1214.8435592408757,1010.9859839999999,54.78277272003742,69.77802868118245,727.6327828800064,985.3766052267322,981.7511708475288,137.0,696.7664795784019,903.4141740704343,0.7712591849639042,1301.8766362204722,1432.2301439999999,29.06841001471373,61.91117452789225,600.2845545280743,828.7532558123361,825.4580688903062,127.0,586.0170471153324,740.9285411259647,0.7909224906153319,851.9448215510203,716.1150719999999,64.74327685095332,77.64823216147211,375.92744005336203,502.55991824206706,501.2719275731542,196.0,355.3635261415225,468.509618379687,0.7584978241653317,853.0734296615385,716.1150719999999,29.06841001471373,78.11675289182647,400.7779147643551,512.974206639792,511.69757818300843,195.0,362.7275400887862,505.43074674607834,0.7176602183859933,914.0072460659339,716.1150719999999,16.95657250858301,74.6761194381625,448.30703281032027,543.5355590290965,542.2562412126567,182.0,384.3376796054951,572.8007204535614,0.6709797419618547,deceptive
1783333905066946695,1783333915066946695,1259.6150558796992,1053.1104,37.48294975581508,68.10876018625905,763.0441894201999,1012.9845752002161,1009.1426900795159,133.0,716.288262361447,952.8580338211298,0.7517261091759955,1294.6675979999998,1369.04352,71.21760453604865,61.26606689902063,585.688031409876,818.0927117200272,814.9303799442579,128.0,578.4789040965226,720.2374740536588,0.8031780141079204,856.529792,716.1150719999999,79.13067170672072,77.35185898931275,378.12121107960655,508.9818043403953,507.66871864344466,195.0,359.90448534965805,470.30381802534373,0.7652595440555482,852.1597420408164,716.1150719999999,79.13067170672072,77.95195603870822,392.2343317680591,515.0911521945327,513.7691167663165,196.0,364.22444664594605,491.2899533552452,0.7413635148825855,929.5611351955306,716.1150719999999,79.13067170672072,74.04054640541389,465.97728720207203,597.8877097686711,596.2059314365968,179.0,422.7704539655218,587.2837780862825,0.7198742239112371,deceptive
1783333906066946695,1783333916066946695,1274.4256009846151,1053.1104,27.39138636001871,67.37575701314087,772.3369731432236,1020.069434603269,1016.1837500940172,130.0,721.2980144890989,965.8537090652574,0.746798410275986,1250.1133079097744,1263.73248,52.75378113781382,62.77509259620233,569.8378949440936,822.2602589554746,819.1399640580423,133.0,581.4258050076227,693.1107196287262,0.8388642514706323,874.6881353717275,716.1150719999999,41.89270855061685,76.03914852611089,366.4479880175931,483.9676392780032,482.7070747136513,191.0,342.21679960832097,458.27075717004163,0.7467567900723397,846.9560610909091,716.1150719999999,83.7854171012337,78.11018164302816,376.49448271413803,484.81356217246446,483.58169448660954,198.0,342.8149574233555,474.06238356547993,0.7231431332834366,934.5467347415728,716.1150719999999,83.7854171012337,73.66130413548167,461.76348906715475,589.7885703894344,588.1758035768682,178.0,417.0434975886885,582.6563311510838,0.7157624062280178,deceptive
1783333907066946695,1783333917066946695,1306.5202726299215,1095.234816,158.26134341344144,65.64286493342374,778.5646536279982,1055.3413531086678,1051.2030443902663,127.0,746.2390272497257,966.3795821841751,0.7722007387232914,1286.5906902325582,1347.981312,178.0440113401216,61.843730350031045,622.7616177816401,860.8947072147969,857.5254959752972,129.0,608.7444853591902,768.3613348785834,0.7922632981725767,868.0248830673575,716.1150719999999,83.7854171012337,76.09288188575037,340.6514066923376,446.01511513533654,444.85864751135904,193.0,315.38031242389525,427.02973085095596,0.7385441566221319,823.5114791287128,716.1150719999999,83.7854171012337,78.86011288082771,320.9201174544611,397.73569319443175,396.7450672646868,202.0,281.2416057777149,407.9595852088248,0.6893859489384322,909.0126709508197,716.1150719999999,83.7854171012337,74.55404439709609,428.09273869643675,553.1836284003788,551.6617998543164,183.0,391.15989488328705,538.5385354519018,0.7263359428031544,deceptive
1783333908066946695,1783333918066946695,1288.5499653953486,1095.234816,89.0220056700608,65.18103599813429,743.0515268212638,978.4098196954267,974.5824126933364,129.0,691.8402182861435,930.0159671767541,0.7439014411616611,1243.1383210666665,1221.608064,49.11558933520596,63.65121715395137,614.0283843791636,839.0296277875567,835.9081900508784,135.0,593.2835394250063,760.3085127566574,0.780319474885179,860.0401599999999,716.1150719999999,49.11558933520596,76.65343245337958,333.87484820856275,433.3847675887497,432.25979139607296,192.0,306.44930802496077,419.5107142113214,0.7304922082886115,827.6822133861385,716.1150719999999,83.7854171012337,78.54426675083062,311.14359644011256,409.93902466629646,408.97299389376076,202.0,289.8706642145376,389.368943580875,0.7444627235770518,914.7673725901636,716.1150719999999,83.7854171012337,74.32354347925522,432.2700529633236,552.4208491915722,550.9013135620551,183.0,390.6205285321918,545.3646474813386,0.7162556838551919,deceptive
1783333909066946695,1783333919066946695,1351.7181553548385,1347.981312,64.74327685095332,62.37068554937276,753.0467605479653,1019.6792624255713,1015.5278444019947,124.0,721.0221210964186,934.9986083349963,0.7711478013645202,1234.4968778507464,1200.545856,142.4352090720973,64.50888348203104,617.0325641590715,820.6320085841337,817.5411049135447,134.0,580.274458128578,770.1293054333344,0.7534766616913385,900.2395354838709,716.1150719999999,83.7854171012337,74.95011169855836,402.1563086904187,526.4360897657325,525.0114109830783,186.0,372.24652893467953,504.15836211159694,0.7383523847062199,842.0628208484846,716.1150719999999,25.89731074038133,78.15985159577922,363.58363941253043,470.0347335092361,468.9143951193488,198.0,332.36474745759256,457.33244256300827,0.7267464901351308,929.1036922247191,716.1150719999999,61.928351770477086,73.67776712413308,444.35501269186364,549.8289220883644,548.2760640360028,178.0,388.7877593011724,565.0883061235292,0.6880123957408222,deceptive
1783333910066946695,1783333920066946695,1336.860466176,1305.8568959999998,52.75378113781382,62.50423981803935,760.0141857656783,1025.226822699237,1021.0844751623647,125.0,724.9448385849687,944.7066294012343,0.7673756233132892,1250.430032842105,1221.608064,30.305363632361125,63.57700015804082,619.2599242167416,812.3849689643738,809.3663290604197,133.0,574.4429204887316,775.8694304018155,0.7403860726813698,930.2475199999999,716.1150719999999,79.13067170672072,73.30553700367258,428.3356183371392,550.7120150075931,549.172012602868,180.0,389.4122002927768,539.5571081953121,0.7217256419719246,881.2871242105263,716.1150719999999,40.69577402059923,76.66475108722155,443.5417970276917,591.3392009105007,589.7895821750793,190.0,418.1399589452493,553.2071391330202,0.7558470044340957,970.5859592982455,716.1150719999999,26.37689056890691,72.4242665147944,512.5543697773539,654.0515738947573,652.1966557338513,171.0,462.4843031467172,646.8988318332076,0.7149252408388354,deceptive
1783333911066946695,1783333921066946695,1331.933915428571,1284.794688,52.75378113781382,62.96895176615302,757.3938535626249,1040.4065608381773,1036.2400849006533,126.0,735.6785343596495,936.3116179296853,0.7857197542697768,1256.3926196363636,1221.608064,33.91314501716602,65.32269294109089,662.2416589522293,881.9862938131746,878.6206049397301,132.0,623.6584892688865,826.228221549607,0.7548259342911368,940.9363933483146,716.1150719999999,83.7854171012337,72.77178370709876,434.80295592310426,549.932096705017,548.3766223765771,178.0,388.86071477225374,550.0008120106222,0.7070184375741315,876.8936021780104,716.1150719999999,83.7854171012337,76.7614761561426,433.81137639553583,575.251526306486,573.7358807210255,191.0,406.7642551392279,541.9003976293919,0.7506254967124342,962.5671150344825,716.1150719999999,83.7854171012337,72.87578738210092,509.75760039397437,650.9105699194171,649.0267817526478,174.0,460.26327793602013,643.2608178729998,0.7155157987982579,deceptive
1783333912066946695,1783333922066946695,1347.644316672,1390.105728,109.56554544007484,62.00216687093627,732.4448539678903,987.6621978969508,983.7608455119348,125.0,698.3826376545438,910.5392764287708,0.7669989156246755,1354.096146580645,1347.981312,22.97342081808021,62.0757579583467,768.1200797766968,1011.9811044178824,1007.8703692951659,124.0,715.5787013665363,961.2442327460847,0.7444296433615726,905.561094227027,716.1150719999999,40.69577402059923,74.81074976465972,417.6834328674592,517.9778385053925,516.5797867594374,185.0,366.2656421115134,530.8894799185712,0.6899093991609928,859.1220637538462,716.1150719999999,83.7854171012337,77.71618242331313,421.92319322952494,556.6013820661483,555.1651588607554,195.0,393.5766116767779,527.8134967396263,0.7456736406097089,930.7155690666666,716.1150719999999,83.7854171012337,74.2154709784054,477.3045407274197,603.6068686371474,601.9288052831212,180.0,426.8145099841045,603.7830208208413,0.7069004845546193,deceptive
1783333913066946695,1783333923066946695,1260.5652306766917,1221.608064,24.55779466760298,66.9102333016177,705.898241417132,941.6212883152432,938.1481242584852,133.0,665.8267982773216,880.2965362986978,0.7563664865442531,1280.4536222290076,1263.73248,29.67400189002027,66.93586837126283,721.0477858871695,957.8607011117178,954.2258488035659,131.0,677.3097971881965,900.2474872955886,0.7523595530634429,890.8865851914893,716.1150719999999,83.7854171012337,75.53092455732099,403.73577810295586,506.7557004416158,505.39912317744177,188.0,358.33039218720523,511.6686643310105,0.7003172505310836,867.8066218445593,716.1150719999999,83.7854171012337,77.34717479303609,429.4388264920382,569.0244559850375,567.5408565794078,193.0,402.3610514880062,536.5521442697352,0.7499011154556703,897.0688805161288,716.1150719999999,83.7854171012337,76.1208147643617,460.3962219680442,575.8687678835076,574.3167567751395,186.0,407.20071084397017,583.9718768476612,0.6972950701702973,deceptive
1783333914066946695,1783333924066946695,1256.7117439999997,1179.483648,45.94684163616042,67.17658491501919,720.4837950727768,995.6146944550485,991.982700346393,132.0,704.0059018981374,889.034106753637,0.7918772705682332,1289.2030571162788,1263.73248,34.74029489563348,67.32803803976,731.4459876749183,986.1779175818116,982.3183271248141,129.0,697.3330929785271,909.334781304429,0.7668606846624868,892.5393734193548,716.1150719999999,89.0220056700608,75.38702299571649,401.0458461190011,489.49505491379364,488.18564933875155,186.0,346.1252726868249,511.63872916575286,0.6765032687247814,876.6730554973822,716.1150719999999,41.89270855061685,76.96341420192294,438.5713462639325,571.4115515035719,569.9058962233746,191.0,404.0489829165018,550.5105459749038,0.7339532110160906,885.950019047619,716.1150719999999,28.487041814419456,76.49727749343978,428.396236982593,520.6811901499807,519.3537667130455,189.0,368.17720039133354,547.0552497487726,0.6730164833632686,deceptive
1783333915066946695,1783333925066946695,1252.415472716418,1179.483648,49.11558933520596,66.67886412673536,693.0832918003738,998.7478953635768,994.9902028881647,134.0,706.2214095073775,843.418377273338,0.8373322523401725,1304.2241666976743,1263.73248,54.78277272003742,67.62857169767516,784.7687107920151,1040.6174213638349,1036.5450093045054,129.0,735.8276352672265,980.3074540494139,0.7506090382437671,934.0324419217877,716.1150719999999,83.7854171012337,73.36356681878453,442.8596940942308,559.0025917723573,557.4414509587433,179.0,395.27452334308913,560.4716254231058,0.70525340697612,894.0738347807486,716.1150719999999,83.7854171012337,76.03555257689014,451.1060162995217,586.397997471824,584.8197097276194,187.0,414.64600048653875,566.5929959181523,0.7318233784634303,866.2787932849741,716.1150719999999,83.7854171012337,77.27639708909588,402.4783541194009,500.0787907315183,498.7749951103878,193.0,353.60910405382504,511.3295921755842,0.6915482879629624,deceptive
1783333916066946695,1783333926066946695,1245.813885134328,1179.483648,129.48655370190664,67.41871350764336,677.7290615792,969.3072381046343,965.7236638501715,134.0,685.4037211169904,826.8882822712736,0.8288951915418883,1341.1870513548388,1369.04352,33.124467226069136,65.74068029137179,793.5009713609959,1065.8706263348881,1061.5290316551495,124.0,753.6843477489521,987.5563452688693,0.7631811099788499,931.70688647191,716.1150719999999,83.7854171012337,73.49194472464394,438.48509225956354,549.7672774111197,548.2120627609355,178.0,388.7441699318686,555.8572995290672,0.6993596562664914,926.501820067039,716.1150719999999,83.7854171012337,75.19931653056774,516.9493025872194,633.2529993667763,631.4716934488857,179.0,447.77749005896794,658.9543402915491,0.6795273400291322,863.223136165803,716.1150719999999,83.7854171012337,77.45681506443785,405.96277147946154,507.9040183004572,506.57967237452254,193.0,359.14237553214963,514.8979711584939,0.6975020210782688,deceptive
1783333917066946695,1783333927066946695,1244.242078567164,1179.483648,39.56533585336036,68.36441698296588,692.8424813191912,985.7904222252823,982.0807194031943,134.0,697.059092384247,846.8268528473176,0.8231424051333507,1328.7725783040005,1347.981312,34.74029489563348,65.34420707895822,731.3696532037633,1000.004139022463,995.9767373221749,125.0,707.1097079173986,905.4286662897698,0.7809667776645124,941.254606101695,716.1150719999999,79.13067170672072,74.2351014750142,538.9880850281821,685.0993067964625,683.1506067729757,177.0,484.43836562198163,680.9376231061443,0.7114284028134359,920.4533993370167,716.1150719999999,79.13067170672072,76.20742347868912,549.0464448120571,681.4283922031303,679.5332619433168,181.0,481.84263701987976,697.7233217374798,0.6905927063180128,863.223136165803,716.1150719999999,79.13067170672072,77.42597763978725,404.09167494189774,496.26507361441026,494.98055981802725,193.0,350.9123988187907,514.7916157945054,0.6816591180825834,truth
1783333918066946695,1783333928066946695,1215.151036729927,1179.483648,142.4352090720973,69.9194538527407,675.9988439872608,934.9057244013474,931.4626928563285,137.0,661.0781774943142,833.9284716116987,0.7927276738935128,1430.414436413793,1516.4789759999999,29.06841001471373,60.39853163489263,744.6748129529323,1066.7019782361472,1062.0540803910394,116.0,754.2722023158847,908.0847298020939,0.8306187490679082,932.1801945168538,716.1150719999999,83.7854171012337,75.94032305607938,673.1871661787299,833.7268814588666,831.3782293339456,178.0,589.5339315370775,855.9128420573651,0.6887779953388825,873.9108573405406,716.1150719999999,83.7854171012337,77.95497854367179,480.9048582063829,600.4891841814265,598.861498428509,185.0,424.60997416386436,610.2394204025858,0.6958088251390604,858.7735323711339,716.1150719999999,83.7854171012337,78.40084050965854,447.32652228029445,535.5104249612928,534.3096699236336,194.0,378.66305288621993,573.157204665709,0.6606617692384644,truth
1783333919066946695,1783333929066946695,1254.158749090909,1200.545856,18.029773300265482,67.96594369872216,714.8862415054883,962.1756377186094,958.615320669344,132.0,680.3609181233196,889.2014322598022,0.7651370020786643,1358.5980347317072,1474.3545599999998,94.95680604806486,64.41246165726982,746.8671925984546,1060.781793053049,1056.4267918953415,123.0,750.0859992270358,913.4039104588854,0.8211985854649996,898.2747087567567,716.1150719999999,83.7854171012337,77.25325998881935,602.750301025766,726.0391404653801,724.0635562876827,185.0,513.3871996299225,771.2539415791507,0.6656526105769479,847.8613322448979,716.1150719999999,83.7854171012337,78.85497404818808,440.2551698402614,557.1304839678421,555.7001500813219,196.0,393.9507432194042,556.8219060890065,0.7074986434826654,834.0634367999999,716.1150719999999,83.7854171012337,79.27378854449086,412.92769481029615,570.0999542044702,568.665895803223,200.0,403.1215435721211,509.67153426172956,0.7909438068893754,truth
1783333920066946695,1783333930066946695,1276.6938387692308,1242.6702719999998,44.5110028350304,66.21032453999928,681.7392572682106,929.7238980519752,926.1135364461794,130.0,657.414072943742,844.6538925198788,0.7783236172421591,1366.9718274098361,1474.3545599999998,31.652268682688288,64.1669198308163,746.625362726307,1083.2602136239188,1078.7755436032417,122.0,765.9806428430611,906.3860611942598,0.8450931403708927,872.0415752041885,716.1150719999999,83.7854171012337,78.11887587488535,525.1209235914282,639.9483217840298,638.2706893694958,191.0,452.51179794243825,670.1645358779291,0.6752249242040816,813.3729148235293,716.1150719999999,83.7854171012337,80.01407274720553,359.8449080773447,469.00272983889636,467.8461245521051,204.0,331.63501066408594,451.6479000164853,0.7342777651617136,812.4875164097562,716.1150719999999,83.7854171012337,79.8899499554419,331.2946377874657,433.39477738034435,432.3314275629187,205.0,306.4563860164756,415.39681725828933,0.7377437026098452,truth
1783333921066946695,1783333931066946695,1311.451545,1326.9191039999998,79.13067170672072,64.14434308530802,686.6291222494449,925.3303575692179,921.6801846504386,128.0,654.3073706749668,853.7330000546377,0.7664074958249149,1324.9131794285715,1411.1679359999998,45.94684163616042,64.96313198644816,711.6031030275448,1025.298470840672,1021.1917662224165,126.0,724.995501471637,865.9957932344739,0.8371813202045657,881.2871242105263,716.1150719999999,83.7854171012337,77.93541511870944,540.8967461479504,661.5878789703181,659.8353628614581,190.0,467.81327557073683,689.7201965919002,0.6782652992943119,820.8066352941175,716.1150719999999,83.7854171012337,79.81140922800353,375.6215489673005,500.9279737237944,499.69268083935356,204.0,354.2095671061317,468.4558542514242,0.7561215510309846,820.8066352941175,716.1150719999999,83.7854171012337,79.55739821456623,345.9163071408633,463.92744982199866,462.7834071809042,204.0,328.046245747717,430.7075729742378,0.7616449450433477,truth
1783333922066946695,1783333932066946695,1334.8384942080002,1347.981312,32.37163842547666,63.487737595602376,719.8306062629459,955.8083428345957,952.0250292721922,125.0,675.8585607330191,898.8435939404067,0.7519200952082755,1307.173284,1453.292352,129.48655370190664,64.34909384111847,643.7057725334681,967.3517706180569,963.5979417840572,128.0,684.0209967968417,771.2145493676487,0.8869399538140188,914.9975606557376,716.1150719999999,40.69577402059923,75.92902395377612,557.89002750326,695.4596764634831,693.5467888521245,183.0,491.7642532691313,708.2136154992385,0.6943727746923839,841.4299175879396,716.1150719999999,54.78277272003742,78.63589600958527,393.39905551179413,528.9884225163055,527.6560919609648,199.0,374.0513007304542,489.4572973876996,0.7642164142343306,849.9723532994923,716.1150719999999,36.52184848002495,78.09265490086871,379.7971142261943,509.9473860272192,508.670989347247,197.0,360.58725470820076,472.73683146132305,0.7627653076946728,truth
1783333923066946695,1783333933066946695,1324.0997533228349,1347.981312,118.69600756008109,63.175839995560224,698.8283478082913,949.0954897308364,945.3333222493536,127.0,671.1118567822417,866.9063139948158,0.774145770942274,1332.602556952381,1474.3545599999998,30.964175885238543,61.94638488771627,633.5288807740958,948.9295530952287,945.127714919993,126.0,670.9945218619562,760.0005666875384,0.8828868704486433,891.8211922139037,716.1150719999999,83.7854171012337,77.36298867801241,554.7530101311052,699.6177395765764,697.7345120971682,187.0,494.70444789300115,702.2361135091847,0.7044702463689668,833.85281472,716.1150719999999,83.7854171012337,78.9320193373829,385.62132780498155,514.1417366524712,512.8482962721874,200.0,363.5531084779905,480.9596506716018,0.7558910772875286,858.6900184615383,716.1150719999999,83.7854171012337,77.75403765128432,400.01796741065846,536.2505464620526,534.8667158516878,195.0,379.1863978183092,498.1341047925716,0.7612134848229405,truth
1783333924066946695,1783333934066946695,1310.1688440944883,1305.8568959999998,39.56533585336036,63.03085417430171,677.1558161207099,933.991360497635,930.3317271730971,127.0,660.431624577527,836.0592283093068,0.7899340168914385,1332.142531584,1390.105728,43.162184567302205,62.75144230259295,649.5701091888357,975.5257955226697,971.5902000284167,125.0,689.8009052364811,778.4407550164992,0.8861315402504338,856.6021707216494,716.1150719999999,28.487041814419456,78.34843473343243,426.8728521290501,560.7038857428278,559.2957781603982,194.0,396.47751984640064,534.6434811141003,0.7415736539426483,802.3891163076922,716.1150719999999,83.7854171012337,80.0614685134119,312.3827134835859,433.10547349792444,432.07358565177105,208.0,306.25181727939287,385.0595169233854,0.7953363150879537,835.6803335757576,716.1150719999999,28.487041814419456,78.66844431462157,355.2234973751856,479.18638849921285,478.01760808697986,198.0,338.8359447600849,441.5456572588925,0.7673859751301199,truth
1783333925066946695,1783333935066946695,1332.4795269119998,1305.8568959999998,33.124467226069136,63.11085072404685,739.0585591299813,963.9945934284691,960.1001907542795,125.0,681.6471140404393,927.41237516368,0.7349989414580915,1324.5788586666663,1474.3545599999998,33.124467226069136,63.98569617371166,648.3670032155221,997.7912595518917,993.8505873060423,126.0,705.5449658378092,769.3261287047361,0.9170947658123726,846.9560610909092,716.1150719999999,12.070780429838752,79.2925515835834,467.33440064370467,586.2400998351188,585.1649126888794,198.0,414.53434999689114,592.3542186786119,0.6998082176600504,794.7739341042655,716.1150719999999,83.7854171012337,80.22033092904434,266.2640819387148,354.2640384651017,353.4197738143524,211.0,250.50250392920535,332.2910929048994,0.7538646363924606,834.3149258507462,716.1150719999999,83.7854171012337,78.64796827291146,346.2595329463052,462.0290114966863,460.8726840179665,201.0,326.7038471342242,431.76802388115266,0.7566652208227255,truth
1783333926066946695,1783333936066946695,1353.756433548387,1305.8568959999998,24.141560859677504,62.5437495114879,762.5714965265746,966.5077636385246,962.6997605745911,124.0,683.4241937382455,964.1038638736875,0.7088698835748932,1322.7730000629922,1432.2301439999999,33.91314501716602,64.27027750950666,670.8965161232359,1037.2114079488672,1033.0881561151427,127.0,733.4192200846906,794.5139359997235,0.923104286599884,872.545846,716.1150719999999,83.7854171012337,78.54195934860635,538.7599142758902,760.9442924680561,758.9498057030372,192.0,538.068869309362,660.1253187094111,0.8151010937761369,813.2466137475728,716.1150719999999,83.7854171012337,79.33837194130194,300.43596044458485,413.4279852582424,412.41859636486987,206.0,292.3377319083952,371.20460383439206,0.7875380016537127,863.550528,716.1150719999999,83.7854171012337,77.63694039628275,432.55643824878797,594.688711371435,593.1462268293639,194.0,420.5084205058312,534.5993627781468,0.7865860862994293,truth
1783333927066946695,1783333937066946695,1324.5788586666665,1263.73248,34.74029489563348,63.36765476028251,742.5100653660259,943.1496792192169,939.4103668724124,126.0,666.9075338498253,938.2214903672224,0.7108209955719474,1326.9191039999998,1411.1679359999998,44.5110028350304,63.31406117277976,663.1137742270228,997.4635222105735,993.4862895822178,126.0,705.313220541315,794.1702497601084,0.8881133746251083,932.6204503240222,716.1150719999999,29.67400189002027,76.08135573725639,618.7416378216401,857.7649841047823,855.387789297022,179.0,606.5314369248628,762.7202873657825,0.795221324215262,842.276639517588,716.1150719999999,44.5110028350304,77.8048817085447,335.0349223123441,457.1110815418518,455.96964365491885,199.0,323.22634551376024,415.0411583452737,0.7787814268889147,906.0164933189188,716.1150719999999,89.0220056700608,76.59044056837055,570.1550906153105,791.053737946759,788.9012399971897,185.0,559.3594623851195,702.6465332079999,0.7960751757093434,truth
1783333928066946695,1783333938066946695,1313.154038929134,1095.234816,67.82629003433205,64.26711601048943,771.7171712490704,1004.6958961568783,1000.7091074362419,127.0,710.427281202824,968.8866413893401,0.733240867253679,1307.173284,1347.981312,64.74327685095332,63.48158409495976,644.6817955266501,952.3836774147585,948.633741657984,128.0,673.4369565913571,777.4770528545625,0.8661824218718549,931.4176426666666,716.1150719999999,41.89270855061685,75.60640938843788,575.9977882993435,825.516051569769,823.2178096909769,180.0,583.7279980433274,702.2661293282164,0.8312062531076618,846.7433115151514,716.1150719999999,83.7854171012337,77.2943744150352,325.16025747697284,442.34725139587107,441.2231660650172,198.0,312.7867411012509,403.16325896665245,0.7758314631719033,926.2716888397789,716.1150719999999,41.89270855061685,75.29231477940631,571.4549439071593,795.326813237051,793.1256817645009,181.0,562.3809828994056,703.5519318916113,0.7993453750988286,truth
1783333929066946695,1783333939066946695,1244.6984846222224,1053.1104,33.91314501716602,67.95718902226125,737.8231177050269,960.0082621086246,956.4467629613682,135.0,678.828352132121,926.478245945757,0.7326975620881062,1350.6990162580644,1390.105728,15.826134341344144,61.966971390896305,683.802673598359,990.794243595574,987.1016217421461,124.0,700.5973284070265,830.5142289900856,0.8435705301027299,929.0904713296089,716.1150719999999,79.13067170672072,75.60193911823781,571.4508431569974,812.6698504831646,810.3838893688178,179.0,574.6443621425034,698.5728743793336,0.8225975889101936,843.5520678787877,716.1150719999999,79.13067170672072,77.56695912639569,329.41089513477976,450.0775285528331,448.93379737740406,198.0,318.25287249939026,407.8978183809484,0.7802269542960979,938.3331991011235,716.1150719999999,79.13067170672072,74.77770823280778,582.1237503435628,814.75258986577,812.4478037269731,178.0,576.117081283388,715.3884789083932,0.8053206030973289,truth
1783333930066946695,1783333940066946695,1230.6570126222223,1053.1104,158.26134341344144,69.89907090406327,745.6191275984986,978.7456972026902,975.1488956101451,135.0,692.0777195491776,934.0288978041831,0.7409596439426974,1350.7435687868854,1411.1679359999998,129.48655370190664,60.81881119436967,659.0452376582572,937.8917265142511,934.0664911219114,122.0,663.1895998369858,805.4632380773729,0.8233642064410142,931.4437906592177,716.1150719999999,44.5110028350304,74.92855296758555,555.2084049817424,791.2380280330697,789.023817791942,179.0,559.4897751548551,678.2317757767811,0.8249241559260028,841.4299175879397,716.1150719999999,83.7854171012337,77.71255321709059,320.43088800296476,443.48294821881143,442.36208461771804,199.0,313.58980002612407,395.199477014488,0.7934975076260737,921.1515940773482,716.1150719999999,83.7854171012337,74.29671667951618,472.4576389136146,650.4200013620695,648.6111427764522,181.0,459.9163935824828,583.6701950525623,0.787973066778003,truth
1783333931066946695,1783333941066946695,1235.3375032888887,1053.1104,39.56533585336036,69.65992861048848,746.1951224135282,975.0050722958009,971.3732029803148,135.0,689.4326983116408,935.9249962880817,0.7366324235873175,1375.135894214876,1474.3545599999998,129.48655370190664,60.30971236522005,669.629382637604,954.6345169283289,950.6890582669879,121.0,675.0285404747654,817.9090749927472,0.8253100021915654,940.0646508474575,716.1150719999999,37.48294975581508,74.17864425473942,542.719181493791,744.205168308174,742.1049585858586,177.0,526.2325211047857,671.2882292938194,0.7839144172963838,861.0405239378238,716.1150719999999,79.13067170672072,77.04907133511253,366.7481823594179,508.7447381713092,507.4181999340021,193.0,359.7368542539074,451.9990667840203,0.7958796393396123,957.4173624971097,716.1150719999999,38.49600245191819,73.51478683782409,564.0092567819856,783.0671147280493,780.8028025056495,173.0,553.7120669483879,694.9203961098045,0.7967992737701942,truth
1783333932066946695,1783333942066946695,1202.9878511304348,989.9237759999999,36.52184848002495,70.31848277167181,723.1975755864462,947.3511005339387,943.9017557684606,138.0,669.8783873520869,906.4551504335506,0.7390088599879312,1368.007673704918,1369.04352,49.11558933520596,60.370829662970486,671.0733431477797,960.7537972767155,956.7755035949137,122.0,679.3555251050911,818.4845136113868,0.8300163458286841,957.7252281379311,716.1150719999999,83.7854171012337,73.82199628957866,567.7101271643661,769.958993739241,767.7304536274413,174.0,544.4432257085878,704.5426629807278,0.7727611886627235,867.9384879999999,716.1150719999999,83.7854171012337,77.6715851195561,443.83878829053873,630.3864575470724,628.7340655633354,192.0,445.75053889970053,542.8065663915098,0.8211959222656018,941.4925971525423,716.1150719999999,83.7854171012337,74.28533953348729,551.2716095230912,755.6004478280511,753.4507978168963,177.0,534.2902005268071,681.9587712925696,0.7834640787948591,truth
1783333933066946695,1783333943066946695,1222.5372790588237,1053.1104,40.69577402059923,69.18280308822726,729.7507931491144,942.1624642501843,938.6665394405729,136.0,666.2094674507334,918.2346720436059,0.7255329032261765,1408.9890868965515,1453.292352,33.91314501716602,58.54670885685909,679.743214626074,945.7892587118292,941.6684379868292,116.0,668.7739984085324,836.9422591712704,0.7990682643635941,963.504705849711,716.1150719999999,83.7854171012337,73.57720029514326,572.4784644389271,782.2936250467175,780.0162390846043,173.0,553.1651271495402,708.8493179410701,0.7803705430037916,873.5273633684209,716.1150719999999,83.7854171012337,77.81178882713687,467.4821376051693,669.7973422432566,668.0230787122471,190.0,473.61824272093355,570.0192786571033,0.8308810955249111,947.0813301818181,716.1150719999999,83.7854171012337,73.92443523512583,551.1145927248458,771.4463462213749,769.2390936760225,176.0,545.4949427347194,677.253440267355,0.8054517117246062,truth
1783333934066946695,1783333944066946695,1250.4300328421052,1053.1104,33.91314501716602,69.08080335881039,793.3522348257775,1051.199132635839,1047.2156312847517,133.0,743.3100350642188,991.2419648564754,0.7498774884615026,1397.539448470588,1390.105728,25.89731074038133,58.54047582657495,684.9161892190542,924.8990812366869,921.1056160798005,119.0,654.0024122556689,851.0938813612665,0.7684257008282526,957.2410394482758,716.1150719999999,83.7854171012337,73.73587948739117,564.6023392211199,768.1614320912063,765.9380947736706,174.0,543.1721576776616,700.0240042097255,0.7759336171491179,885.9571322553192,716.1150719999999,83.7854171012337,77.68901524416543,506.4664025593979,731.4054456503749,729.447194624529,188.0,517.1817504161488,615.8554638558957,0.8397778062697588,968.3717492093024,716.1150719999999,83.7854171012337,73.39167761305116,597.1904041226434,855.6424312731054,853.1368843677225,172.0,605.0305654241573,728.1770148827786,0.8308839101733453,truth
1783333935066946695,1783333945066946695,1194.9393689784172,1053.1104,59.34800378004054,70.09062204261761,699.2010142704739,1008.3162150086254,1004.6640899188567,139.0,712.9872332129519,850.6401820695921,0.8381772319740021,1424.604172137931,1516.4789759999999,28.487041814419456,55.48153974429833,642.4034782928488,867.8046459815961,864.0261393695214,116.0,613.6305499187778,798.1812024526075,0.7687860200581614,942.2065703050846,716.1150719999999,83.7854171012337,73.77845087919518,484.1510872876482,643.7341678013294,641.902772432292,177.0,455.18879533379885,604.3228697847752,0.7532211969669635,868.5966819999999,716.1150719999999,83.7854171012337,78.48736379170322,489.3299056486391,707.2439938585189,705.3901400962644,192.0,500.0970240108157,594.8436739278437,0.8407200848394312,969.5962961860465,716.1150719999999,83.7854171012337,73.36784682088302,598.8126380502268,851.6685068940363,849.1745966882446,172.0,602.2205765477951,731.9961335748739,0.822710051222143,truth
1783333936066946695,1783333946066946695,1228.1607509333332,1095.234816,61.928351770477086,68.3743821779991,742.6558499741395,1056.8101500615367,1052.8714582948805,135.0,747.2776235352854,907.6692677860981,0.823292855731444,1442.8528228173914,1516.4789759999999,39.56533585336036,55.78710408092308,680.2168991997873,893.4353256639138,889.5084254074335,115.0,631.7541773285649,851.9585609804631,0.7415315794250844,914.8678414143646,716.1150719999999,79.13067170672072,75.2403954848382,474.7661291099378,627.5527431902478,625.8071570205692,181.0,443.74680026204425,593.5908888524714,0.7475633615601726,864.3144422797926,716.1150719999999,79.13067170672072,79.0346057670546,513.2962299826366,743.145166481223,741.2406156925142,193.0,525.4829866248785,623.6023210449705,0.8426572013784789,943.7817133872833,716.1150719999999,79.13067170672072,74.399311788606,551.1260462455947,792.7004244709053,790.402417126286,173.0,560.5238455928318,671.1082974911831,0.8352211523657936,truth
1783333937066946695,1783333947066946695,1252.2440029090908,1200.545856,129.48655370190664,65.65700297575448,725.7087989254748,1035.870082278636,1031.9120120180933,132.0,732.4707596074904,886.0303690256465,0.826688096947486,1441.0213264695649,1516.4789759999999,29.06841001471373,56.00177456648646,665.1216402905175,881.9215412067927,878.1401852217112,115.0,623.6127022618143,830.8593091218006,0.7505635375512116,873.5854019685863,716.1150719999999,83.7854171012337,77.02757558311961,410.770309320766,507.64293156463947,506.30526670579667,191.0,358.95775933077505,522.5314895267751,0.6869590953377015,838.466390834171,716.1150719999999,83.7854171012337,80.27773153994993,489.67201495938394,704.4416884021778,702.6605434825548,199.0,498.1154948196808,596.2363972276755,0.835432887250379,911.7749277377048,716.1150719999999,83.7854171012337,75.78938819247452,517.5761572836753,733.4986699370575,731.4913705310755,183.0,518.6618835038065,633.4548780120125,0.8187826813040516,truth
1783333938066946695,1783333948066946695,1274.34397410687,1221.608064,89.0220056700608,64.84806795210689,771.2042037114421,1128.7026405460524,1124.3777960188445,131.0,798.1132910732758,933.284219812213,0.8551663835416236,1434.4089931034482,1516.4789759999999,49.11558933520596,58.25429098080909,706.0758638983264,989.2370514075166,984.9486985903238,116.0,699.4962272512403,867.4322827691949,0.8063986562941434,847.192569502538,716.1150719999999,83.7854171012337,78.45819702361287,389.54968453974675,477.4418149793079,476.2222936645552,197.0,337.60234499388156,496.4979776165745,0.6799672107720011,826.2224563960395,716.1150719999999,83.7854171012337,81.02689816574984,482.4003214212706,694.0820479402008,692.353322845056,202.0,490.7901227983624,587.3522519719104,0.8355975841594867,897.2953558709677,716.1150719999999,83.7854171012337,77.2152650953692,535.2174994956229,758.4318257218772,756.3903368808608,186.0,536.2922870356332,655.06551959765,0.8186849574452203,truth
1783333939066946695,1783333949066946695,1321.5699718095238,1221.608064,32.37163842547666,60.596542869419565,756.1910494024395,1073.4940866898114,1069.2302031041656,126.0,759.0749482620251,924.9607655750741,0.8206563743166846,1442.0349649655168,1516.4789759999999,27.928472367077898,59.02717138485671,714.5157420238173,1049.2729461544977,1044.703240807853,116.0,741.9480155414325,863.6099017014324,0.8591240258821616,846.9787399796955,716.1150719999999,83.7854171012337,78.41512935164242,388.42341978353136,481.83886208987406,480.62199703977893,197.0,340.7115268229596,493.6631785110681,0.6901700221000395,811.361904236453,716.1150719999999,83.7854171012337,81.24784673345788,436.636181142065,622.0091911881688,620.4676893117085,203.0,439.82691704951384,533.4589495772027,0.8244812790151937,885.7390572834224,716.1150719999999,83.7854171012337,77.40269880225296,513.3850692204157,727.3177647119402,725.3608583351771,187.0,514.2913235052547,628.3953181561021,0.8184200433165825,truth
1783333940066946695,1783333950066946695,1315.4758571338587,1221.608064,45.94684163616042,61.35286303823055,777.391720745227,1106.7979037346195,1102.405666706156,127.0,782.624303133805,949.9607228925904,0.82384911741482,1442.0349649655172,1516.4789759999999,37.48294975581508,60.69996870885173,745.7301036336765,1115.5136192144525,1110.7073323238433,116.0,788.7872446524876,895.0609567329793,0.8812665089667229,836.4396859076921,716.1150719999999,49.11558933520596,78.58296927139475,351.7364615233226,445.50244099695783,444.3540816739806,195.0,315.01779706410866,444.76844593151344,0.7082737094902094,818.8986470399999,716.1150719999999,14.837000945010136,81.09295650240755,470.5322746487201,637.6226734771016,636.1628575730931,200.0,450.8673162539543,584.089526133773,0.7719147426565786,894.9711989508195,716.1150719999999,89.0220056700608,76.56342005328074,478.3999686630215,647.3715690270559,645.6040684311793,183.0,457.7608264064064,594.1048501211061,0.7705051159119363,truth
1783333941066946695,1783333951066946695,1351.0635863414632,1305.8568959999998,27.39138636001871,60.09723717819947,785.731400527291,1131.8668498070651,1127.2693250565396,123.0,800.3507248988312,956.2776929982808,0.8369438404334608,1419.378627254237,1495.4167679999998,79.13067170672072,62.1184235090025,750.0647382289862,1122.5894950198851,1117.7820410740712,118.0,793.7906444173428,900.0791240145419,0.8819120711042268,843.1298085685278,716.1150719999999,21.258986428671236,78.76495265687569,406.28835912957385,526.7840901701238,525.5484096000166,197.0,372.49260238048026,510.6516347905996,0.7294456279048759,826.3511059104477,716.1150719999999,79.13067170672072,81.21398839309126,506.6982659311525,680.1999795935172,678.4973813799776,201.0,480.9740181335273,630.7283585946636,0.7625691973089549,903.0563992216217,716.1150719999999,23.35003427411431,76.64257725343492,504.39992486493105,659.0971937282364,657.3445533067583,185.0,466.05209514625966,632.6423086645304,0.7366755096257589,truth
1783333942066946695,1783333952066946695,1335.849480192,1221.608064,34.74029489563348,61.249913850554286,787.4001690641068,1118.675295776556,1114.1605561281551,125.0,791.0228875894694,962.8808068183604,0.8215169333401091,1399.6633686050418,1516.4789759999999,38.49600245191819,63.08181141343836,752.2949079722906,1133.8793067785516,1129.0654138751443,119.0,801.7737468702155,900.2636761176818,0.8905987969300321,829.1419703762377,716.1150719999999,83.7854171012337,79.60050140577755,420.17105970825975,579.1149747774266,577.6725940202194,202.0,409.4961257517948,518.8871749521846,0.7891814358092967,813.5149411902439,716.1150719999999,83.7854171012337,81.40141272642458,465.91475849084327,613.4405095386325,611.9351317859472,205.0,433.767944149298,583.160192119976,0.7438229666747505,895.6506845775399,716.1150719999999,83.7854171012337,77.05392403936784,499.5141699359216,656.8226170062924,655.0545852205466,187.0,464.44372652184387,625.4397048323658,0.7425875315132526,truth
1783333943066946695,1783333953066946695,1305.856896,1221.608064,118.69600756008109,61.99720129824526,746.2767326707682,1069.978172185593,1065.7256567583852,127.0,756.5888212740201,909.7497464759795,0.8316449927078894,1337.4502080000002,1411.1679359999998,54.78277272003742,64.66711451015823,726.577305495554,1091.9871780217782,1087.5482597183418,124.0,772.151538547961,870.4712301284676,0.8870500389013475,818.2097157044335,716.1150719999999,83.7854171012337,80.3279700387336,465.8602084350727,625.0038419782213,623.4548833589595,203.0,441.9444549304457,579.9948422050445,0.7619799742532984,787.1875463886256,716.1150719999999,83.7854171012337,82.11035144375279,395.3475635862352,494.76404853362607,493.58463315283205,211.0,349.8510138054371,501.3995673480368,0.69774893435956,869.6155617172776,716.1150719999999,83.7854171012337,78.10699282189684,463.56797483201626,581.4852073812367,579.9529643822976,191.0,411.1721332989383,587.5876725893029,0.6997630353391178,truth
1783333944066946695,1783333954066946695,1293.1216074418603,1221.608064,31.652268682688288,61.79793752331997,694.4064293237078,982.9908878212248,979.1449332477124,129.0,695.0795226229728,850.1957461592674,0.8175523410496616,1378.9653865785122,1474.3545599999998,33.124467226069136,63.1845864317226,738.2550495980703,1102.9855111817124,1098.3828722305302,121.0,779.9285345070994,886.5081934448788,0.8797758895790665,805.0443946666668,716.1150719999999,83.7854171012337,80.91794074163396,448.31204047693,602.7924915736874,601.3276230861679,207.0,426.2386584400891,557.7881984219221,0.7641586172780116,785.333595943662,716.1150719999999,83.7854171012337,82.60120945723986,419.40098577257334,416.99008528395944,416.00564542273133,213.0,294.8565169918445,555.2694759553523,0.5310151732805732,837.4079884221106,716.1150719999999,83.7854171012337,79.2686685861004,392.46656985095285,451.1054973357154,449.96490006837314,199.0,318.9797561966144,507.1350653125062,0.6289838309643468,truth
1783333945066946695,1783333955066946695,1324.244537904762,1305.8568959999998,40.69577402059923,61.28334274847334,732.4610321608197,1049.6812706407266,1045.493721189517,126.0,742.2367445545693,893.0513057964275,0.8311244155145587,1352.0578683870965,1411.1679359999998,109.56554544007484,64.1332295676377,718.7878222772534,1078.1747017579755,1073.9795288012995,124.0,762.3846429168478,861.798523455702,0.8846437098311364,821.2196197647058,716.1150719999999,83.7854171012337,80.2890859249665,470.61246683448263,624.7215589322625,623.1810744144568,204.0,441.7448506744342,587.692888617333,0.7516593432221526,825.2650366108375,716.1150719999999,83.7854171012337,81.29965566493466,505.9191312744076,538.8661140289689,537.5307939442048,203.0,381.03588338152724,662.8077870444282,0.5748814223813371,859.122063753846,716.1150719999999,83.7854171012337,78.16431547565506,412.80636887013094,491.3629753281313,490.0951321334542,195.0,347.4460918785199,529.583612830549,0.6560740994636711,truth
1783333946066946695,1783333956066946695,1317.5581226666666,1326.9191039999998,36.52184848002495,61.21540746682963,665.9525414858794,973.4216606978139,969.5206824881168,126.0,688.3130572332948,806.286638016581,0.8536828278917105,1350.3593032258063,1411.1679359999998,37.48294975581508,63.51692898520219,696.8755007055753,1056.6469998063592,1052.3429765451847,124.0,747.1622588834972,831.9526467397934,0.8980826755121608,854.5238674285714,716.1150719999999,41.89270855061685,78.40114391745509,494.31627163989793,651.025022692649,649.3665536355555,196.0,460.3442082680981,618.6588379494369,0.7441002698578147,837.43339008,716.1150719999999,83.7854171012337,80.48072959006511,495.1661625510945,616.1251229518174,614.5752660068081,200.0,435.6662524986254,628.8692354441071,0.692777175195982,910.2536848695651,716.1150719999999,41.89270855061685,75.93235950764894,472.35119262113557,547.9647203406822,546.4829994630053,184.0,387.4695696038865,609.2330955034433,0.6359956024445762,truth
1783333947066946695,1783333957066946695,1296.7136119069767,1305.8568959999998,71.21760453604865,63.54572908486985,702.629885192972,1012.4766187224839,1008.5147361485609,129.0,715.9290828914949,855.0440253388416,0.8373008426177617,1334.282314926829,1347.981312,64.74327685095332,63.40159256939891,676.8224067654352,979.2753540534692,975.2656522836756,123.0,692.4522435000653,822.4549141657405,0.8419333772264661,841.4299175879396,716.1150719999999,83.7854171012337,79.17321608650917,486.43733727348604,640.193450167216,638.5747890848451,199.0,452.6851298844506,608.9176075448858,0.7434259155514424,841.4299175879396,716.1150719999999,83.7854171012337,80.25004523409643,497.7469507912122,621.3292099909132,619.7582472547455,199.0,439.3460977338551,631.6577849175262,0.6955444992912092,910.0247478260869,716.1150719999999,83.7854171012337,75.90971493351591,471.6960101524744,555.2291089483089,553.7100592590892,184.0,392.6062680495136,606.5677300447521,0.6472587455658866,truth
1783333948066946695,1783333958066946695,1243.2989946268658,1242.6702719999998,178.0440113401216,65.8086932738825,649.3654830908132,929.0778949482567,925.6567781721309,134.0,656.9572797684351,792.1834557343137,0.8292994192354967,1365.935981114754,1390.105728,17.37014744781674,60.82269123631038,687.602774240798,926.0780972741586,922.3592913847687,122.0,654.8361024908927,855.0964797755585,0.7658037636440403,842.48832,716.1150719999999,79.13067170672072,79.16338628156129,488.40057944750544,639.8325202962492,638.206549625646,198.0,452.4299139251571,612.1469092482258,0.7390871489995494,837.222768,716.1150719999999,79.13067170672072,80.52344216854317,495.4969927344595,616.7573524083859,615.2060868849209,200.0,436.11330623463095,629.2353547603119,0.6930845556202974,914.9975606557376,716.1150719999999,79.13067170672072,75.61989355941046,473.78046046993967,555.8087220043734,554.2801066480956,183.0,393.01611637192104,609.6761563175835,0.644630944312667,truth
1783333949066946695,1783333959066946695,1227.580928955224,1242.6702719999998,40.69577402059923,67.61353980116088,662.5136646559587,966.7618768721616,963.1505726915013,134.0,683.6038789289395,802.6154621413608,0.8517202959248991,1368.3529558032785,1347.981312,79.13067170672072,59.59620343664104,678.636044648206,887.905882517322,884.3806150996512,122.0,627.8442705834243,850.8816299223457,0.737874985784713,838.0430298693468,716.1150719999999,83.7854171012337,79.46993218312265,486.2153695902006,633.0663973586511,631.4760786537528,199.0,447.64554251363967,610.424037358708,0.7333353785519203,838.6588276363636,716.1150719999999,83.7854171012337,80.46404550978455,497.79318359908854,617.7936663940951,616.2343888803669,198.0,436.8460908813644,632.5969125092748,0.6905599478008194,889.8498255567565,716.1150719999999,83.7854171012337,76.79316821142461,446.6904852173124,522.6986377001015,521.3278027775808,185.0,369.60375123471215,575.1185205711694,0.6426566664339837,truth
1783333950066946695,1783333960066946695,1210.8463518832114,1221.608064,30.964175885238543,67.54623031867739,636.3729510587658,913.7059797410444,910.4166548133329,137.0,646.0876942855907,775.3879102261327,0.8332444777184711,1313.5462735238095,1326.9191039999998,37.48294975581508,60.9358397921729,649.0638672353975,849.6985180050075,846.2961867186987,126.0,600.8275840455005,813.6774020618755,0.7384100658602426,801.9840738461537,716.1150719999999,83.7854171012337,80.53264661629835,344.6377414217637,444.735085780753,443.67303362835634,208.0,314.4751949871514,433.70845218128443,0.7250843127578821,798.9394068405796,716.1150719999999,83.7854171012337,81.73356441965959,401.4634709008493,475.6786127666767,474.7906349979171,207.0,336.3555727527269,515.536905831781,0.6524374277531922,849.4726791295336,716.1150719999999,83.7854171012337,78.66462130413343,400.21306258782363,489.3172976192889,488.1368347187765,193.0,345.9995792984753,510.3754857891291,0.6779314229081749,truth
1783333951066946695,1783333961066946695,1181.8736857872339,1179.483648,118.69600756008109,70.05372946074733,639.5379249876307,906.2190180841133,902.9769219228226,141.0,640.793612927491,782.757489782522,0.8186361948520305,1376.1803012231403,1390.105728,83.7854171012337,57.3460303609355,676.2333065499938,850.7399745060532,847.3624082910238,121.0,601.5640049997007,856.5298265206156,0.7023269784350257,795.9297549473685,716.1150719999999,83.7854171012337,80.32155845925774,271.23682241187885,297.28846110229614,296.57296437034654,209.0,210.21468681394674,353.615215153482,0.5944729689380188,815.4378371764706,716.1150719999999,43.162184567302205,80.72575407993153,406.01660294298546,484.0701434233357,482.88779463975817,204.0,342.28928098458533,520.689915201218,0.6573764365155975,848.7210142040814,716.1150719999999,83.7854171012337,78.07076170077973,367.5629159019556,455.00239619795826,453.8342238052685,196.0,321.7352798077045,467.3844233136415,0.6883739888605612,truth
1783333952066946695,1783333962066946695,1195.356616347826,1158.4214399999998,178.0440113401216,71.38396844082443,690.2485164938499,971.5303318138562,967.9922198508071,138.0,686.9756857539943,846.7102412486433,0.8113468484105159,1367.1287738181818,1390.105728,35.60880226802433,59.48729313925358,689.0701273786852,908.011671761196,904.2533538094059,121.0,642.0612104988752,862.2725682043437,0.7446151416320109,826.2224563960395,716.1150719999999,83.7854171012337,78.65770232904148,308.7486992060165,368.2092651392922,367.29223940851887,202.0,260.36326827570895,395.92550156463795,0.6576067145126862,847.8613322448979,716.1150719999999,83.7854171012337,78.92109033978748,433.2335751367681,523.9474065834295,522.6022695336469,196.0,370.4867641802481,553.8523630311565,0.6689269359665198,877.8907547234043,716.1150719999999,61.928351770477086,76.6197233463948,398.90495161472614,504.36753725412837,503.0184141938786,188.0,356.6417058027528,504.6322103141508,0.7067359128358675,truth
