window_start_ns,window_end_ns,red_Mean_NN,red_Median_NN,red_Heart_Rate,red_Mean_HR,red_SDNN,red_SDSD,red_RMSSD,red_NN_Count,red_SD1,red_SD2,red_SD1_SD2,infrared_Mean_NN,infrared_Median_NN,infrared_Heart_Rate,infrared_Mean_HR,infrared_SDNN,infrared_SDSD,infrared_RMSSD,infrared_NN_Count,infrared_SD1,infrared_SD2,infrared_SD1_SD2,ppg0_Mean_NN,ppg0_Median_NN,ppg0_Heart_Rate,ppg0_Mean_HR,ppg0_SDNN,ppg0_SDSD,ppg0_RMSSD,ppg0_NN_Count,ppg0_SD1,ppg0_SD2,ppg0_SD1_SD2,ppg1_Mean_NN,ppg1_Median_NN,ppg1_Heart_Rate,ppg1_Mean_HR,ppg1_SDNN,ppg1_SDSD,ppg1_RMSSD,ppg1_NN_Count,ppg1_SD1,ppg1_SD2,ppg1_SD1_SD2,ppg2_Mean_NN,ppg2_Median_NN,ppg2_Heart_Rate,ppg2_Mean_HR,ppg2_SDNN,ppg2_SDSD,ppg2_RMSSD,ppg2_NN_Count,ppg2_SD1,ppg2_SD2,ppg2_SD1_SD2,label
1783335139032571058,1783335149032571058,1128.4464484324324,986.858624,64.94436744255384,71.81434505369609,677.0844617894842,928.9330022449915,925.768018373342,148.0,656.8548251554118,837.3515427396892,0.7844433211483447,1217.8255359999998,1028.8526080000001,178.5970104670231,67.30734631807402,713.7421777796112,971.8546374442378,968.3941803505967,136.0,687.2050044644142,884.7205398331704,0.776748106915206,978.8597699047618,713.8977279999999,40.82217382103385,70.60962550677618,457.7648163258012,618.4453554154118,616.6009923917597,168.0,437.3069046075622,568.7517821711552,0.7688888515446671,1115.0802551466668,902.870656,64.94436744255384,64.55605622889853,602.5215583686955,879.0915126360834,876.1377081071231,150.0,621.611569868514,729.9753315701041,0.8515514743922779,942.3450009599997,713.8977279999999,84.04565198448147,73.29376147517941,476.2275870162711,651.9141256387961,650.0381098769602,175.0,460.9728989904917,589.3533935329729,0.782167209095236,truth
1783335140032571058,1783335150032571058,1101.92214016,944.86464,178.5970104670231,73.65959069884144,656.3219877060995,891.928444794281,888.9582814702434,150.0,630.6886516472073,814.0227364359578,0.7747801423932659,1258.5469750303032,1112.840576,142.87760837361847,65.77287899589784,733.2546096092257,1027.7832934209882,1023.8570062660981,132.0,726.7525363682239,900.688636803825,0.8068854281843401,968.3031426976742,713.8977279999999,84.04565198448147,70.77748404834792,434.72636040369724,581.3684872831774,579.6660868867499,172.0,411.08959972609983,541.7348865987939,0.7588390740479498,1115.6780073513514,923.867648,42.02282599224073,63.94686826443115,568.6890393814001,811.4631345185653,808.7129277764074,148.0,573.7910851009691,694.4035875155064,0.8263077775187272,957.1732215172411,713.8977279999999,84.04565198448147,73.65042644831394,571.1580878215433,818.4380871524554,816.0692309911863,174.0,578.7231214068478,696.4071344712667,0.8310126257483446,truth
1783335141032571058,1783335151032571058,1069.7698231794873,923.867648,47.625869457872824,74.21400162078372,605.7106328606691,838.5891371573938,835.8807313526087,156.0,592.9720655133689,746.969079869675,0.7938374980887103,1268.7953333740459,1133.837568,25.513858638146154,65.18767737334134,752.996976538189,1040.128245858565,1036.2131328547812,131.0,735.4817359502597,929.2697140190808,0.791462074847258,990.1081584761906,713.8977279999999,42.02282599224073,70.10369600723358,465.3728280989415,647.0312129577993,645.0910850132309,168.0,457.52015832181706,573.1329606908014,0.7982792645014948,1112.9814954093958,923.867648,42.02282599224073,63.71703279324891,555.3699644806171,782.5206162590379,779.8737751885363,149.0,553.3256341750418,681.0190644738205,0.8124965409045646,970.0610303999999,713.8977279999999,42.02282599224073,72.93619626950546,576.1666101652789,821.3100877636729,818.8874665459118,170.0,580.7539325146116,703.7743674453511,0.825199040173494,truth
1783335142032571058,1783335152032571058,1083.3902495584416,923.867648,27.476463148772783,74.3951910828024,620.1709161790989,838.0958944744996,835.4283238493043,154.0,592.6232902675238,770.469174247155,0.7691719669986681,1256.3463333533832,1133.837568,51.02771727629231,67.49546930995906,759.4543094941897,1038.498331042614,1034.5954953157307,133.0,734.3292121311445,940.1712612731891,0.7810589861433423,960.0693583448274,713.8977279999999,84.04565198448147,72.18496452288936,474.7931574369955,669.151407230796,667.2146407743918,174.0,473.1614976934169,582.1650824708096,0.8127617267686984,1136.4086282448977,923.867648,84.04565198448147,63.2458794667577,586.7893339084854,811.9735885986543,809.2046418667377,147.0,574.1520306424844,723.7528360097001,0.7932984882076363,965.6188922080923,713.8977279999999,84.04565198448147,73.0257689954231,568.0930577661729,803.7515636513391,801.4116705825869,173.0,568.3381810471528,695.6689590216366,0.8169664230044745,truth
1783335143032571058,1783335153032571058,1114.9543671409397,1007.855616,57.151043349447384,72.37031033441598,630.6175141615239,841.1266450456736,838.3034264743369,149.0,594.7663545484859,786.4371494805367,0.7562795767485619,1224.6186804705883,1175.831552,102.05543455258461,69.16530332784453,708.916470085443,997.7235577418368,994.0810383898845,136.0,705.4970934288207,869.633284033306,0.8112581548819846,968.3174205380116,713.8977279999999,84.04565198448147,71.95563996478818,505.7710934568727,730.6493361264261,728.4971979136059,171.0,516.6471002444449,614.9363258562828,0.8401635722609611,1103.8818594133331,755.891712,84.04565198448147,64.97288315945426,580.7727966493277,793.558077381935,790.8906477258024,150.0,561.1302977821252,719.138705057122,0.7802810415239074,961.249575953757,713.8977279999999,84.04565198448147,73.2713980343303,565.7049878466775,797.2844475322962,794.9633816246546,173.0,563.7652393846569,693.634373412967,0.8127700428263086,truth
1783335144032571058,1783335154032571058,1122.4878425945942,1007.855616,84.04565198448147,71.46842277483921,626.5507045339269,828.4636002851654,825.7049362902487,148.0,585.8122297278618,783.2902313029034,0.7478865512639393,1197.7414566956522,1133.837568,75.19874124927287,70.68947367831656,693.6637015751847,990.7206150860029,987.0982717016061,138.0,700.5452651886201,846.7330319982071,0.8273508162725172,955.9664978390803,713.8977279999999,84.04565198448147,72.19818249248537,489.1189135037779,704.0493937016546,702.0116198366691,174.0,497.83810057671735,595.4437302561137,0.836079171347704,1082.5115875555557,755.891712,84.04565198448147,65.74191440450858,560.3570532594067,742.2181032460409,739.7725674271928,153.0,524.8274539246926,700.1986333024319,0.7495408145105699,953.2391628208093,713.8977279999999,84.04565198448147,73.67335422387004,561.1507144154798,781.9249987264715,779.648647466273,173.0,552.9044689787705,690.6001539745401,0.8006144594621015,truth
1783335145032571058,1783335155032571058,1085.5717552207793,1007.855616,32.47218372127692,71.33903240906625,536.3428160181858,704.3583892524265,702.1112163096254,154.0,498.0565934260246,671.7864597184634,0.7413912355940507,1223.9560446131386,1175.831552,84.04565198448147,69.25114658580766,688.0092516741938,959.156743785604,955.6243750700992,137.0,678.2262377516086,846.5920186200775,0.8011252443143738,965.1334126242776,713.8977279999999,44.649252616755774,71.59710937979806,486.8631322779316,696.9167897001597,694.888087122611,173.0,492.794587919742,593.8418696938296,0.8298414326591941,1068.0018382451613,713.8977279999999,95.25173891574565,66.603315448996,564.5864278572523,755.2443201039463,752.8025077845052,155.0,534.0383801981241,703.5034991234277,0.7591126140289866,987.7283218934909,713.8977279999999,95.25173891574565,72.61148787063382,608.1725750757709,839.3896371603627,836.899819920137,169.0,593.5381044938081,750.7356534796633,0.7906086539819391,truth
1783335146032571058,1783335156032571058,1138.4396484383562,1070.8465919999999,71.43880418680924,68.18610825399628,562.1576715639007,720.1034831686377,717.6189352415519,146.0,509.1900561045966,708.8055013742429,0.718377686286818,1217.519010569343,1175.831552,38.6155698307077,68.93663806284079,675.3781071447778,927.6459512319618,924.2324969418468,137.0,655.9447426563655,834.9487544224874,0.7856107805203754,962.6876680930231,713.8977279999999,89.29850523351155,72.37735886665519,520.1612295200547,738.9172509145399,736.7535061495587,172.0,522.4933988573928,636.1098438688515,0.8213886389173953,1043.8129648,713.8977279999999,89.29850523351155,68.2802381208837,560.3061869980826,749.4258830621264,747.0806069872714,160.0,529.9241239099463,698.1949998573454,0.7589915768778349,977.0434620591716,713.8977279999999,89.29850523351155,72.76643859265965,587.6927098420026,814.0365902520658,811.6272213764862,169.0,575.6107931012108,724.6389099652117,0.7943415474734092,truth
1783335147032571058,1783335157032571058,1145.4221153103447,1091.843584,62.120699292877596,67.48504917417243,557.9364931171799,698.8336544422858,696.4090273213769,145.0,494.1500159775168,707.456105746854,0.6984885874380119,1240.7028556417908,1175.831552,32.47218372127692,66.8462233386793,668.7510547843851,925.5940388468886,922.1078506156498,134.0,654.4938214944796,824.7877698918866,0.7935299787244309,948.6822749090908,713.8977279999999,95.25173891574565,72.54917299396043,475.2619243983437,684.8636914959568,682.9193545752145,176.0,484.27176044524276,578.3495695366831,0.8373340034353164,1013.7450161951219,713.8977279999999,95.25173891574565,69.23863032632154,518.1937742982826,680.9001874717112,678.8241635124817,164.0,481.46913987243846,648.9555524982015,0.7419138922827426,982.1651787294117,713.8977279999999,95.25173891574565,72.19126974741908,578.9226191647397,815.7673607695288,813.3639693815721,170.0,576.8346326707865,709.8828785348354,0.8125771871852239,truth
1783335148032571058,1783335158032571058,1165.553304167832,1091.843584,43.29624496170256,67.06608531984863,570.3360608658468,713.875211524175,711.3621045727967,143.0,504.7860029897252,723.2993780176852,0.6978935947286032,1204.6449424817517,1175.831552,84.04565198448147,70.08434091114884,669.5209887643344,927.9378437771621,924.5200647825691,137.0,656.1511418544545,825.3784273371166,0.7949700647875753,933.0171752402234,713.8977279999999,43.29624496170256,73.1117036931271,451.0882014798717,654.8109618822682,652.9696965162016,179.0,463.02127154223774,547.5096182519494,0.8456860959274831,999.2023102060606,713.8977279999999,43.29624496170256,69.27913125312838,455.1684326856886,578.9872281274672,577.2193808629112,165.0,409.4057952293347,574.9348238221534,0.7120907940618633,956.2840567017543,713.8977279999999,43.29624496170256,72.8112501360977,531.2266340185668,750.6831892576436,748.4720410399661,171.0,530.8131736468242,650.7858024902554,0.8156495910261847,truth
1783335149032571058,1783335159032571058,1183.9303917714287,1091.843584,49.26814081848914,67.10542006321137,601.2918134416801,767.0835607619613,764.3456178997814,140.0,542.4099875515059,758.946238231771,0.7146882878229142,1206.7094814117645,1133.837568,18.799685312318218,71.26769822434704,695.7108553019051,957.3167392531017,953.8377776579483,136.0,676.9251580692621,859.6006942506904,0.7874879145593692,927.6004465777776,713.8977279999999,95.25173891574565,73.50622781770358,450.28693318543844,655.2565908020066,653.4238701054776,180.0,463.3363787732776,546.0552576871025,0.8485155526856514,983.7525600946745,713.8977279999999,95.25173891574565,70.19623467933833,452.2812216784871,579.6570077408827,577.9487773905237,169.0,409.8794009358812,570.1894819357782,0.7188477057562541,938.0229235056178,713.8977279999999,95.25173891574565,73.18453804128183,482.16196763333113,665.0234482836028,663.142359830095,178.0,470.2425899293968,595.3119177140145,0.789909585104761,truth
1783335150032571058,1783335160032571058,1209.1797157647059,1154.83456,49.26814081848914,64.80758332972006,594.9640145293154,749.3636248073718,746.59762582857,136.0,529.8801006758243,753.3776586968636,0.7033392808493569,1219.9869910588236,1112.840576,129.88873488510768,70.53911222273783,728.3141039367808,966.4059964511346,962.8816156545524,136.0,683.3522334699398,909.6140557908582,0.7512551385057519,913.715256263736,713.8977279999999,89.29850523351155,74.16593694558652,438.76730346065904,635.6400594958656,633.8954725664894,182.0,449.465396463347,532.9389475946558,0.8433712688703747,976.6671015672513,713.8977279999999,43.29624496170256,70.73500217991646,456.3837569842057,591.0180400549241,589.290442300928,171.0,417.91286392641933,573.8002146744511,0.7283246907872362,933.0171752402233,713.8977279999999,89.29850523351155,72.6081278285925,408.6587626580396,532.9934346868008,531.4942057802372,179.0,376.8832719949461,512.8191379420152,0.7349243507319349,truth
1783335151032571058,1783335161032571058,1235.2452626962963,1175.831552,119.06467364468205,63.79706377947613,607.5417231620478,745.6416895966796,742.8608446907599,135.0,527.248295049207,774.0920542476023,0.6811183400683254,1234.4996178823528,1175.831552,32.47218372127692,68.78492508067447,693.4925355152665,914.9130604702007,911.5335344038427,136.0,646.9412292546167,867.5236691733828,0.7457332315452011,927.6004465777778,713.8977279999999,44.649252616755774,73.57873099507597,450.89913510031374,615.7345193108574,614.0222657851413,180.0,435.3900540153465,558.4243999868548,0.7796759132043576,993.8576213333333,713.8977279999999,44.649252616755774,70.14764605518134,484.71598720528357,643.7527188910157,641.833504988965,168.0,455.2019129351144,605.2229223475359,0.7521227239204347,938.022923505618,713.8977279999999,44.649252616755774,72.38054283535801,412.49253417189897,539.8099118423248,538.2946294513813,178.0,381.70324921542027,517.1571291825202,0.7380798362362048,truth
1783335152032571058,1783335162032571058,1265.5459723636363,1175.831552,47.625869457872824,63.02401219602704,639.2706380555655,853.9032089728383,850.6378531737854,132.0,603.8007495416475,796.8978760082198,0.7576889934331053,1285.862300775194,1217.8255359999998,47.625869457872824,66.19238802062223,735.0858015015511,987.2224162796339,983.3762490656172,129.0,698.0716650906978,914.9045012115231,0.7629994870134602,943.5597421920902,713.8977279999999,43.29624496170256,72.87526755962651,465.715148946473,638.4864969335856,636.6814766076391,177.0,451.47813167778213,576.0772068263425,0.7837111524773093,954.5832477257142,713.8977279999999,43.29624496170256,71.91643271926232,445.8157704349275,618.5334412339931,616.7641098006835,175.0,437.36919068720744,549.415596662294,0.7960625678343138,938.2588447640447,713.8977279999999,43.29624496170256,72.41853507150708,418.7292318273486,551.4237065390646,549.8769092802568,178.0,389.91544220079334,524.0718587561469,0.7440114092869521,truth
1783335153032571058,1783335163032571058,1251.6714335522386,1175.831552,47.625869457872824,62.21136610192793,618.3308266452599,845.9057598509235,842.7244539748082,134.0,598.1456990353472,765.3606233158189,0.7815213911109822,1336.416546816,1259.81952,109.90585259509113,62.97789525830931,757.3214666328845,1004.1540620882762,1000.1356185483617,125.0,710.0441466586375,946.0392500017481,0.7505440674446916,938.2588447640447,713.8977279999999,89.29850523351155,73.0179244270767,440.9576816909175,595.426330887983,593.7420005709769,178.0,421.02999626791785,547.9545831597502,0.7683665931582712,943.5597421920902,713.8977279999999,89.29850523351155,72.52028015987668,434.9663405435558,597.3950810650832,595.6955661431964,177.0,422.42211286860766,537.7464217375284,0.7855414667450636,943.5597421920902,713.8977279999999,89.29850523351155,72.1053277583418,426.21682925385875,575.8362010489242,574.1980219806686,177.0,407.1776826143944,529.5514502565466,0.7689105230797367,truth
1783335154032571058,1783335164032571058,1237.568976238806,1175.831552,129.88873488510768,62.25125897928112,602.1259738140915,827.5547568363692,824.4479967178752,134.0,585.169580362181,744.2443535509763,0.7862600200729645,1336.6956036129031,1238.822528,23.044775544132012,63.72251560175665,773.6587928311886,1043.933624721889,1039.722196701529,124.0,738.1725451495001,961.5854107897949,0.7676619641548063,938.0229235056178,713.8977279999999,95.25173891574565,73.09712409616378,441.24769799101193,595.6533235063889,593.9684931938197,178.0,421.1905042876719,548.3596826114069,0.7680916698358858,954.1033164799999,713.8977279999999,44.649252616755774,72.40637920627387,457.4724140768835,644.4417033636392,642.5973884953834,175.0,455.68909852783884,561.0131389050581,0.812261009460879,922.4755822320441,713.8977279999999,44.649252616755774,73.18726629339696,410.7380068528756,554.6725399448309,553.1422322471467,181.0,392.212714332956,510.3881012570075,0.7684597532093642,truth
1783335155032571058,1783335165032571058,1244.1501229850749,1175.831552,75.19874124927287,62.77771123007573,617.2189103627685,880.6766228567252,877.3741061712511,134.0,622.7324120544581,753.6713727528894,0.8262651794506158,1291.721926449612,1175.831552,84.04565198448147,67.16765052255573,778.1251096555086,1046.947290397613,1042.8645477233176,129.0,740.3035285850337,967.9528476816776,0.7648136273973658,939.5264216949154,713.8977279999999,43.29624496170256,72.97834109390851,436.63681712644234,578.1432154787726,576.5055336603513,177.0,408.8089881620354,545.6565089317518,0.7492057392706138,966.8382362790697,713.8977279999999,89.29850523351155,71.37061430409449,444.2590083607682,637.6922783424719,635.8249944436218,172.0,450.9165343262612,541.3587281599724,0.8329348191334871,908.7222767213112,713.8977279999999,89.29850523351155,73.52211263564583,363.8942711174935,498.3186067863237,496.9477675026283,183.0,352.3644660500422,450.28626743095106,0.7825343376790308,truth
1783335156032571058,1783335166032571058,1212.921129109489,1133.837568,52.91763273096981,63.65717057884634,593.8205460227364,869.9043797973541,866.7011812830768,137.0,615.115285938587,718.3747450041842,0.8562596196710733,1301.813504,1175.831552,34.018478184194876,67.28363009845373,806.9036108167303,1087.5790449758438,1083.2597849860947,127.0,769.0345177788083,1003.2346831776264,0.7665549553599793,961.0068361618496,713.8977279999999,44.649252616755774,72.25533720808261,489.34954202308967,621.8580936889839,620.0585468536532,173.0,439.7200749832199,618.262950842755,0.7112185428284792,989.608230095238,713.8977279999999,44.649252616755774,70.90192139860274,480.79995507371984,686.2156272468093,684.1684021641142,168.0,485.227723382399,587.0385181811745,0.8265687997540322,898.6712576,713.8977279999999,44.649252616755774,73.74909301979208,342.87571658460746,465.4126833080737,464.1588768581815,185.0,329.096464417366,425.4118858245627,0.7735948979880722,truth
1783335157032571058,1783335167032571058,1172.2575959148937,1049.8496,64.94436744255384,67.11382018980619,598.2482593138959,875.1600123416886,872.08501809699,141.0,618.8315793501106,724.1033750395981,0.8546177254266621,1309.749374992126,1133.837568,75.19874124927287,68.16211915537423,826.537810050895,1095.709416202337,1091.3820140854823,127.0,774.7835584066257,1032.5622120234898,0.7503504867646659,950.2638665142855,713.8977279999999,89.29850523351155,72.43763989756222,471.34751327903405,622.7322717768749,620.9402796495061,175.0,440.33821223713227,589.3963742428023,0.7471003071622809,1009.9041030243903,713.8977279999999,42.02282599224073,69.56186759993702,480.40231466059276,688.5883690847917,686.4868565947318,164.0,486.9055052260414,585.6912858774638,0.8313347269570099,898.8982521081082,713.8977279999999,89.29850523351155,73.93155073261865,352.2540064382621,477.3436425414401,476.04480057762265,185.0,337.5329265973396,437.2659737904744,0.7719167436501152,truth
1783335158032571058,1783335168032571058,1165.8469683916085,1049.8496,49.26814081848914,65.8593324206342,569.2842646313924,823.9333094080439,821.0296198080415,143.0,582.6088303279016,691.7026986544056,0.8422821415346098,1365.6721242975207,1217.8255359999998,35.71940209340462,64.71383119102362,838.217508654441,1110.6986436395932,1106.0984740458603,121.0,785.3825427722569,1047.2842567249866,0.7499229915173792,952.1049820689656,713.8977279999999,84.04565198448147,72.324445571227,471.68749358957643,623.5541369719717,621.7493929099207,174.0,440.9193586898065,589.7230220908102,0.7476719445792812,978.212803764706,713.8977279999999,43.29624496170256,71.07909272607363,461.8241852038641,656.882375484856,654.948120293487,170.0,464.48598214726957,564.5259447295307,0.8227894333001982,894.0654658064516,713.8977279999999,89.29850523351155,74.33282915004878,352.19130093513775,481.68879471130225,480.3852226910237,186.0,340.6054131619366,435.97178942124543,0.7812556257690249,truth
1783335159032571058,1783335169032571058,1142.5259784827588,1049.8496,71.43880418680924,68.41180258003705,576.9164553145547,812.3356643083171,809.5271595222183,145.0,574.4080568320899,707.5965552125112,0.8117733934693604,1348.5872910569105,1259.81952,119.06467364468205,64.60272533308999,786.3197053027989,1086.2067970947273,1081.7552252084438,123.0,768.0641919966021,970.3793363325831,0.7915092204038436,960.2786167861271,713.8977279999999,49.26814081848914,71.85783993451659,474.02683503897794,623.2783006043276,621.4707099633408,173.0,440.72431292374745,593.5351048363409,0.742541274025015,996.2884108263471,713.8977279999999,40.82217382103385,71.3415537915448,607.0766170979974,885.8462561656179,883.1857528136634,167.0,626.3878948234238,735.4611754971413,0.85169403320306,893.162369376344,713.8977279999999,49.26814081848914,74.48559382554488,359.7990727570476,491.8702514469563,490.5466339222394,186.0,347.804790262075,445.4510741361384,0.780792348377589,truth
1783335160032571058,1783335170032571058,1131.5521811156464,1049.8496,51.02771727629231,68.34216683268107,562.0514796267735,807.6570162583942,804.8867776061956,147.0,571.0997530692042,684.6358649117337,0.8341656964506715,1343.46882683871,1259.81952,95.25173891574565,64.37801484719863,776.1893378042311,1061.0152611399833,1056.8050717403369,124.0,750.2510860944977,960.9898179215817,0.7807065924144052,965.861632,713.8977279999999,84.04565198448147,71.48995356336951,475.12939950030795,630.9230412192254,629.0824345529558,172.0,446.12996085295396,593.278957619194,0.7519733425963001,998.184274230303,713.8977279999999,49.26814081848914,71.32871210428658,612.9631461567226,895.2125765626198,892.4790966652643,165.0,633.0108834909098,742.3585708966552,0.8527023305278604,883.6606420425531,713.8977279999999,84.04565198448147,75.09485131904313,366.0391569601117,490.1093993311265,488.80461808354687,188.0,346.5596797903051,455.979739712149,0.7600330664013304,truth
1783335161032571058,1783335171032571058,1105.7469976216214,1007.855616,37.599370624636435,69.79432987644093,549.9260586278493,809.2842468586291,806.5367981256875,148.0,572.2503788611846,664.1551715243486,0.8616215056306391,1277.263174892308,1175.831552,59.53233682234102,66.52568896448591,746.680550122433,1031.1131931849052,1027.1088549772537,130.0,729.1071310719611,921.5557951487721,0.7911698183768213,938.8146592542371,713.8977279999999,84.04565198448147,72.6403897496426,437.97933895921847,570.99500828532,569.3790016618208,177.0,403.7544423822186,549.6753385759814,0.7345325759533011,987.4872764550896,713.8977279999999,84.04565198448147,71.99729286813776,614.6277371800173,893.4862941573489,890.7911487630017,167.0,631.7902174958997,745.6239475501701,0.8473309093299863,883.8840142978721,713.8977279999999,84.04565198448147,74.77291659264515,347.79355402342543,489.76945125197153,488.46687585579673,188.0,346.31930019828326,426.5585347822458,0.811891620865296,truth
1783335162032571058,1783335172032571058,1099.6305479205298,1049.8496,158.7528981929094,69.03174300631747,512.4964795577046,714.708245278743,712.3232759561049,151.0,505.3750468065374,630.5579387738501,0.801472815946562,1276.2940829538463,1238.822528,46.089551088264024,66.17725913921636,695.7432587505506,958.3093109661377,954.593258048291,130.0,677.6270122583638,859.3766230952368,0.7885099431931705,936.8433172134831,713.8977279999999,36.63528419836371,72.72914672543459,434.3089284252955,557.807543327853,556.2540733589075,178.0,394.4294964841338,547.2304603834597,0.7207740157734385,1013.7450161951217,713.8977279999999,95.25173891574565,70.60321589981685,621.6524216921426,911.1129233086779,908.3139447977733,164.0,644.2541264982649,751.91208065597,0.8568210872954933,890.1826340962568,713.8977279999999,44.649252616755774,74.72862932328981,371.84689273020285,523.6296997812323,522.2311770307842,187.0,370.2621115459854,456.06272336485483,0.8118666415316123,truth
1783335163032571058,1783335173032571058,1095.4117002875817,1049.8496,38.6155698307077,68.8142510057841,504.2258152940187,703.5924103945456,701.3054884295493,153.0,497.5149645813715,620.2634727489875,0.80210263289631,1252.8205226666666,1196.828544,39.68822454822735,67.32509783055009,696.7135471179329,964.7395395927514,961.0761494087961,132.0,682.1738705248223,859.1501257998486,0.7940100921125215,960.793392551724,713.8977279999999,44.649252616755774,71.64997950753136,450.6686694467911,579.3579002153889,577.6925033992675,174.0,409.66789997630065,567.706442720519,0.7216192545096402,1027.1780012760735,713.8977279999999,37.599370624636435,70.15540737975054,627.8194741991775,916.6922567093175,913.8747931357456,163.0,648.1993109803577,760.4166035731718,0.8524265618800158,913.5412584918034,713.8977279999999,44.649252616755774,73.459121484488,389.2362722679137,536.7132809649406,535.2479530376883,183.0,379.5136005231903,480.6188352603392,0.7896353049035568,truth
1783335164032571058,1783335174032571058,1087.1468884210526,1049.8496,39.68822454822735,70.2095576948536,513.263314945931,690.8164423400586,688.5575215081232,152.0,488.4809909338211,638.4133627100298,0.7651484437296958,1244.7768988656717,1196.828544,178.5970104670231,68.07869368632204,685.7602338471489,947.7806682113617,944.2522485467186,134.0,670.182137569771,846.1454649724236,0.7920412805044257,981.2677089704143,713.8977279999999,42.02282599224073,70.61660655925927,463.6491932615992,613.0739273091834,611.2613499218107,169.0,433.50873136899213,579.6345734492439,0.7479000584614931,1023.6681655308643,713.8977279999999,42.02282599224073,70.4998212601512,633.9227557231166,923.4571907080074,920.5955229568225,162.0,652.9828416851109,768.4548293033228,0.8497348403381131,936.916626079096,713.8977279999999,42.02282599224073,72.44714226784191,419.7000909523362,574.8585549854931,573.2374588806041,177.0,406.48638245334195,519.3079463389678,0.7827463171303297,truth
1783335165032571058,1783335175032571058,1104.3583474437085,1049.8496,21.011412996120367,69.28092316140494,526.2902295890624,684.7306860893507,682.5712717701447,151.0,484.1777114202971,660.8697174207014,0.732637157759304,1293.611554,1238.822528,102.05543455258461,64.1499839045982,692.1625391103229,960.264449406894,956.4784668163845,128.0,679.0095039079811,853.0246232651302,0.7960022318100621,990.858051047619,713.8977279999999,44.649252616755774,70.22659220526202,477.66213398678474,610.9171608647802,609.0970003317345,168.0,431.9836671907189,602.5091568846462,0.7169744430513686,1015.0253205853658,713.8977279999999,44.649252616755774,70.79666697734817,626.225322629446,906.1629212121727,903.3872696660688,164.0,640.7539464489384,760.9425073287489,0.8420530332814151,964.152574511628,713.8977279999999,42.02282599224073,71.492046033629,462.7336640850031,616.8745814655699,615.0823782752631,172.0,436.19619969591787,577.1579726907395,0.755765700787861,truth
1783335166032571058,1783335176032571058,1157.9180343496505,1091.843584,44.649252616755774,67.60733791245562,578.6645041598464,697.4529174503215,694.999050349567,143.0,493.1736874874636,740.3344337082603,0.6661498709673768,1296.5642560000001,1280.8165119999999,25.513858638146154,62.54498532583464,648.2159003225742,905.0766113330955,901.5181610794126,128.0,639.9858093669731,797.230699839426,0.8027611198312804,973.7201553216375,713.8977279999999,43.29624496170256,70.6451824459469,418.05839164153394,575.9962895251981,574.3132842178458,171.0,407.29088226155756,516.3358463801572,0.7888100063494056,1021.5101015950921,713.8977279999999,43.29624496170256,70.15425951241967,625.4158130790441,910.1336426154221,907.3297193975554,163.0,643.5616704793787,758.422090028725,0.848553436062238,979.4479209411764,713.8977279999999,43.29624496170256,71.10783204682636,488.184769241748,640.3917434567537,638.5066602403692,170.0,452.82534441414646,611.6562282584412,0.7403265486292336,truth
1783335167032571058,1783335177032571058,1162.0293334825171,1091.843584,29.76616841117051,67.40554431671544,578.0479470570716,671.6399451617951,669.3296390247981,143.0,474.9211597396662,745.3212758331505,0.6372032774843037,1310.1456436825397,1322.810496,14.72965034779572,62.7260952611103,669.1689861918605,902.2838096398453,898.7889900301564,126.0,638.0110003511666,831.8925687115715,0.7669391750178907,973.9657341754383,713.8977279999999,42.02282599224073,70.34490477954728,407.154826508466,554.6474762342857,553.0296982234173,171.0,392.19499161326786,504.6203025790901,0.7772081099566904,1015.0253205853658,713.8977279999999,95.25173891574565,70.95964657731099,629.1726693525435,930.6179662171922,927.7590611746157,164.0,658.04627460621,758.422076392067,0.867651793229226,977.649416982456,713.8977279999999,95.25173891574565,70.87197890200898,469.7999651051974,616.9460522213835,615.1290270791341,171.0,436.24673715201016,588.4457550087363,0.741354208843827,truth
1783335168032571058,1783335178032571058,1174.0571583098592,1091.843584,102.05543455258461,65.27438344954348,554.1164304654413,681.305361615714,678.8850862519754,142.0,481.75564125722434,705.723591841696,0.6826406922291031,1310.0800362834648,1301.813504,79.3764490964547,61.94180939508892,655.4982710869892,863.9214198173505,860.4904618221043,127.0,610.8846943651588,820.2230866607312,0.7447787124014945,1006.0740530424241,713.8977279999999,44.649252616755774,69.03712385301507,443.8257703211156,587.7027086543648,585.9095912123478,165.0,415.5685706112032,554.6296154753586,0.7492722332452987,1003.0490756626504,713.8977279999999,95.25173891574565,70.59495835543238,502.38593806151863,720.4424225465658,718.3973396074266,166.0,509.42972243714075,612.391982697939,0.8318686998363527,1005.8195440484848,713.8977279999999,95.25173891574565,69.20192843034457,475.1259367435827,638.8326752576921,636.8871840734829,165.0,451.7229167182577,591.1535458649545,0.7641380481906999,truth
1783335169032571058,1783335179032571058,1218.438586861314,1133.837568,43.29624496170256,62.637999100035735,561.8870338409102,699.7591217034621,697.1823466895089,137.0,494.80442015366066,713.4552337009466,0.69353253964784,1298.532724,1259.81952,28.01521732816049,63.29784207740925,699.9338663905781,929.7871081458895,926.1344060579842,128.0,657.4587692297883,873.8929099279576,0.752333337140804,1007.0966885783131,713.8977279999999,44.649252616755774,69.00312968948859,442.9645545898994,595.6350505429731,593.8396241455722,166.0,421.1775833513282,551.1260426501577,0.7642128129638798,1013.745016195122,713.8977279999999,44.649252616755774,69.79240855611845,503.3668717179956,721.6626595725802,719.4455647491266,164.0,510.29256031289043,613.6425397012332,0.831579506468601,992.5164960958081,713.8977279999999,95.25173891574565,69.94432208993753,471.32178399646176,630.5394317024682,628.6520579025292,167.0,445.8587079623272,587.2763015875039,0.7591975136015163,truth
1783335170032571058,1783335180032571058,1202.1155563741008,1091.843584,102.05543455258461,65.89214129185385,610.2130333282355,777.5819789947677,774.7597696006811,139.0,549.8334902756559,770.4293988244073,0.7136714812734858,1310.4106975748032,1301.813504,54.95292629754557,64.09207942665024,729.1125807225463,997.2167582999767,993.2518896911206,127.0,705.1387321067799,902.5519347811542,0.7812721960180142,1009.6371789575755,713.8977279999999,84.04565198448147,69.01370295691675,449.937603163329,601.5681103986509,599.7313115823699,165.0,425.3728902084637,560.7286737973828,0.7586073444893431,1030.6898448,713.8977279999999,84.04565198448147,69.00394842081964,513.1284238727475,729.6011055538994,727.3723874198478,160.0,515.9058892983643,627.3134108768056,0.8224053246004651,995.5340278802395,713.8977279999999,44.649252616755774,70.14322918602014,482.7891590685126,653.3712341922914,651.4002757523668,167.0,462.00323032959307,599.5391995613578,0.7705972030979951,truth
1783335171032571058,1783335181032571058,1203.6261313381294,1091.843584,95.25173891574565,66.2588640098033,618.8899407802598,789.4039165238519,786.5621032254255,139.0,558.192862469235,781.1913221114197,0.714540531454625,1326.0020387839998,1259.81952,75.19874124927287,63.68197493963001,772.1469629215944,1044.27923728003,1040.077774181365,125.0,738.416930133025,959.0579144892888,0.7699398743049234,1023.3135242208589,713.8977279999999,51.02771727629231,68.15378762008221,451.2036458704389,606.4681246627995,604.5934674808495,163.0,428.837723522554,561.4432861256332,0.7638130762625126,1059.332112516129,713.8977279999999,29.15869558645275,67.6219070840584,525.977376738373,745.3511618890651,742.941711974729,155.0,527.0428609370301,643.7525246931586,0.818704145957707,990.0399864242423,713.8977279999999,51.02771727629231,70.45913363046988,478.87585716270047,627.4597448949962,625.5501741568074,165.0,443.681040536833,600.181422805387,0.7392448744297433,truth
1783335172032571058,1783335182032571058,1200.4801947826088,1070.8465919999999,84.04565198448147,67.60882630814655,645.9957486687784,857.0605037665448,853.9312730597718,138.0,606.0332941004823,806.8350747315899,0.7511241306683297,1302.4748265826775,1175.831552,42.02282599224073,65.06489199582846,779.3930335161834,1079.1241801609654,1074.8483442933875,127.0,763.0560255341921,961.1346171765422,0.7939117079933801,1022.4622191304347,713.8977279999999,95.25173891574565,68.04648386959371,450.1213691610386,610.515600934108,608.6049756708624,161.0,431.6997214406878,558.6019774444343,0.7728216849780669,1080.6633674805194,713.8977279999999,95.25173891574565,68.10021774777273,725.0723144765047,954.5758520322624,951.4578996297159,154.0,674.9870581289391,907.5549339405582,0.7437423707214934,991.6651643373493,713.8977279999999,95.25173891574565,70.67012733709954,492.0955370900322,643.6885643342345,641.7352304001073,166.0,455.15654881297047,617.0350827012899,0.737651004899691,truth
1783335173032571058,1783335183032571058,1210.4689256642334,1049.8496,109.90585259509113,68.83966733531811,681.7872129203722,899.2408278093764,895.9866394106077,137.0,635.8592872638145,852.9414345684203,0.7454899732776529,1293.2834759999998,1175.831552,54.95292629754557,65.46502648640087,788.0419127110113,1067.0137922740382,1062.8108724493568,128.0,754.4926881365467,978.4633381750704,0.7710995994430913,996.2187288674695,713.8977279999999,95.25173891574565,69.1557601405196,434.85948809939805,580.6460333301255,578.8840496187522,166.0,410.5787476368019,542.1421352142247,0.757326761688729,1084.9818219084966,713.8977279999999,95.25173891574565,67.27727505600073,722.0494002983576,950.1231625302395,946.992640242565,153.0,671.8385311875406,903.8955509063642,0.7432700941097312,978.5343727337279,713.8977279999999,95.25173891574565,71.22033789762831,475.8981031933638,615.3836477456591,613.549618881598,169.0,435.1419503522692,598.5680836528913,0.7269715212624122,truth
1783335174032571058,1783335184032571058,1220.6045496470588,1091.843584,54.95292629754557,68.26953693532761,690.4139096496737,908.8338657234226,905.4874187732187,136.0,642.6425894250162,864.2036706726317,0.7436239988715058,1269.1874087384615,1091.843584,43.29624496170256,65.99263947378567,777.3309602308917,1049.5590200132506,1045.4848717812429,130.0,742.1503003068768,965.9675508753731,0.768297340458621,976.7306631529411,713.8977279999999,95.25173891574565,70.4608117354048,438.63959932654524,578.1392372726532,576.4264425931779,170.0,408.8061751455115,548.8607763141332,0.744826726170603,1114.3906895033554,713.8977279999999,95.25173891574565,66.32539555080686,747.9289791542654,1010.8505754993699,1007.429911391357,149.0,714.7792967019286,929.1613391766962,0.7692736089679264,994.2767229700596,713.8977279999999,95.25173891574565,71.1243689225252,510.94684697677053,693.4922239210067,691.4004217008516,167.0,490.37305423468354,633.9562246017313,0.773512484308754,truth
1783335175032571058,1783335185032571058,1196.3753715107914,1007.855616,49.26814081848914,69.18289764196933,677.3093963423353,930.0591899900033,926.6850821154721,139.0,657.6511601467989,837.4028376629864,0.7853462283244272,1293.6751350077518,1133.837568,71.43880418680924,64.81767639295923,776.8014040897647,1069.524751891591,1065.3904570000643,129.0,756.2682047094037,959.6197393053499,0.7880915468212978,961.9552148837208,713.8977279999999,84.04565198448147,70.94049251981887,414.08509031404463,550.2842219999197,548.6728994966059,172.0,389.10970495610684,516.9426881147142,0.7527134320734602,1120.696593414966,713.8977279999999,79.3764490964547,66.48480818749972,761.0641822553856,1030.7761498160762,1027.240029103454,147.0,728.8688054203081,944.8875654101414,0.7713815189259398,982.7586196449704,713.8977279999999,44.649252616755774,71.30004784346905,482.63336540010454,665.9589441841932,663.9831873233418,169.0,470.90408542447653,595.8142344389988,0.7903538690509232,truth
1783335176032571058,1783335186032571058,1196.3753715107914,1049.8496,142.87760837361847,69.63266261927828,686.3990071431804,960.9580565530719,957.4700423783664,139.0,679.499958224523,843.4613787250269,0.8056088581692414,1237.8823641791046,1091.843584,40.82217382103385,68.24562318388962,764.6071662134574,1046.5454472473766,1042.638495619223,134.0,740.0193825685282,946.2736887187525,0.7820352519475723,961.0068361618495,713.8977279999999,71.43880418680924,70.73509228690857,410.70319887200753,540.7959258106624,539.2323865360595,173.0,382.40046637877646,514.0419990468159,0.743908993988543,1099.6305479205296,713.8977279999999,95.25173891574565,67.44046420917326,748.8192512647211,993.7350602016681,990.4172290429021,151.0,702.6767997714217,935.1915310035756,0.7513720735017382,979.4479209411762,713.8977279999999,89.29850523351155,71.48405391336466,475.77935708496733,661.7242528123386,659.7658769109648,170.0,467.90970643920593,585.885864794806,0.7986362780796585,truth
1783335177032571058,1783335187032571058,1195.7711415251797,1007.855616,42.02282599224073,68.17967473861493,674.0936559779019,920.269974290219,916.9394973880612,139.0,650.7291393429836,834.913353387211,0.7793972113429504,1212.921129109489,1049.8496,32.47218372127692,68.52229131259875,719.9219450488499,973.681029147922,970.0947148290741,137.0,688.4964584231922,894.1820437110105,0.7699734782928681,943.4330269090908,713.8977279999999,52.91763273096981,71.38684342822125,383.2780781473368,506.56912711764704,505.13618588597393,176.0,358.1984649246384,479.21926113152875,0.7474625791936306,1119.3666681081081,734.89472,36.63528419836371,66.71373876655478,760.5861874216367,1012.936258535508,1009.5028432471506,148.0,716.2540973201876,948.9324164708379,0.754799904490563,1003.8080030843372,713.8977279999999,38.6155698307077,70.58609499125728,511.0300749741714,724.2775851148133,722.0848962032399,166.0,512.1415918961013,625.4270301012565,0.8188670576217112,truth
1783335178032571058,1783335188032571058,1155.7094346666668,986.858624,119.06467364468205,69.14141623120162,646.8604365620653,892.5638544617702,889.4484344099458,144.0,631.1379541319204,798.5545004604371,0.7903505067819588,1200.3028664172662,1049.8496,109.90585259509113,67.62145679845896,682.3570475568871,956.7158098761186,953.2431943211931,139.0,676.5002368317831,838.0906845230858,0.8071921682517502,927.4064668764045,713.8977279999999,43.29624496170256,72.33331406962297,370.6891821865887,492.7218034698787,491.3445170011214,178.0,348.4069284720166,462.7388525687804,0.7529234395122036,1154.83456,755.891712,43.29624496170256,65.2087481284903,779.8059794195365,1059.2349323700566,1055.5254697460587,144.0,748.992203548541,967.3159104391261,0.7742994770018059,1001.784196626506,713.8977279999999,43.29624496170256,70.72757044201866,510.9053297667711,722.9820781012539,720.7886126781264,166.0,511.22553010173874,625.597906529653,0.8171790934174217,truth
1783335179032571058,1783335189032571058,1136.6943016054424,923.867648,29.76616841117051,70.84665308592142,638.5306719303406,849.1925378298176,846.305204034687,147.0,600.4698020324778,796.9697901521506,0.7534411083735574,1194.6984143768116,1070.8465919999999,35.71940209340462,66.35836050982067,640.218105899929,917.8533068771436,914.5060237593514,138.0,649.0202974273254,780.4772725761195,0.8315684776894344,923.6356370386738,713.8977279999999,84.04565198448147,72.40764251611232,366.53628720593275,480.53355610042547,479.2550328012289,181.0,339.7885361062971,459.31424432820484,0.7397735652707079,1132.409201197279,755.891712,84.04565198448147,66.01732627349669,756.5053128257249,1023.9693031608494,1020.4565336204961,147.0,724.0556379919003,939.3999644523981,0.7707639614548762,1027.556497382716,713.8977279999999,95.25173891574565,69.93544771573765,538.39959032775,764.5469806206784,762.1690912376582,162.0,540.6163545325816,658.4946593072181,0.8209882143939442,truth
1783335180032571058,1783335190032571058,1173.746744283688,1007.855616,30.39949114332308,68.91750273627979,648.4410066481239,841.3317597022802,838.3259652489535,141.0,594.9113925130932,814.8568559782329,0.7300808579427169,1198.3500651594204,1049.8496,36.63528419836371,65.79223500603332,637.6814732403936,923.4161502934817,920.0770692569378,138.0,652.953821729697,774.6618462092795,0.8428888358512208,947.6242446628569,713.8977279999999,42.02282599224073,71.50438087089925,405.6628833682029,512.6848100718703,511.2259191280169,175.0,362.5229058131567,513.2380746452868,0.7063445284407366,1143.3948195310345,755.891712,89.29850523351155,65.73027281213153,768.7872883648022,1041.6063451425923,1037.9833965401579,145.0,736.5269099772626,954.3751070424478,0.7717373436737218,1047.2084689308174,713.8977279999999,89.29850523351155,68.60729388802092,536.1783849989295,770.5572545660921,768.1149576244582,159.0,544.8662599961725,653.0963944464952,0.8342815312247304,truth
1783335181032571058,1783335191032571058,1124.1903014054053,923.867648,89.29850523351155,71.59301328037957,622.0638155764675,798.1959218604628,795.4763880035598,148.0,564.4097490629808,783.9946421248287,0.7199153141318467,1198.490176460432,1091.843584,64.94436744255384,65.06886543239315,600.9065908111909,852.4548127173326,849.5315257871,139.0,602.7765787275342,735.1922604526113,0.8198897229364777,940.1853103542857,713.8977279999999,47.625869457872824,71.8837779115312,395.21734519253437,481.0877353257133,479.7038537234782,175.0,340.1803999944908,504.51179135067184,0.6742764110304829,1086.2443861333331,755.891712,47.625869457872824,66.13222977724537,530.3317449915946,765.6390566523185,763.0680230911996,150.0,541.3885689001256,644.9439729339258,0.839435038732567,1059.7462713885352,713.8977279999999,95.25173891574565,68.3970552372497,558.1903850724,802.3357526930639,799.7819561148934,157.0,567.3370515176782,679.8656830302306,0.8344840248282561,truth
1783335182032571058,1783335192032571058,1172.5784969014087,986.858624,21.981170519018228,69.4287252058412,653.8103396248865,823.809819308363,821.0467303606783,142.0,582.5215096410078,827.8105253037071,0.7036894214739445,1224.3099011764705,1112.840576,23.044775544132012,63.76367466998566,624.1887462792592,901.0904716874106,897.8816156534357,136.0,637.1671829927528,759.0995800432818,0.8393723297230955,929.9673328268154,713.8977279999999,84.04565198448147,72.59076970947844,390.8103670426218,478.72184409133126,477.3752258285579,179.0,338.5074622591095,498.1684805097833,0.6795039740625696,1075.5432875789475,734.89472,95.25173891574565,66.779381845296,522.699113543841,757.9255347415414,755.4203301008891,152.0,535.9342852501841,634.6778297260126,0.8444194206083177,1053.5705859240504,713.8977279999999,84.04565198448147,68.47655436266399,545.0544703812051,788.8663677626743,786.3500411993144,158.0,557.8127580949879,662.2621949185257,0.8422838603426736,truth
1783335183032571058,1783335193032571058,1196.9796014964031,1091.843584,29.15869558645275,67.5664339128279,657.1421001327346,842.003791814694,838.951038700965,139.0,595.3865909769561,828.51003806601,0.7186232678203469,1218.1320614306567,1133.837568,62.120699292877596,64.5966262365894,616.6469397923329,911.3745655600794,908.0190542954278,137.0,644.4391355084759,743.5428683156352,0.8667141639974824,968.0589916279067,713.8977279999999,84.04565198448147,71.02240455895503,434.7158092407562,543.2359307806232,541.6451925756056,172.0,384.1258104391646,551.5245692486587,0.6964799609244221,1097.9619127947021,755.891712,43.29624496170256,65.96627036671661,547.929447481194,771.820017825124,769.242982190589,151.0,545.7591684596672,671.9574568789302,0.8121930382238458,1038.633815453416,713.8977279999999,84.04565198448147,69.08342729537274,535.9738291967412,773.3131645071993,770.8927730788101,161.0,546.8149826038688,651.9452266621794,0.8387437475437085,truth
1783335184032571058,1783335194032571058,1188.638227971631,1007.855616,129.88873488510768,69.7096565106278,774.6714234921548,1054.370511828174,1050.5992249437816,141.0,745.5525387968328,960.3683328273175,0.7763193696755196,1233.2645007058825,1154.83456,54.95292629754557,64.41576043621566,638.5051701750593,947.774666644658,944.2578654013979,136.0,670.1778938212573,768.6406832826472,0.8719001067691563,992.7679570778442,713.8977279999999,89.29850523351155,69.82193019441551,452.7168390160314,550.0953889544554,548.4360305804053,167.0,388.9761798291468,578.1469003809465,0.6727981756416003,1115.6780073513514,755.891712,84.04565198448147,65.39993601151555,567.7812247114151,787.99961379684,785.3147691473457,148.0,557.1998704881261,699.6536217540768,0.7963938914390095,1036.2015551999998,713.8977279999999,89.29850523351155,68.82870472087514,523.3520273059655,739.281640750752,737.0215260367631,160.0,522.7510613815738,641.2178669397377,0.8152471856039258,truth
1783335185032571058,1783335195032571058,1170.3934821294965,1007.855616,30.39949114332308,70.25922053597341,747.4052863844698,1014.7088232882637,1011.02680240052,139.0,717.5074898769534,927.2652399481713,0.7737888351309901,1238.978061274074,1133.837568,59.53233682234102,64.75217483525064,651.3539156930979,964.9739233244195,961.3683704005194,135.0,682.3396048508846,784.6847639679464,0.869571624406814,978.2128037647059,713.8977279999999,89.29850523351155,70.6183032120327,447.38629751726626,557.5396613534772,555.9037383639933,170.0,394.24007532349503,567.9756860261522,0.6941143521156686,1107.2413781333332,755.891712,89.29850523351155,65.42518895311888,554.6948952590453,753.4209495066805,750.8960514662764,150.0,532.7490624841812,688.0858026903328,0.7742480086076422,1024.288044521739,713.8977279999999,84.04565198448147,69.14161021327645,511.29236070761215,729.9219545899668,727.6374205641476,161.0,516.1327638275047,624.2140989178445,0.8268521405112242,truth
1783335186032571058,1783335196032571058,1200.9070964028776,1007.855616,40.82217382103385,70.38338601396691,836.429687357339,1116.0574818738085,1112.0106068487062,139.0,789.1718136269523,1042.9924103624942,0.7566419523155244,1209.6093217391306,1112.840576,158.7528981929094,66.94722481640821,654.4318147398499,959.9079781451359,956.4265410948127,138.0,678.7574406614939,791.3318953894856,0.8577405316481226,972.7378399064326,713.8977279999999,84.04565198448147,71.11298994267543,453.4734410445507,576.6915862918454,575.0082675837533,171.0,407.7825313201909,572.8289684021053,0.71187484190559,1108.9211374933332,755.891712,84.04565198448147,65.09084772772695,544.7627822780056,738.2115727417909,735.7457830622892,150.0,521.9944090361066,676.2350895791126,0.7719126337572854,1002.0371724337347,713.8977279999999,84.04565198448147,70.10411561311975,497.3075254292115,697.9184319124979,695.8003134256126,166.0,493.50285592040905,610.6201890670269,0.808199376234902,truth
1783335187032571058,1783335197032571058,1210.4689256642337,1007.855616,31.060349646438798,70.47295920441816,845.8778797484679,1134.4149949667762,1130.2408745614814,137.0,802.1525356207108,1053.2304732081004,0.7616115902698716,1226.471356235294,1133.837568,64.94436744255384,64.41581829392624,631.9515609052538,949.2575159589078,945.7438580061021,136.0,671.2264266268411,757.2668570326147,0.8863803035789432,960.0358769942194,713.8977279999999,89.29850523351155,72.00225548615074,450.274635201973,574.9260429816013,573.2673357090222,173.0,406.5341036730388,568.2072733500682,0.715467968715311,1094.5882888366014,755.891712,36.63528419836371,65.59249617143448,538.8559551767611,723.8249642770805,721.4553200221739,153.0,511.82154063243416,670.634651752532,0.7631898222003882,975.4392072982456,713.8977279999999,51.02771727629231,71.15654521462433,458.6672380141453,632.647815667969,630.7901949535358,171.0,447.3495605616778,566.295378568187,0.7899579927576841,truth
1783335188032571058,1783335198032571058,1236.9422003582088,1028.8526080000001,24.63407040924457,70.90464739377215,909.3822096528053,1220.4638605636476,1215.8696173523817,134.0,862.9982719976682,1132.0640431223653,0.7623228360980513,1229.9571313777778,1133.837568,42.02282599224073,66.20194071783288,671.4700840695837,1012.7550715728288,1008.971442854805,135.0,716.1259787902145,803.3218152469819,0.8914559087008499,969.5238980465115,713.8977279999999,95.25173891574565,71.1603946756225,451.7836227511673,582.5091270694737,580.8035942529341,172.0,411.8961538538812,568.6718410406199,0.7243125544956597,1111.7207364266665,755.891712,95.25173891574565,65.39034060412759,584.8011924683077,780.0691445308729,777.465497734436,150.0,551.5921818921693,729.2858848643839,0.7563456160881845,969.5238980465116,713.8977279999999,95.25173891574565,71.38510974300839,462.1647427994184,609.9976536001082,608.2116177631624,172.0,431.33347736851914,578.0728454306566,0.7461576525830087,truth
1783335189032571058,1783335199032571058,1278.5552974769232,1070.8465919999999,64.94436744255384,67.59242173298506,906.0890243229081,1240.6353509592818,1235.8380830231818,130.0,877.2616696430605,1121.2495803720126,0.7823964307322185,1175.533722326241,1049.8496,68.03695636838975,68.60528203401863,634.6610865267113,943.8548445108011,940.4951613015668,141.0,667.4061610093619,763.4617853081478,0.8741841096080323,982.7586196449704,713.8977279999999,89.29850523351155,70.57153755837085,464.09481187924496,600.647283895661,598.8570272111442,169.0,424.72176754390324,583.5869248995001,0.7277780728501497,1116.0817224161076,755.891712,89.29850523351155,65.05697044196678,583.8519300042733,775.2734084769598,772.651677876769,149.0,548.2010844076666,729.0431659830293,0.7519459889161455,954.5184294252873,713.8977279999999,89.29850523351155,71.95414994708872,440.5327115880345,572.1394205392152,570.4834935407335,174.0,404.56366404742096,553.4458065831518,0.7309905671615885,truth
1783335190032571058,1783335200032571058,1255.7148448721805,1049.8496,52.91763273096981,69.40632657734426,910.2591350687841,1241.7591629703788,1237.0472420073957,133.0,878.0563247368862,1127.6754547506646,0.7786427566883855,1163.410796169014,1049.8496,59.53233682234102,70.63472494051967,646.4754058153113,961.682977408132,958.2956123598822,142.0,680.0125546769596,777.5939579169842,0.8745085372043974,938.022923505618,713.8977279999999,95.25173891574565,72.83701491449085,424.4210928898282,567.0422904876577,565.4384063448213,178.0,400.9594488233749,529.0390234937495,0.7579014609838364,1091.2946430326795,755.891712,38.6155698307077,66.08749710787396,566.5090703446867,744.5349281629971,742.0822214912073,153.0,526.4656965342942,709.4237018537882,0.7421033370587871,938.2588447640447,713.8977279999999,37.599370624636435,72.59161257320882,418.8957567732109,552.7844332913775,551.2432000793642,178.0,390.8776213146957,523.9796300075842,0.7459786581952395,truth
1783335191032571058,1783335201032571058,1316.3626008188978,1091.843584,30.39949114332308,64.70110906367408,914.3101485291023,1256.5446208887438,1251.5938407858455,127.0,888.5112222939102,1130.1327352729452,0.7862007661244504,1166.1406326153844,1049.8496,52.91763273096981,69.30095477258388,639.8796914543741,946.2912577812551,942.9667614199187,143.0,669.1289653546728,771.3787998987154,0.8674453659376322,927.6423881348313,713.8977279999999,84.04565198448147,73.4342944836505,418.9250855701303,559.1057569602198,557.524326985711,178.0,395.3474721470091,522.3472434821178,0.7568671550968824,1076.3003561558442,713.8977279999999,44.649252616755774,67.1397862067338,575.0303428234317,754.2100137131497,751.7557151412764,154.0,533.3070151353671,720.4940000714575,0.7401963306876594,915.7472643535909,713.8977279999999,95.25173891574565,73.61636779114247,393.29423117110315,543.3440937094101,541.8327024821158,181.0,384.20229317958285,485.34009055786146,0.791614582545554,truth
1783335192032571058,1783335202032571058,1328.6896537599996,1091.843584,36.63528419836371,65.47513116756097,935.8189743936749,1307.0576959019327,1301.8189662653356,125.0,924.2293601743208,1150.8320253478967,0.8030966638201836,1161.148340811189,1049.8496,62.120699292877596,70.10638410470952,620.4794150302549,899.2319821527701,896.0741815827681,143.0,635.8530324400442,753.5481865952402,0.843812039828563,942.0014138181818,713.8977279999999,43.29624496170256,72.84584727561717,436.0814404394708,581.3049689061481,579.6560730135778,176.0,411.04468545097245,543.9257106193667,0.7557000476828297,1056.0015849171973,713.8977279999999,43.29624496170256,68.09702474401448,566.1468789913885,740.8495883583719,738.4854321924402,157.0,523.859767767467,709.8098682328159,0.7380282963263091,901.0448306086957,713.8977279999999,89.29850523351155,74.08473324231319,364.26967523421655,498.1260050531551,496.76314065226956,184.0,352.22827605845043,450.9461313315918,0.7810872554075606,truth
1783335193032571058,1783335203032571058,1350.2943635772358,1175.831552,27.476463148772783,62.18439752107237,830.6563192960432,1107.4865986987331,1102.9410117946265,123.0,783.1112840130987,1036.0251927431968,0.7558805418037853,1197.2817164892087,1133.837568,178.5970104670231,68.58122534719367,629.8563403013521,911.6494166006248,908.3421684030574,139.0,644.6334845430617,765.2854723164164,0.8423438152978949,929.9673328268154,713.8977279999999,95.25173891574565,73.41996286550048,420.3904845855404,529.5896287629894,528.1001330038832,179.0,374.4764177443761,532.2969334279511,0.7035103796912315,1011.184407414634,713.8977279999999,84.04565198448147,70.08337834698212,534.3946298659816,711.9738422708587,709.7865134695209,164.0,503.4415318971656,666.6547478565773,0.7551757990411477,899.8062301405406,713.8977279999999,44.649252616755774,74.00820277804216,356.6972526331857,503.4665156778176,502.1082069748582,185.0,356.00458733614806,437.14554437845396,0.814384572630897,truth
1783335194032571058,1783335204032571058,1343.46882683871,1196.828544,52.91763273096981,62.23219231671834,821.8907321640318,1091.4673389430307,1087.0334885620402,124.0,771.7839568102529,1026.2472963371993,0.7520448137255447,1194.562681553957,1133.837568,89.29850523351155,68.21963127635168,615.4448824092931,877.6108762494358,874.5325618228916,139.0,620.564601839044,751.6612229187772,0.8255908152735728,908.7222767213115,713.8977279999999,31.750579638581883,74.14769137215526,386.5918216089884,510.5134475444397,509.1499973016416,183.0,360.98752064559613,483.47748452123864,0.7466480491910856,1019.2613894320988,713.8977279999999,84.04565198448147,69.18023602344765,517.2291288474877,703.7673178582368,701.5783491662945,162.0,497.6386428350276,641.2720437032305,0.7760179906818551,885.4667321497327,713.8977279999999,51.02771727629231,74.66479730696834,332.5570117116198,463.29611214364377,462.0569571020137,187.0,327.5998225941337,409.3012462664522,0.8003880407949419,truth
1783335195032571058,1783335205032571058,1366.019182016529,1343.807488,21.64812248085128,60.608449145984174,800.0207454206553,1054.6318448986053,1050.3464112598156,121.0,745.737329183083,1001.0016504173622,0.7449911085282945,1230.8903310222222,1217.8255359999998,38.6155698307077,66.09441906824063,610.7625493354365,902.8740260511205,899.522859258607,135.0,638.4283463779469,736.3874025348363,0.8669734764341583,901.1495910819671,713.8977279999999,84.04565198448147,74.53863583886893,380.2645974021438,495.12139401423275,493.7593507265878,183.0,350.10369521800044,477.4055187910795,0.7333465606023117,1017.9652788148148,713.8977279999999,84.04565198448147,69.53734347811742,535.0451973225455,750.800109566238,748.4649820969223,162.0,530.8958487898898,656.979090401418,0.8080863707024669,898.6712575999998,713.8977279999999,32.47218372127692,74.30610309323906,364.92033564217286,496.5538747510608,495.2469337300115,185.0,351.11661206093066,452.4292929263302,0.7760695815911803,truth
1783335196032571058,1783335206032571058,1332.04917248,1343.807488,79.3764490964547,62.16839590295541,752.7922522115273,1013.566617755184,1009.477063098577,125.0,716.6998285990039,936.2494474350768,0.7655009362755354,1266.871944793893,1217.8255359999998,32.47218372127692,64.96385872820456,682.8610908471138,1010.1703584355588,1006.2863497039893,131.0,714.298310603429,823.0962887295533,0.8678186506051999,891.4074333405405,713.8977279999999,84.04565198448147,75.01318232508025,368.68377453502507,474.0822432269671,472.7922762119239,185.0,335.2267690259186,464.3995670486872,0.7218498741424834,1009.1281609696968,713.8977279999999,37.599370624636435,69.86818476285768,523.5284196465162,727.8204100055036,725.6179771752918,165.0,514.646747400865,644.7738945165295,0.798181737470563,895.194336344086,713.8977279999999,84.04565198448147,74.67930809385801,377.6088073511019,524.2213365141262,522.8026515639688,186.0,370.68046189181365,465.268546501995,0.7967021727101087,truth
1783335197032571058,1783335207032571058,1305.7504399999998,1259.81952,47.625869457872824,63.249554691914625,746.193243138371,1003.1952447407825,999.2422831352084,128.0,709.3661604103055,928.4441488011493,0.7640375151550822,1265.634071630769,1217.8255359999998,102.05543455258461,64.79175912779773,666.8543194522956,970.6337883964529,966.8801603012876,130.0,686.3417338239203,808.6141718707113,0.8487876637582095,879.6517600846558,713.8977279999999,84.04565198448147,75.56844528896293,357.40150891687745,453.39255800432653,452.1853396397793,189.0,320.5969523043744,451.7526693210512,0.7096736202714783,983.7525600946745,713.8977279999999,84.04565198448147,70.35306579691171,462.74351468546485,650.8436905653234,648.9039572461883,169.0,460.21598709121923,567.7708546409735,0.8105664165911335,908.4928013989069,713.8977279999999,84.04565198448147,74.10945124774972,394.3376110187317,549.6300999622055,548.1182415655268,183.0,388.6471708275155,485.26383672369934,0.8008986893635025,truth
1783335198032571058,1783335208032571058,1278.2322668307693,1238.822528,39.68822454822735,65.30774369738258,732.7127948026989,1028.7312519480613,1024.736991350607,130.0,727.4228442710009,899.5354813188345,0.8086649825135365,1301.4854259999997,1322.810496,28.01521732816049,63.625412638231936,683.1044544572653,1013.6448066844679,1009.6657388224704,128.0,716.7551165211142,822.4320293307636,0.8715068126716299,889.2843670588234,713.8977279999999,84.04565198448147,75.32101480121932,373.621074488005,470.13593173307595,468.8704765771767,187.0,332.4363054079138,473.21080506103283,0.7025120767583434,988.2252921183431,713.8977279999999,84.04565198448147,70.49160386808025,478.54271232606044,682.213134482449,680.1797077999798,169.0,482.3975336070698,584.5105344009406,0.8253016929822736,923.8676479999999,713.8977279999999,62.120699292877596,73.70424645315545,438.5323142832154,627.1735973446476,625.4016161901765,178.0,443.47870366356165,535.0556055585522,0.8288460097537113,truth
1783335199032571058,1783335209032571058,1325.4767806984125,1259.81952,178.5970104670231,63.91587060719643,770.7605801935337,1091.5243622155533,1087.1495493754528,126.0,771.824278352939,943.5504149927696,0.8180000412154484,1332.385124352,1343.807488,109.90585259509113,62.16283947582959,706.3953299987768,1028.9572858910203,1024.8985707695585,125.0,727.5826744048455,856.329638889784,0.8496525652763152,908.5763603478259,713.8977279999999,46.089551088264024,74.46748995289299,400.35167305705085,491.4856137954963,490.14285124326716,184.0,347.532810370428,510.0719528627069,0.681340756769607,983.7525600946745,713.8977279999999,71.43880418680924,71.15856535655759,493.73582653057656,694.1207263929045,692.0897714764254,169.0,490.817472594555,605.8871488137125,0.8100806784820301,927.6423881348314,713.8977279999999,26.458816365484903,74.17867903965966,498.46669621818864,720.4978845945686,718.5023559163171,178.0,509.46894002738196,605.9362953735647,0.8407962089699383,truth
1783335200032571058,1783335210032571058,1272.4177152,1238.822528,59.53233682234102,65.93859200611566,735.8711406662096,1016.116013269772,1012.1732671105633,130.0,718.5025234552957,908.2344043389697,0.7910981130231853,1312.8119283809522,1280.8165119999999,31.060349646438798,63.160202927520466,700.5055443227496,1013.0405022971639,1009.0097896930599,126.0,716.3278087909509,851.383151366176,0.841369491093983,928.5597132513966,713.8977279999999,20.123606813185702,73.41381070694804,427.07210336669823,504.4970741329538,503.23923389087014,179.0,356.733302208184,548.7730300369487,0.6500561847657952,997.4836079036144,713.8977279999999,52.91763273096981,70.84123102169352,517.0432819530147,716.5842790215082,714.4140448369537,166.0,506.70160298778154,637.4121536261257,0.7949355846217321,917.0641533854748,713.8977279999999,64.94436744255384,75.07148382512867,500.06256931495665,727.2945339431731,725.2496536574281,179.0,514.2748968711273,606.535911289552,0.8478886201111009,truth
1783335201032571058,1783335211032571058,1269.757027664122,1259.81952,37.599370624636435,65.09711728252913,705.4841651044499,962.4586984888575,958.749842393486,131.0,680.5610723134499,873.9760453536635,0.7786953383122232,1330.3694131199998,1343.807488,38.6155698307077,63.0394335564735,703.4138903154411,1028.4690351838894,1024.3156031852866,125.0,727.2374290189141,851.5544980178232,0.854011611366878,955.7251531034481,713.8977279999999,43.29624496170256,72.17385401308057,449.93744810139356,543.9462280371451,542.3718507031577,174.0,384.6280664459095,575.2547606574229,0.6686221353585009,1037.3296544596274,713.8977279999999,84.04565198448147,69.9342848823638,574.486386880957,762.8876805072872,760.4999197817858,161.0,539.4430521703791,717.3352174232253,0.7520097146605164,938.2588447640447,713.8977279999999,84.04565198448147,74.58663457991481,569.5824746499239,817.7194409007493,815.4062270983238,178.0,578.2149617689921,694.0332267621659,0.8331228815463285,truth
1783335202032571058,1783335212032571058,1211.130842898551,1175.831552,32.47218372127692,68.81571947075126,705.1851541157008,949.4811946896248,946.0406252501083,138.0,671.3845913741382,877.0368113158421,0.7655147226566712,1329.697509376,1343.807488,34.018478184194876,61.09427944944371,680.5881269125437,1005.1755740574121,1001.1163041429038,125.0,710.7664646990768,820.8568165753619,0.865883611303144,965.1334126242774,713.8977279999999,84.04565198448147,71.33549169763127,441.5403786582628,522.6334599268512,521.1119619096961,173.0,369.5576635892642,567.1237771532651,0.651634931344787,1037.0688222608694,713.8977279999999,84.04565198448147,69.65709550802319,560.6637916829461,750.516976698347,748.1679350155782,161.0,530.6956436190272,698.4760851528771,0.759790714241666,948.6822749090909,713.8977279999999,84.04565198448147,73.7304235124489,565.929577716168,806.6027033771601,804.2948225285469,176.0,570.3542412813913,691.3035466379184,0.8250416825651318,truth
1783335203032571058,1783335213032571058,1166.1406326153844,1091.843584,119.06467364468205,70.39166677991933,662.4231883529851,929.4182154222211,926.176850826974,143.0,657.197922683352,813.4214197731777,0.8079427301860472,1314.378633070866,1259.81952,142.87760837361847,64.01674401941223,738.249722110713,1101.8888517430419,1097.50756659159,127.0,779.1530791813632,886.840202062463,0.8785721231055388,950.2638665142855,713.8977279999999,89.29850523351155,71.88828471480372,426.22636065324144,512.7924401545088,511.36467492956376,175.0,362.59901177445,545.5261674397574,0.6646775781190952,1030.926384987654,713.8977279999999,84.04565198448147,69.51243873775665,537.4197215902127,709.7102135710951,707.540405149398,162.0,501.8409046934743,672.0995220177002,0.7466764790828968,948.9208770909091,713.8977279999999,84.04565198448147,73.92003953623974,573.4983921497542,799.154921948635,796.8683509618057,176.0,565.087864528486,705.7893908794778,0.800646583571248,truth
1783335204032571058,1783335214032571058,1197.5838314820141,1175.831552,38.6155698307077,69.23663279379038,674.5109949503071,968.5830159001736,965.0674683794489,139.0,684.8916186851303,821.8223043609472,0.8333816386471832,1348.5487442580647,1301.813504,62.120699292877596,62.47984049787803,762.7309734694375,1142.3371344263562,1137.6940514251762,124.0,807.7543341540852,915.0319904828009,0.8827607587007833,938.183778909091,713.8977279999999,84.04565198448147,72.4083908691703,413.0142616765124,479.2493934451993,477.87814773499923,176.0,338.88049598464016,532.6739766658321,0.6361874445337012,1018.098051121951,713.8977279999999,32.47218372127692,70.11517187918956,527.8791889391874,703.3481796957176,701.2218532804527,164.0,497.34226739805626,658.5121189164773,0.7552515027610857,948.9675005057471,713.8977279999999,84.04565198448147,73.73158049008957,569.5789860472072,796.61252463802,794.3068395571869,174.0,563.2901181496796,700.1375322681889,0.8045420966432497,truth
1783335205032571058,1783335215032571058,1181.2307785142857,1133.837568,38.6155698307077,70.00534519901007,675.9482739746982,972.6314015961797,969.1268359881373,140.0,687.7542596636348,822.9879569811517,0.8356796157581999,1328.3537018880002,1259.81952,47.625869457872824,62.71950903597023,736.0363019256582,1087.537761037338,1083.1470394988228,125.0,769.0053256259368,887.589026568192,0.8663979641560557,951.6222925977011,713.8977279999999,84.04565198448147,71.8897648623415,432.0124582361253,524.6316804257423,523.1132627050526,174.0,370.97061885433607,551.7788761051435,0.6723175440729381,1026.519608888889,713.8977279999999,84.04565198448147,69.54427029988105,520.6269491727298,687.0723110992756,684.9571240635499,162.0,485.8334903438109,651.220201038008,0.7460356567093894,950.2638665142856,713.8977279999999,84.04565198448147,73.54230269619573,563.3261768202426,797.5981891837616,795.3029378374985,175.0,563.9870882339487,689.6608189063074,0.817774582480041,truth
1783335206032571058,1783335216032571058,1165.185189859155,1070.8465919999999,54.95292629754557,70.70337863058707,677.436172173442,958.2606527402816,954.8569369138528,142.0,677.5926056969005,829.6226040136883,0.8167480037534279,1318.1444977777776,1259.81952,46.089551088264024,63.94376401909346,748.4072062586763,1113.7419953020667,1109.3027036180065,126.0,787.5345173703274,900.0674334376156,0.8749727943855354,960.4588972163742,713.8977279999999,62.120699292877596,71.46673222460818,440.52104362527865,549.7837686585095,548.1688809585702,171.0,388.7558310047282,559.063530990281,0.6953696842219644,1030.9523072,713.8977279999999,84.04565198448147,69.57222262492988,531.1823738473694,704.7221399739243,702.5043244961307,160.0,498.3138040278572,663.4388479203611,0.751107363685273,950.1742241839079,713.8977279999999,84.04565198448147,73.40553738646871,544.2547837355561,764.1323269541714,761.9293513857622,174.0,540.3231501131506,668.1706263851881,0.8086604360869707,truth
1783335207032571058,1783335217032571058,1184.592886791367,1091.843584,71.43880418680924,69.11719546540284,662.7016142631617,911.0926947684928,907.8285255294044,139.0,644.2398227603265,819.0386953489268,0.786580446587896,1247.1897503759396,1217.8255359999998,46.089551088264024,66.36720453477862,698.4026047286077,1013.7531754638902,1009.9279987665253,133.0,716.8317448199127,847.7078042536988,0.8456118266493888,998.4955111325298,713.8977279999999,38.6155698307077,70.17340842601564,494.6023468412659,634.494206797145,632.5933552619649,166.0,448.6551562498409,623.3917214617076,0.7197002154565827,1031.477232,713.8977279999999,71.43880418680924,69.54514455201607,531.8060628367605,698.0470519214215,695.8497261370551,160.0,493.5938040009152,666.1966340847317,0.7409130859375317,941.7628116363637,713.8977279999999,52.91763273096981,73.39836857205465,516.7726384661989,719.1082276753701,717.0526566825997,176.0,508.48630419629393,636.2615491737895,0.7991781129263323,truth
1783335208032571058,1783335218032571058,1185.4301769142855,1091.843584,57.151043349447384,68.50601204858819,660.2917431063131,895.997189050345,892.7688199136602,140.0,633.565688301584,819.3092403556893,0.7732924970143534,1230.3610536119402,1196.828544,75.19874124927287,66.83587606017505,688.9167387276993,1012.763515550217,1008.9798278564703,134.0,716.1319495838859,832.3401114874914,0.8603838018860732,980.6978299401196,713.8977279999999,84.04565198448147,70.99752410703839,483.99275932363435,609.8384000052944,608.1053270596424,167.0,431.22086807169796,612.798713792022,0.7036908831013803,1023.1497212839505,713.8977279999999,44.649252616755774,69.42092339966095,513.055906455432,650.0867175056949,648.0798392849854,162.0,459.6807263075803,648.6906359955242,0.7086285831799057,920.8347491555554,713.8977279999999,84.04565198448147,73.89262740949331,465.93737324796155,635.3281968002098,633.5512252564941,180.0,449.2448762364497,577.3082297751081,0.7781716127820562,truth
1783335209032571058,1783335219032571058,1194.5626815539567,1091.843584,89.29850523351155,66.57287395575091,620.4493642945461,828.6139461901057,825.6082820402429,139.0,585.9185403367687,773.4756359135223,0.7575138933041671,1236.315424477612,1175.831552,51.02771727629231,66.43728267545032,693.4915227985538,1052.6600761237219,1048.7249481115207,134.0,744.343078111431,827.5491981874637,0.8994547753072875,934.7813387570621,713.8977279999999,89.29850523351155,72.90017521212252,434.8507550731097,562.7869431006391,561.198824175183,177.0,397.9504638297096,546.8163060335406,0.7277589556835565,995.0311059161675,713.8977279999999,89.29850523351155,70.57024342193246,488.2462292795278,625.9732684672946,624.1407919055355,167.0,442.62994297473125,615.4739048915458,0.7191693091402928,908.0338507540981,713.8977279999999,89.29850523351155,74.58503643021312,453.6899316126093,601.440525561124,599.785984894566,183.0,425.28267410467186,566.7772328230008,0.7503524303303899,truth
1783335210032571058,1783335220032571058,1207.5536262446042,1091.843584,119.06467364468205,66.9199130492344,668.3155781350825,914.1082504591152,910.8148463101393,139.0,646.3721426382114,827.2804546021277,0.7813216655155688,1305.4507782047244,1217.8255359999998,64.94436744255384,63.76622647082869,748.9538926003383,1096.220439417082,1091.9204933498647,127.0,775.1449063871155,906.3327498956734,0.8552542170371106,914.8192205082873,713.8977279999999,28.575521674723692,73.3772117272411,386.23555301493764,478.6608027550889,477.3295656370339,181.0,338.46429951631984,490.9956861337713,0.6893427153738894,972.4922610526316,713.8977279999999,43.29624496170256,70.99601003519355,456.15706759026796,581.2934141250772,579.6351088031097,171.0,411.03651498692216,575.9192932163389,0.7137050621996093,909.8696533333332,713.8977279999999,84.04565198448147,74.13529816881996,434.2850405428798,594.9455298629966,593.3132994035668,183.0,420.6900186027485,537.3238753328118,0.7829356518769585,truth
1783335211032571058,1783335221032571058,1230.176707764706,1091.843584,34.018478184194876,64.78258489991603,671.1863068332938,916.7709077589683,913.4303800010796,136.0,648.2549256709133,831.18282744095,0.7799185741923518,1280.3356648549618,1175.831552,32.47218372127692,65.3745965374834,731.0659036638461,1060.2221824392493,1056.2005546264634,131.0,749.6902947671941,887.6355907497235,0.8445924234898956,902.530164237838,713.8977279999999,84.04565198448147,74.03635992360157,378.4557014589292,487.9929223308379,486.6770887764602,185.0,345.0631045511757,476.36452730266603,0.7243677578283115,948.6822749090908,713.8977279999999,84.04565198448147,71.38372265360887,396.41895684988765,532.2512358360779,530.7405453345361,176.0,376.358458154611,493.42996887871345,0.7627393589608276,902.5301642378379,713.8977279999999,84.04565198448147,74.84250024335783,442.9129661385772,610.0671782825541,608.4167599479421,185.0,431.3826387429364,547.0816215547142,0.7885160490623306,truth
1783335212032571058,1783335222032571058,1260.4557924848486,1196.828544,42.02282599224073,62.18002594557978,659.4053828415668,906.867578257717,903.4016682037627,132.0,641.2522142242537,814.8795719105447,0.7869288129542763,1282.431665230769,1133.837568,37.599370624636435,64.38722086851992,725.7795600011966,1063.992917539272,1059.8608905993265,130.0,752.3566071264783,877.7765702544287,0.8571163011430155,897.9036256344084,713.8977279999999,84.04565198448147,74.61853452591176,396.0849997648896,513.0163057913653,511.63398943729476,186.0,362.7573086843459,497.9660847643645,0.7284779421393751,961.2495759537574,713.8977279999999,95.25173891574565,70.963360067836,407.4100176564628,551.531998189133,549.935529707669,173.0,389.9920159609026,505.8843333382189,0.7709114322387324,888.3514594042551,713.8977279999999,84.04565198448147,75.64586871684965,429.1200174199718,581.7419242361581,580.1896381743935,188.0,411.3536595278981,532.6181203240619,0.7723238166918117,truth
1783335213032571058,1783335223032571058,1256.6381575757578,1217.8255359999998,129.88873488510768,63.26798507228764,661.1920627459401,896.0053714571294,892.6535526395616,132.0,633.5714741369077,820.757870054534,0.7719346926211149,1285.211231255814,1091.843584,33.22735078456244,63.48494399818195,712.7662862817161,1027.8343400367241,1023.8119627031396,129.0,726.7886317763674,867.1566756244091,0.838128393871883,918.5607159560439,713.8977279999999,84.04565198448147,73.94147752694458,429.9602513536921,571.5743074363558,569.9931859912717,182.0,404.16406874025165,536.7097337089414,0.7530403183621606,960.793392551724,713.8977279999999,84.04565198448147,71.17225882128642,415.18514695883954,552.622989055633,551.0234980336082,174.0,390.7634630008173,518.0823974063111,0.7542496424451134,899.8062301405406,713.8977279999999,84.04565198448147,74.9137687162537,435.26270595761093,587.7680594285752,586.1688653186727,185.0,415.61478058680314,540.869137106172,0.7684202186326975,truth
1783335214032571058,1783335224032571058,1306.180878336,1217.8255359999998,43.29624496170256,61.60953930673632,781.1300515593238,1107.4354171475686,1102.9627840434523,125.0,783.0750931911989,955.8896453618174,0.8192107708152798,1273.3868071384616,1091.843584,29.15869558645275,62.941477644940676,676.9754654177357,975.9358342629524,972.1466499439119,130.0,690.0908464102843,823.698290277143,0.8377956523111091,938.183778909091,713.8977279999999,84.04565198448147,73.17943539102983,470.94868744849236,621.4214076007346,619.643560038047,176.0,439.411291288969,589.1045670870291,0.7458969355164654,944.6260378181819,713.8977279999999,52.91763273096981,71.65550420042959,395.0878583100353,516.5134172410523,515.0436002474183,176.0,365.23013990498464,495.4717994200212,0.7371360798586477,903.5553405217393,713.8977279999999,32.47218372127692,75.07396906619108,460.2927795076957,604.1112680145571,602.495183121076,184.0,427.17117420429724,576.6292393716271,0.7408073421143202,truth
1783335215032571058,1783335225032571058,1320.1442113015876,1238.822528,119.06467364468205,61.23015128845951,816.5167710362834,1164.1539063897148,1159.4903249012852,126.0,823.1811215529766,997.2891733727129,0.8254186885124566,1267.4547898181816,1091.843584,68.03695636838975,63.26911059592828,692.1706912565309,990.8338315785704,987.0581042501092,132.0,700.6253213382566,844.2526939364302,0.8298763230135594,965.3761524161849,713.8977279999999,79.3764490964547,71.86261385841604,488.91238145527706,640.5750158477347,638.7270102221586,173.0,452.9549375646134,612.7695698616726,0.7391929362074295,950.2638665142858,713.8977279999999,79.3764490964547,71.11306189496581,385.5765328859956,491.5578494208673,490.14352920018405,175.0,347.5838886709711,486.7558377595009,0.7140826297448688,883.651187132275,713.8977279999999,79.3764490964547,75.92658579259518,436.1526377083763,568.7476722951517,567.2330726490156,189.0,402.16533586396605,547.3479405959796,0.7347526244934227,truth
1783335216032571058,1783335226032571058,1346.5167772903226,1280.8165119999999,62.120699292877596,59.92147864393864,818.5563871697877,1184.0880623766038,1179.2650707213434,124.0,837.2766984285362,994.7627772927655,0.8416847891184412,1285.3389410461536,1091.843584,119.06467364468205,63.57497808233864,715.7909053493562,1027.9872309392294,1023.9963260563583,130.0,726.8967419703106,872.0801589407799,0.833520559455443,972.2095598139533,713.8977279999999,62.120699292877596,71.67502925330275,503.4780933264561,661.9244114179187,659.9950771073558,172.0,468.0512399465245,630.4319148897426,0.7424294819027092,973.9657341754386,713.8977279999999,52.91763273096981,70.43154039028018,430.4384152758063,571.7811518260769,570.0983000948457,171.0,404.31032981087384,537.4207265210434,0.7523162205301409,878.3186177354495,713.8977279999999,84.04565198448147,76.2804599248192,435.88354776656763,567.5688850664301,566.0660188420599,189.0,401.3318074209609,547.2251132790341,0.7333943521271088,truth
1783335217032571058,1783335227032571058,1287.70615,1280.8165119999999,43.29624496170256,64.4163390964009,788.0052251811021,1119.395749739867,1114.9800192315884,128.0,791.5323254724594,963.6611223306247,0.8213803661168046,1350.3475346885245,1175.831552,71.43880418680924,59.881681310966634,718.6898327855399,1030.2480377995248,1026.0280013514646,122.0,728.4953738321784,876.1720131636093,0.8314524578362046,978.2128037647059,713.8977279999999,89.29850523351155,70.83794557459912,464.84204396237163,627.3130630330273,625.4544029355397,170.0,443.5773207975578,577.7333571010602,0.7677890074122289,992.8577645714283,713.8977279999999,51.02771727629231,69.23782621980244,436.4453925209819,572.6376071022972,570.9210473426186,168.0,404.91593514447226,546.8004243219153,0.7405186922570637,879.8739504761903,713.8977279999999,37.599370624636435,76.30238327869574,431.926597817245,584.5751116729939,583.0371879236257,189.0,413.35702557685727,536.3666250868774,0.7706613466300297,truth
1783335218032571058,1783335228032571058,1281.7856039384615,1238.822528,52.91763273096981,63.83976068484732,777.4180083444362,1118.440521241667,1114.0974745380502,130.0,790.8568769237996,946.5887277522518,0.8354809789482182,1364.6309511404957,1175.831552,35.71940209340462,60.432680208406154,752.1716110154342,1087.0826970560117,1082.5912786651625,121.0,768.6835467988673,914.3779674048715,0.8406628048797975,1007.0920890181819,713.8977279999999,44.649252616755774,69.26778664460866,476.474394966564,646.1094052493833,644.1479988610715,165.0,456.868341840246,591.3470700270515,0.77258916970595,1013.2328944390244,713.8977279999999,44.649252616755774,68.23695117805632,447.86980468132265,590.01930016134,588.2193351144258,164.0,417.20664817502455,560.4855308122172,0.7443664916210009,887.6813426382977,713.8977279999999,84.04565198448147,75.7954661613725,435.0334942235873,598.4806142225577,596.8782536115999,188.0,423.1897007254607,537.5532725160507,0.787251649952191,truth
1783335219032571058,1783335229032571058,1231.2013975703705,1217.8255359999998,52.91763273096981,66.81502888620291,758.4580394059,1076.1505866702068,1072.1393050876059,135.0,760.9533774123847,927.8966396001365,0.8200842043574018,1360.1953841951217,1217.8255359999998,17.639210910323268,59.47322115728822,736.631124087772,1033.0947968100438,1029.0457706233824,123.0,730.5083364329204,904.6709960812454,0.8074850852931688,1052.5074470886075,713.8977279999999,84.04565198448147,67.04260524742601,500.72312284643436,668.3696606866243,666.2377483074774,158.0,472.6087194108639,624.3138559046904,0.7570050142904625,1030.9263849876543,755.891712,44.649252616755774,67.13108658685363,450.00810846618435,615.5521886468165,613.6500308730896,162.0,435.2611267663849,557.0354307704805,0.7813885845005232,908.7222767213115,713.8977279999999,84.04565198448147,74.55929219952954,446.07860340611677,617.0487564869114,615.3512758792901,183.0,436.3193600346217,550.2589834459701,0.7929345511129922,truth
1783335220032571058,1783335230032571058,1198.82095929927,1133.837568,64.94436744255384,67.34801573148829,734.0997709766199,1018.3184349281556,1014.5812891057798,137.0,720.0598707449709,904.7440736292332,0.7958713317198843,1367.407412892562,1175.831552,79.3764490964547,60.535819908677716,802.1270975808508,1124.6096117184904,1119.9358054118723,121.0,795.2190826337147,985.2050886259957,0.8071609574639503,1072.6076300387099,755.891712,44.649252616755774,65.674286690325,499.7803943226692,664.9401754909453,662.7921232057846,155.0,470.18370717302037,623.7183064919317,0.7538398380793759,1028.722191900621,755.891712,84.04565198448147,67.51350238866739,460.52689255413355,651.1814568615584,649.1433252366842,161.0,460.4548239297432,564.0573686169231,0.8163262277005354,913.4845200879118,713.8977279999999,84.04565198448147,74.06844917526749,406.9058963786491,526.2387607522312,524.7832542297099,182.0,372.10699625110783,511.7743728303644,0.727091890500833,truth
1783335221032571058,1783335231032571058,1157.9180343496503,1049.8496,102.05543455258461,70.37820337799258,741.2674037082583,1048.6600823442925,1044.97050905347,143.0,741.5146553852926,907.7624884986045,0.8168597675937482,1362.7392020983602,1175.831552,46.089551088264024,59.713907899201814,790.7593256619359,1121.2342384137496,1116.6108973373505,122.0,792.8323332808965,967.6306464218793,0.8193543024010712,1086.6286448104572,755.891712,44.649252616755774,65.28064501459896,521.4281008084095,715.6794610882429,713.3368294633447,153.0,506.0618000914304,644.7675983402393,0.7848747384237897,1039.0886415999998,755.891712,44.649252616755774,66.5645751273448,450.9443788105826,631.7321787422217,629.7424661503475,160.0,446.7021074823771,554.0128871670097,0.8063027374085554,928.7943165139666,713.8977279999999,29.15869558645275,73.10208069254308,407.00728148469074,517.211999312926,515.8194824770528,179.0,365.7241120252219,514.2302901471265,0.7112068639919763,truth
1783335222032571058,1783335232032571058,1157.9180343496505,1049.8496,46.089551088264024,71.02511528853205,751.5168282225325,1067.2032489622939,1063.4421826033445,143.0,754.6266542455533,919.1432927212121,0.8210108915786226,1363.0834150819671,1217.8255359999998,44.649252616755774,59.90375269708798,783.7809487550036,1113.6036231053122,1109.0015857846904,122.0,787.4366734516744,958.4346059665561,0.8215862287835123,1108.9211374933332,755.891712,43.29624496170256,64.8586258483213,575.4449427623397,785.3553261567098,782.7301331565192,150.0,555.3300767663823,712.7959155472391,0.7790870635671857,1036.560364556962,755.891712,49.26814081848914,66.94516801992889,463.9619246349314,648.9565425973335,646.8973390053444,158.0,458.8815719659511,570.293947431435,0.8046404385540517,924.1009479111112,713.8977279999999,57.151043349447384,73.71399193966012,409.5232297283375,525.9706948741102,524.5046920495487,180.0,371.9174450508838,516.0012193858353,0.720768539061893,truth
1783335223032571058,1783335233032571058,1162.2278670422536,1049.8496,38.6155698307077,70.5937584902635,752.7837457744546,1088.6942388065047,1084.8277735709266,142.0,769.8230788988061,914.9059784490528,0.8414231593543733,1340.7347574634146,1217.8255359999998,178.5970104670231,63.32645865623175,800.6016375514529,1119.163128010811,1114.9784880204566,123.0,791.3678370703926,984.273558176486,0.8040120863721261,1174.0445739574466,923.867648,44.649252616755774,63.04732146975907,698.5022402735875,1001.3569501620084,997.7753934106718,141.0,708.0662898478358,851.5467244520416,0.8315060929903365,1049.0522458734179,755.891712,29.15869558645275,66.5148272364249,473.6033779370267,654.5751169823228,652.5505265402456,158.0,462.854504014178,584.365616068929,0.7920632071541697,942.178978232558,713.8977279999999,44.649252616755774,72.46061172337309,413.9329529625881,512.1665628003954,510.66686295553905,172.0,362.1564496531653,526.4051026386081,0.687980507479609,truth
1783335224032571058,1783335234032571058,1134.9880881095892,1091.843584,79.3764490964547,70.00618537844521,590.8448561462161,838.520714745953,835.6260682350531,146.0,592.923683562254,722.7835366168557,0.8203336870919352,1337.0342647741934,1280.8165119999999,109.90585259509113,63.623728458682045,770.5701324431952,1112.2060642795936,1107.6832512542464,124.0,786.4484501289018,937.1798523613123,0.8391649139141983,1153.2194067692305,755.891712,84.04565198448147,63.88059923962242,688.6582248091272,963.631398773564,960.2327454871202,143.0,681.3902966370653,846.3769449949253,0.805067175643768,1059.2113161783438,755.891712,84.04565198448147,66.06286595348406,477.8502708683007,664.2570719561742,662.1248388787849,157.0,469.7006800313312,588.5341097395028,0.7980857392262792,952.1049820689655,713.8977279999999,84.04565198448147,72.27853225030475,454.58576771814893,582.8345888630124,581.1494795507958,174.0,412.1262900951095,573.0378704152271,0.7191955564760144,truth
1783335225032571058,1783335235032571058,1121.0691269189188,1091.843584,40.82217382103385,71.27651079483026,591.1240873001365,825.753099096234,822.9398204315756,148.0,583.8956159567542,726.9032452851479,0.8032645606468644,1300.173114,1238.822528,20.123606813185702,64.74461846805417,738.4295350468138,1046.6887584408391,1042.6961716693854,128.0,740.1207188852454,903.6963080578016,0.8189927437856771,1117.6642092972972,713.8977279999999,84.04565198448147,66.2756063236886,708.5342050164165,988.9071886895118,985.5829060876123,148.0,699.2629790864785,871.525721018056,0.802343479053777,1067.347093333333,713.8977279999999,84.04565198448147,66.62481457906928,527.1866987833376,755.4255548648742,752.9887031042283,156.0,534.166532526563,642.7944372133453,0.8310067754199801,973.0253116235294,713.8977279999999,84.04565198448147,71.63093289272865,482.5179699488242,604.3042702461864,602.5539054681295,170.0,427.30764739106644,611.8425204965938,0.6983948206872708,truth
1783335226032571058,1783335236032571058,1149.7663205517242,1133.837568,34.018478184194876,69.36462541549088,598.0574411562162,834.4082175238052,831.5489262233067,145.0,590.0157088888625,735.721508097207,0.8019552268015343,1295.5309394645672,1217.8255359999998,26.958039315777068,64.21283719821774,727.8395504721897,1034.746092612685,1030.7179964176667,127.0,731.675978892713,889.8460279277608,0.8222500926330052,1107.241378133333,713.8977279999999,84.04565198448147,67.46260861275158,728.2095620269367,1003.7124324002971,1000.3767535193869,150.0,709.7318673114942,899.2878686584157,0.7892154359541103,1040.341528150943,713.8977279999999,84.04565198448147,67.50508594927939,497.1922065159791,688.2025391583976,686.0328104383323,159.0,486.63268226870343,613.1839012192341,0.7936162076354246,978.2128037647057,713.8977279999999,84.04565198448147,71.33571727077451,486.5156198828345,618.4487393804327,616.6163447108353,170.0,437.3092974321758,614.6341887412755,0.7114952364230703,truth
1783335227032571058,1783335237032571058,1150.6351616,1091.843584,79.3764490964547,68.38957686813373,591.5374338973664,830.701415701563,827.8145277165806,145.0,587.3946041838403,726.1658632100638,0.8088986744532771,1252.8731467067666,1133.837568,142.87760837361847,67.00770484281377,730.4945473255694,1047.923229809986,1043.9602864013018,133.0,740.9936219615498,890.3419531005653,0.8322573359382669,1108.3612177066666,713.8977279999999,62.120699292877596,67.90130297762894,766.324423481552,1070.6098705155616,1067.0141866911745,150.0,757.0354994468053,942.3135732532612,0.8033795977629841,1039.4163120496894,713.8977279999999,62.120699292877596,67.60519518010807,498.0102100957743,698.7917767647511,696.6050746887922,161.0,494.1204039877517,611.515209868704,0.8080263516157551,964.88502772093,713.8977279999999,84.04565198448147,71.966059327668,480.6528458026697,611.4670347415257,609.676547312745,172.0,432.3724867377631,607.1089957433602,0.7121826389812506,truth
1783335228032571058,1783335238032571058,1143.7528142222222,1091.843584,129.88873488510768,69.70404943853916,600.6772327044632,823.5591335262711,820.6747143959452,144.0,582.3442480245436,743.0100027424585,0.7837636719224563,1237.111661985185,1091.843584,71.43880418680924,67.34385641179978,714.11454041412,1019.4941236521375,1015.6860115784642,135.0,720.8912082142631,871.8239997966504,0.8268769939602583,1113.1205358933332,713.8977279999999,36.63528419836371,67.95080056078572,775.5945445005193,1083.6099157486333,1079.9853184627325,150.0,766.2279195868421,953.6986854037002,0.8034276772254312,1047.9891070379745,713.8977279999999,68.03695636838975,67.54412417066101,509.4112435717325,710.181899178516,707.9173688998777,158.0,502.1744367850697,626.825372551556,0.8011392945708593,986.734381443787,713.8977279999999,29.15869558645275,71.42721746783485,511.353776564056,627.3472294226309,625.5284820232987,169.0,443.6014800833351,651.5936103481849,0.6807947055317081,truth
1783335229032571058,1783335239032571058,1132.9863385945944,1028.8526080000001,59.53233682234102,69.98624829966661,592.0935883368497,824.8618311937951,822.0573970140963,148.0,583.2653943790858,728.7320320660527,0.8003839116629063,1213.8114051764705,1091.843584,54.95292629754557,68.17484474973718,673.9784397007304,1012.6241781885867,1008.8790237876823,136.0,716.0334231906045,807.5530588139918,0.886670436543455,1091.5691135163397,713.8977279999999,84.04565198448147,68.89083467989006,764.4917196596248,1075.0142670535247,1071.480214671952,153.0,760.1498781058335,938.0731635987162,0.8103311208580808,1050.3778262138362,713.8977279999999,84.04565198448147,67.69569871354837,525.2274398698743,720.0780300117468,717.7956850310774,159.0,509.1720580047565,649.6919538197508,0.7837130427907687,1018.3541119999999,713.8977279999999,40.82217382103385,70.66372948210031,584.3417727687242,738.5555374786504,736.301147986405,164.0,522.237628834029,739.2865103056433,0.7064076262099254,truth
1783335230032571058,1783335240032571058,1151.7936163310344,1091.843584,71.43880418680924,69.46674508729853,606.6105086221482,816.0723158504697,813.5939285718116,145.0,577.0502684764773,754.62514678962,0.7646846529451153,1196.2199355362318,1154.83456,26.458816365484903,67.5353780391618,607.7301332746791,937.5293418251782,934.1280398373508,138.0,662.9333551659441,720.3690117462928,0.9202691181272287,1120.5911435167786,713.8977279999999,42.02282599224073,68.17532075143382,794.2497893131455,1108.7648162661121,1105.0127860245145,149.0,784.0151203228243,976.8959009027245,0.802557488058181,1050.113713106918,713.8977279999999,84.04565198448147,67.72498631945807,525.5569201400451,713.7134274761372,711.4624258899652,159.0,504.6716043922698,651.9765628258777,0.7740640280148408,1011.9277599030302,713.8977279999999,84.04565198448147,70.7329538450981,572.2938026552188,732.5714637871414,730.3446989648643,165.0,518.006249747643,721.7168113092089,0.717741698171017,truth
1783335231032571058,1783335241032571058,1141.9467511172415,1091.843584,57.151043349447384,68.28141974175021,538.952256725175,722.060167527367,719.5619427972807,145.0,510.5736408832957,671.2647381442775,0.7606144221053306,1224.046866962963,1175.831552,19.30778491535385,68.38282652768793,658.200549479441,943.7130950335588,940.3795115194249,135.0,667.3059289927742,802.3760497644613,0.8316623224093775,1084.4810023896105,713.8977279999999,42.02282599224073,69.36799694145263,761.2725097834729,1056.6218406799244,1053.187344712056,154.0,747.1444686945864,938.06142642878,0.7964771257453592,1045.1252768,713.8977279999999,28.575521674723692,68.23842582733275,530.8103160778069,706.6935489892613,704.5065514093095,160.0,499.7078007110943,662.318080882202,0.7544831028098883,994.1075855238093,713.8977279999999,42.02282599224073,71.77367818807107,571.4571293220637,733.8804505382582,731.6923922543989,168.0,518.9318431558411,720.0565063836785,0.7206821111332765,truth
1783335232032571058,1783335242032571058,1154.8345600000002,1112.840576,44.649252616755774,67.9122506597327,548.5021977295459,764.1029151975583,761.434694125287,144.0,540.302352860603,675.0896278087316,0.8003416592465898,1236.800595437037,1175.831552,79.3764490964547,67.52773367805997,670.9574004334293,964.2464206283312,960.6425663807415,135.0,681.825182761149,817.2667107310399,0.8342749971441522,1063.0400180512822,713.8977279999999,42.02282599224073,69.48799865807457,705.1150831586294,991.7346217623186,988.5303383263547,156.0,701.2622761856113,865.1532644538131,0.810564214455494,1027.556497382716,713.8977279999999,84.04565198448147,69.34742027379767,530.5917836538033,714.9928627254282,712.7691202036661,162.0,505.5763017331326,659.7359951713814,0.7663312376972817,990.858051047619,713.8977279999999,84.04565198448147,72.64704495639766,644.5054129904287,834.9828200375315,832.4792697035691,168.0,590.4220142228052,810.2316812544847,0.7287076374360635,truth
1783335233032571058,1783335243032571058,1161.5419324444445,1049.8496,68.03695636838975,68.76781181173135,602.3005746070908,824.0600892607972,821.1779585490264,144.0,582.6984772215013,745.4952760855934,0.7816259819661141,1246.970614447761,1070.8465919999999,109.90585259509113,66.72929264024916,710.205629843098,1058.1265002009443,1054.2167320440246,134.0,748.2084236452764,853.7424381596527,0.8763865894474359,1036.2015552,713.8977279999999,84.04565198448147,69.59888834372293,601.3739393710077,803.1629114347636,800.6333017490003,160.0,567.9219410730519,749.6889783991209,0.7575434045806401,1056.0015849171973,713.8977279999999,84.04565198448147,67.46189712161981,527.6594593506093,718.7578540784705,716.4504898544297,157.0,508.23855264997746,653.98455401063,0.7771415235010527,958.336698450867,713.8977279999999,84.04565198448147,73.2148496681635,523.3250781212734,678.7070920097274,676.7312742409387,173.0,479.91838719948026,657.7062000583533,0.7296850587038722,truth
1783335234032571058,1783335244032571058,1153.8209121103446,1049.8496,79.3764490964547,69.18951374394771,605.1620373233259,824.4874699552375,821.6298225867474,145.0,583.0006810086884,749.998190535377,0.7773361167611891,1280.816512,1070.8465919999999,30.39949114332308,66.3108639655511,771.3103908846159,1172.1409682912897,1167.6414066771365,130.0,828.8288271853369,919.9787094201951,0.9009217481866464,1045.623790289308,713.8977279999999,49.26814081848914,68.73281302403763,590.1175706093472,802.3342544578318,799.7998475842018,159.0,567.3359921053858,731.8076457066123,0.7752528897912546,1060.6867571612902,713.8977279999999,42.02282599224073,67.23061350341311,529.2392929783781,726.6013078129139,724.2569024961489,155.0,513.7847119735254,654.3707613697665,0.7851584182918592,977.9657803294119,713.8977279999999,32.47218372127692,72.38676117417398,538.99554774079,699.1596255059845,697.1252818373074,170.0,494.38051232712877,677.3672235090589,0.729855970541387,truth
1783335235032571058,1783335245032571058,1147.1597974068966,1007.855616,102.05543455258461,69.84879127722142,629.5344912333086,859.4207982946242,856.4625307131378,145.0,607.7022743668848,779.7283656308902,0.7793768973316542,1280.9767943816794,1049.8496,84.04565198448147,66.09090145262877,759.3719653628743,1125.0369293935646,1120.7026747193524,131.0,795.5212418594806,914.8030063534574,0.8696093435793878,1030.926384987654,713.8977279999999,84.04565198448147,68.81272309181637,541.015207549925,731.3014488505777,729.0267887560302,162.0,517.1082135737905,672.0821804867604,0.7694121769443003,1072.8785589677416,713.8977279999999,84.04565198448147,66.0094742664399,502.7036223121424,690.6409327655676,688.3949940532771,155.0,488.35688692353534,621.4303173073188,0.7858594492776025,972.4922610526313,713.8977279999999,84.04565198448147,72.32617919681526,525.4999195348876,696.7659025547944,694.7136124046102,171.0,492.6878945960603,656.4523212858626,0.7505311179812426,truth
1783335236032571058,1783335246032571058,1127.5952190270268,1007.855616,68.03695636838975,70.59888785848538,617.8117737336383,837.5664535280063,834.7432788238045,148.0,592.2489189840205,766.8137873753564,0.7723503785856082,1280.1704507076922,1070.8465919999999,57.151043349447384,66.83708559748794,769.4646412577205,1144.7812544485362,1140.4135913071468,130.0,809.4825879958024,925.4840021078452,0.8746586501248615,1025.33137331677,713.8977279999999,84.04565198448147,68.53159380609988,472.98163205421275,609.1117310593175,607.208903730912,161.0,430.70703553232005,595.5409081606517,0.7232198991376987,1054.1292416815288,713.8977279999999,89.29850523351155,66.74522520231208,482.31443394596255,664.8992256898607,662.7647669021701,157.0,470.15475129098525,595.5935537801635,0.7893885827120984,972.001103345029,713.8977279999999,84.04565198448147,72.59952214239684,535.8272935818803,698.3738525909187,696.316957549489,171.0,493.82488697041293,672.5252914195083,0.7342844845702233,truth
1783335237032571058,1783335247032571058,1086.9031152941175,965.861632,79.3764490964547,74.12594520859265,614.9219651924084,838.2434366526896,835.5100559039081,153.0,592.7276183422331,761.9678679441536,0.7778905689835145,1280.1704507076925,1154.83456,158.7528981929094,66.11625892774123,752.9786141787064,1121.298252506086,1117.0017907229405,130.0,792.8775980796792,905.3320628657033,0.8757864993425009,1021.0759442962961,713.8977279999999,84.04565198448147,69.06558490647478,492.127673475941,622.8927630310943,620.9693241337542,162.0,440.45169669131195,622.3989439600272,0.7076678085102912,1055.7718285128203,713.8977279999999,84.04565198448147,66.85557355602911,489.9260421469132,689.1346275133989,686.9082291834785,156.0,487.2917682651899,601.1059971735185,0.8106586368402603,954.2770846896549,713.8977279999999,84.04565198448147,73.47335044322595,524.512063794677,687.4560601919009,685.4664853618974,174.0,486.1048419294805,657.3255292917354,0.7395191883894358,truth
1783335238032571058,1783335248032571058,1070.4401986064518,923.867648,27.476463148772783,73.66387634393855,599.7247112746708,827.4057561861144,824.7871259575287,155.0,585.0642209919847,740.3981275533423,0.7902021888214912,1246.0304506268656,1112.840576,36.63528419836371,67.54300739351905,735.4204918104233,1078.6920877049074,1074.6396395682345,134.0,762.7504900284141,889.2651148729926,0.8577312628949267,984.6089462857143,713.8977279999999,84.04565198448147,70.5125111303322,456.2352917233803,578.388120915766,576.6538197974854,168.0,408.982162457283,576.7738536235134,0.7090858226112383,1034.8892432,713.8977279999999,68.03695636838975,68.18789257634575,499.6918291506948,699.8834183082186,697.6803053905284,160.0,494.8923111257624,613.9418933695885,0.8060898213177332,938.3401509604521,713.8977279999999,84.04565198448147,74.28500945185117,521.7463243352462,687.1232587484362,685.1790588298467,177.0,485.86951577201796,652.9960648705413,0.7440619353017743,truth
1783335239032571058,1783335249032571058,1103.8818594133334,965.861632,64.94436744255384,71.87501436888179,621.3177720197052,855.4743611057891,852.5999734714189,150.0,604.9117218691327,767.536612825552,0.7881209987394033,1262.3840381068703,1091.843584,59.53233682234102,67.03715452603113,750.0682907848758,1103.354987648251,1099.1124262453045,131.0,780.1897938220776,906.0114924711618,0.8611257145249854,975.8010364970414,713.8977279999999,95.25173891574565,71.06972805615791,450.45804425990804,577.2752306155203,575.7013394200068,169.0,408.19523017926247,567.9024795740655,0.7187769817194923,1066.6471936,713.8977279999999,95.25173891574565,66.33202848782184,496.2245712360151,692.4327305323646,690.1809108111723,155.0,489.6238792749524,610.4194284413034,0.8021105758792761,908.6390603956042,713.8977279999999,84.04565198448147,75.25278130099665,445.3868404095456,564.9132110202181,563.4430023107901,182.0,399.4539622942633,562.9894681285812,0.7095229749538263,truth
1783335240032571058,1783335250032571058,1110.8808567466665,965.861632,31.750579638581883,72.04066093122101,628.5947680003346,883.3384084267243,880.3692404048843,150.0,624.6145786810689,771.4862790512378,0.8096250000054577,1257.9107025454546,1091.843584,28.01521732816049,67.04641715160014,739.741951523397,1061.9598330868855,1057.90971427055,132.0,750.9189993234709,901.3859539147514,0.8330715561543895,945.2245884342856,713.8977279999999,84.04565198448147,72.59647999242509,421.38225922668965,551.2031469493384,549.6222464267073,175.0,389.75948301924217,528.3652046456737,0.7376706103889228,1093.52334336,734.89472,84.04565198448147,64.89065809105743,504.01892764666786,708.5477239231295,706.1716683926506,150.0,501.0189003803386,618.514502322324,0.810035817267296,892.9365952688173,713.8977279999999,84.04565198448147,76.25197724060617,444.4235330928538,583.7192886890289,582.1395755460215,186.0,412.7518673414003,556.6349805182597,0.7415126281806872,truth
1783335241032571058,1783335251032571058,1149.695436083916,1007.855616,34.018478184194876,69.8841336593145,637.8796825468781,877.0757116700224,874.0300418694413,143.0,620.1861833358901,788.3308492072621,0.7867079969781005,1216.8923363555555,1091.843584,44.649252616755774,68.5055326699719,707.517891976729,1048.62389108535,1044.7225897668711,135.0,741.4890643006745,852.2089642192482,0.8700789306763397,951.8636373333333,713.8977279999999,84.04565198448147,72.29161563841933,426.59481735877404,549.6837810775254,548.092797187607,174.0,388.68512910817986,537.055129013596,0.7237341347471611,1092.1216898543043,755.891712,84.04565198448147,64.87643922809792,500.8739133282797,697.7157765777018,695.3862245043382,151.0,493.35955695893114,616.4799492961744,0.800284838983315,885.6912989090908,713.8977279999999,84.04565198448147,76.25881653272522,418.3275914588313,550.8324709877621,549.3497429389533,187.0,389.4973755331888,523.5855658608942,0.7439039594087475,truth
1783335242032571058,1783335252032571058,1131.2665077551019,1007.855616,109.90585259509113,69.48886195878804,599.3755363864595,799.5209535639856,796.7949840773027,147.0,565.346687965829,747.4581114953172,0.7563590243670409,1227.3976941176472,1091.843584,84.04565198448147,67.93787356510384,709.8693387552693,1062.577065022332,1058.7148938016305,136.0,751.3554482105899,851.7989501236887,0.882080739946306,940.0009299887005,713.8977279999999,75.19874124927287,72.7685841766895,420.200738516597,539.9075094460401,538.3719722092571,177.0,381.77226114283496,529.3980464742297,0.7211440685990879,1054.931674496815,713.8977279999999,84.04565198448147,66.78457162089245,490.47597643265783,659.133391541884,657.0173880346167,157.0,466.0776908657539,610.3434770305664,0.7636318047229862,889.5089338181816,713.8977279999999,79.3764490964547,76.0828303307697,422.50378524229944,558.0703271514838,556.5682994505299,187.0,394.6153127078092,528.3543078052844,0.7468763041735957,truth
1783335243032571058,1783335253032571058,1124.2550481610735,1007.855616,89.29850523351155,69.37363103238087,573.4725869633032,771.0457982169354,768.437808333788,149.0,545.2117125245894,713.5220460923188,0.7641133382079793,1209.2428239416056,1091.843584,20.70689976429253,69.82948532491676,680.6878089688943,944.6142287430374,941.3173118508913,137.0,667.9431267495023,838.8073534917281,0.7963009908878788,934.0122621123595,713.8977279999999,84.04565198448147,72.9228580538542,414.83888518003124,548.5033965191581,546.9519630409756,178.0,387.85047118255045,518.6218345929518,0.7478483266848199,1078.5680664774193,713.8977279999999,64.94436744255384,66.76820379280969,565.2499976753184,795.7280540306873,793.1426106007228,155.0,562.6647029854745,693.3392645386735,0.8115286869839315,898.6712576000001,713.8977279999999,84.04565198448147,75.90660946407841,448.0351926634266,606.63137305881,604.9808445828367,185.0,428.95315757039083,556.3008736602013,0.7710812221956049,truth
1783335244032571058,1783335254032571058,1151.9183111111113,1007.855616,59.53233682234102,66.90792426531101,567.6096220738252,747.8988042717351,745.2861863188543,144.0,528.8443161418543,710.29797323645,0.7445386810442272,1208.629773080292,1091.843584,158.7528981929094,68.65539920773628,678.2752111785563,919.6226809398484,916.2359455114154,137.0,650.2714338255196,841.8361214475665,0.7724442053013302,942.34500096,713.8977279999999,43.29624496170256,73.1375072897518,464.2222469836221,631.5674168295516,629.7649365103289,175.0,446.58560321664675,575.5738342635616,0.7758962910258882,1104.1618193066665,713.8977279999999,84.04565198448147,66.18979133872682,609.0861551758288,808.699196055266,805.980871738582,150.0,571.836685470788,760.5743168347451,0.7518485344740278,885.691298909091,713.8977279999999,42.02282599224073,76.39876925337836,432.4581799160277,588.300294367241,586.7292646473284,187.0,415.9911275211182,536.2050406928502,0.7758060740786786,truth
1783335245032571058,1783335255032571058,1176.1272842816902,1049.8496,46.089551088264024,64.40866114535307,542.105315220696,718.637010318972,716.0930363694059,142.0,508.153103208172,677.2344922041499,0.7503355323121834,1206.8705836521738,1049.8496,64.94436744255384,67.9112850583546,694.8148856425278,945.7818678298017,942.3255820187302,138.0,668.7687722657319,861.3417528727902,0.7764267435489116,929.9673328268156,713.8977279999999,84.04565198448147,73.1143118477539,424.42462420532377,574.8723921195417,573.2662304562454,179.0,406.4961667846599,526.9278474880119,0.771445594918777,1067.077901128205,713.8977279999999,84.04565198448147,67.62587973733126,579.2768588362351,755.2701378225697,752.8300352106432,156.0,534.0566360820374,726.9904491083222,0.7346130017761244,885.691298909091,713.8977279999999,84.04565198448147,76.63293112251361,441.6990160788622,589.3130433474317,587.8351368598948,187.0,416.7072491926508,550.7935873312406,0.7565579171168675,truth
1783335246032571058,1783335256032571058,1223.9560446131386,1091.843584,79.3764490964547,63.24644457620783,614.2671006176599,848.6523717563514,845.52679523812,137.0,600.087846938963,758.020731761693,0.791650969155312,1243.8367350447759,1049.8496,84.04565198448147,69.47860492983914,843.6725937484448,1214.8605458904474,1210.3170733635498,134.0,859.0361301951262,1026.9349319183507,0.8365049269386683,912.4359523555555,713.8977279999999,64.94436744255384,74.25319431146289,422.99803194887306,587.9404408336586,586.3300655099847,180.0,415.7366726472882,520.9953738502103,0.7979661500157874,1062.1535698343946,713.8977279999999,84.04565198448147,67.8537404387526,580.5877094934169,748.2280172875347,745.8726788942475,157.0,529.077104897781,730.891842454214,0.7238787932305107,876.5691607578946,713.8977279999999,64.94436744255384,76.62891102513017,412.2365962897883,552.5419095805543,551.1269969305489,190.0,390.70613115417416,513.373530852973,0.7610562439886874,truth
1783335247032571058,1783335257032571058,1266.5513800305343,1133.837568,52.91763273096981,60.16324246519937,620.7950116224289,878.9407627506702,875.559654186829,131.0,621.5049736022753,760.0254448401058,0.8177423240520948,1246.6572265074624,1007.855616,38.6155698307077,69.64019410280632,849.5866798276267,1212.1992535200513,1207.6355376212725,134.0,857.1543123132992,1037.419054925452,0.8262372936410866,923.8676479999999,713.8977279999999,64.94436744255384,74.00631636788674,468.3620145012501,663.8772316430586,662.0217252290304,180.0,469.4320923701592,573.186451847761,0.8189867203889197,1061.694057025641,713.8977279999999,64.94436744255384,67.67885381719077,580.2957667153628,747.2671992602571,744.8535477184724,156.0,528.3977039552068,730.6738581357447,0.7231649224503129,877.6295911489361,713.8977279999999,36.63528419836371,76.45619950310534,409.4228287687573,567.49473189051,565.9968948620015,188.0,401.2793732074213,504.7192662789403,0.7950545977090728,truth
1783335248032571058,1783335258032571058,1291.0708569302328,1217.8255359999998,158.7528981929094,60.52229997847792,646.6868818429381,906.4603625678202,902.9698369245486,129.0,640.9642692485221,794.3489466656567,0.8069051667268156,1217.5190105693432,1007.855616,102.05543455258461,70.27452090848745,795.6642086807582,1122.8553739564363,1118.7441576573738,137.0,793.9786492163529,975.1728145541393,0.8141927639557605,926.4627818426966,713.8977279999999,84.04565198448147,73.94532788457572,471.9972351734311,666.2922007377726,664.4181976475957,178.0,471.1397333933874,578.4258429839821,0.8145205459058895,1061.6186146242037,713.8977279999999,84.04565198448147,67.52936157857029,577.161919589092,738.6690514054459,736.3008654152579,157.0,522.3178953014252,727.8899442714371,0.7175781165986926,897.393179826087,713.8977279999999,84.04565198448147,75.73779449467435,429.32233395089156,581.9072764413289,580.3351961381036,184.0,411.4705811934586,532.8989709731484,0.7721361901713856,truth
1783335249032571058,1783335259032571058,1218.7451122919708,1049.8496,64.94436744255384,64.25933214176266,631.5845582034016,865.2826980143344,862.0958634497339,137.0,611.8472634093274,781.421506903432,0.7829926077078646,1250.978681263158,1007.855616,75.19874124927287,69.71198824466155,849.6068781205553,1170.1198053672963,1165.715616524288,133.0,827.3996491758983,1049.4611021716396,0.7884043033741491,939.5264216949153,713.8977279999999,84.04565198448147,72.93032425502462,473.8553194359829,669.461301722198,667.5650714364463,177.0,473.38062618973953,580.5455355867099,0.8154065394910538,1015.5374423414632,713.8977279999999,84.04565198448147,69.5206403035035,543.1353508940055,697.4656511730645,695.3419858344848,164.0,493.1826915891651,684.3810598927633,0.7206258625369361,878.5051626096256,713.8977279999999,84.04565198448147,76.65849856398441,410.2067760761715,549.5936918396676,548.114344829656,187.0,388.62142639717865,510.90693061469005,0.760650136277491,truth
1783335250032571058,1783335260032571058,1219.9712140145987,1049.8496,68.03695636838975,64.55649432722053,646.5557766907061,866.5682382284756,863.3809199971465,137.0,612.7562776122347,805.1916646784438,0.7610067323001178,1276.2940829538459,1049.8496,37.599370624636435,68.24314058423187,853.24231709692,1186.2681983844345,1181.6940025594527,130.0,838.8182873835822,1050.8267429720654,0.7982460410277937,962.2205351213872,713.8977279999999,44.649252616755774,72.53524915376505,527.7950002797666,748.9654880851915,746.7966231885365,173.0,529.5985754997313,645.6762339245307,0.8202231206199746,954.4528617803467,713.8977279999999,84.04565198448147,72.66339704123435,509.91696279333416,641.5892201427474,639.7214630023717,173.0,453.6720882991254,645.8493911415512,0.7024425423661873,880.7627120423278,713.8977279999999,84.04565198448147,76.50064245774442,410.46091697206714,543.349523849712,541.9467583335598,189.0,384.2061328686131,512.9806550506297,0.7489680733295744,truth
1783335251032571058,1783335261032571058,1206.3451662733812,1007.855616,89.29850523351155,64.8698020410179,646.9200501116921,886.7970111488472,883.6252964020687,139.0,627.0601801193123,800.2555015289781,0.7835749693957035,1266.2308152671758,1049.8496,68.03695636838975,68.19655197990383,868.5045862631202,1245.7587520968102,1240.9641767482922,131.0,880.8844613301457,1058.5942166919754,0.8321266519694781,950.113888,713.8977279999999,84.04565198448147,73.08762824855843,517.6709115873394,738.0975861106722,735.9857537030002,176.0,521.913808316278,632.2731480552798,0.8254562287226012,961.0347372873562,713.8977279999999,84.04565198448147,72.80805239499931,532.9653985191289,671.7739821115744,669.8296689571705,174.0,475.01593817578475,674.7474796372323,0.7039906817157284,875.4976140732983,713.8977279999999,42.02282599224073,76.82189408316323,409.6534902359708,556.596186665619,555.1437829851956,191.0,393.57293797383267,508.11626166887055,0.7745726080113462,truth
1783335252032571058,1783335262032571058,1204.8345913093526,1007.855616,36.63528419836371,64.96179855763032,655.2623592448333,903.9789995962178,900.7273671787688,139.0,639.209680664717,808.9765206472097,0.7901461468292389,1250.1044938507464,1049.8496,142.87760837361847,68.92566694664173,854.8221896510161,1205.1435911559747,1200.6045938647146,134.0,852.165205609898,1048.0215565595183,0.8131180129609314,934.4261354057141,713.8977279999999,44.649252616755774,73.6539906027971,492.0312511343824,697.7858068629814,695.7872039026306,175.0,493.4090758485407,602.0492057306245,0.8195494174761975,984.9949856568048,713.8977279999999,21.64812248085128,72.8045056759221,646.5047304240519,783.2199013025111,780.9854221877519,169.0,553.820103371264,826.1830181456608,0.6703358592558513,880.762712042328,713.8977279999999,16.23609186063846,76.95424206624243,435.84289664854975,561.6013530316777,560.336593073796,189.0,397.1121250522396,548.6975862770348,0.7237358701478588,truth
1783335253032571058,1783335263032571058,1213.1938465882354,1049.8496,33.22735078456244,64.09314410584855,643.1703642787425,895.0186850628518,891.6989959624118,136.0,632.8737814966095,791.8785407624022,0.7992056217198327,1223.7358004148148,1049.8496,31.750579638581883,67.69965164778192,766.9905694687433,1062.1490255371716,1058.1839762070342,135.0,751.0527785880174,945.784821825548,0.7941053411476197,930.748018259887,713.8977279999999,84.04565198448147,73.42695119397217,454.81029267255957,627.8346387376321,626.0484768288545,177.0,443.9461305151859,561.391771619513,0.7907955779873336,965.3733298604649,713.8977279999999,64.94436744255384,72.8242263093891,582.824074245414,711.8598288503332,709.7759951121046,172.0,503.36091223436574,743.4256513312822,0.6770830564333866,894.1313674378379,713.8977279999999,84.04565198448147,76.28392991426337,447.17697038868096,587.8715896501226,586.2833083185565,185.0,415.68798750851704,559.943063366766,0.7423754569064801,truth
1783335254032571058,1783335264032571058,1219.358163153285,1049.8496,47.625869457872824,64.62381161397445,670.3466330734831,945.5479768893979,942.067763336847,137.0,668.6033863957141,821.714045636316,0.8136691711019293,1246.9706144477614,1049.8496,51.02771727629231,67.3288232275769,819.4266012697653,1147.3865077534658,1143.0676768984392,134.0,811.3247802744269,1006.8743517407544,0.8057855271333033,938.2588447640447,713.8977279999999,35.71940209340462,73.31731412887333,462.61376314671895,609.7515047829821,608.0510893852692,178.0,431.15942387074824,578.8555634260238,0.7448480261965199,962.4435170232558,713.8977279999999,64.94436744255384,73.44013484503813,594.0483509723618,725.1864239752191,723.0910779309326,172.0,512.7842380173001,757.834447096774,0.6766441403947141,894.0654658064516,713.8977279999999,79.3764490964547,76.45984582973021,444.340208921665,578.3414085272323,576.7849604325114,186.0,408.9491318105853,557.9038862786152,0.7330100074018082,truth
1783335255032571058,1783335265032571058,1222.180467674074,1049.8496,30.39949114332308,65.6552615222373,689.3307700531834,989.0565347732564,985.42733685181,135.0,699.368582715038,840.11642874057,0.8324662615674246,1223.7358004148148,1049.8496,25.513858638146154,68.4995885928723,785.3366519474798,1082.7892049331626,1078.7595891266872,135.0,765.6475894038296,969.7418203853057,0.789537558666508,968.5629993918129,713.8977279999999,29.15869558645275,72.26169744643327,506.14913263898126,640.2038461697188,638.3670596694839,171.0,452.6924809683175,640.241085669891,0.7070656524559972,985.8587672380953,713.8977279999999,29.15869558645275,72.80604791047934,621.2579620220231,762.8200767598746,760.5433972095609,168.0,539.39524910215,791.485497892747,0.6814973243833744,918.5313958895027,713.8977279999999,42.02282599224073,75.27987559788826,477.9662100762831,639.3482561221692,637.5852242081196,181.0,452.0874874437795,595.5769033447792,0.7590749152709607,deceptive
1783335256032571058,1783335266032571058,1199.3965214388486,1049.8496,89.29850523351155,65.79449677346655,644.2341065476124,912.3751672254815,909.0734323429734,139.0,645.1466677313483,788.6495144460367,0.8180397704099422,1223.6923425882355,1154.83456,178.5970104670231,67.31281457411639,711.0682365495727,943.5434890521612,940.10543297469,136.0,667.1859994531982,888.0695328217587,0.751276757950784,980.0252834082839,713.8977279999999,42.02282599224073,72.05775821338864,521.3911623002155,667.4987941243766,665.522791893766,169.0,471.99292375918986,657.501960613172,0.7178578194945907,1003.7834720969697,713.8977279999999,42.02282599224073,72.6177550450473,659.860563508513,807.8456645690447,805.3907183787827,165.0,571.2331475689246,841.2361571561188,0.6790401752345431,925.2752675754191,713.8977279999999,84.04565198448147,74.55099157325184,462.74595408376945,605.4133251913734,603.7207025532199,179.0,428.0918676635166,580.2036818755782,0.7378303189660191,deceptive
1783335257032571058,1783335267032571058,1184.2303487999998,1049.8496,33.22735078456244,65.79708580836879,623.1809668566485,877.7193365806834,874.5565824602073,140.0,620.641294874759,764.2716967498311,0.8120689245907183,1210.7754510948905,1049.8496,158.7528981929094,68.05912839136796,715.4684013654471,937.9213032194211,934.5222553208697,137.0,663.2105137257768,896.5857315096268,0.7397067457331666,964.388158877193,713.8977279999999,44.649252616755774,72.25759069214082,470.71832068712456,588.2145608479551,586.4936712882708,171.0,415.9305047682562,597.2038031213675,0.6964632552477704,999.7603901686746,713.8977279999999,44.649252616755774,72.69323956641149,648.0316864151577,774.7244180746089,772.3752551396838,166.0,547.8128895713578,830.5664646528212,0.6595653844516163,939.7053791085714,713.8977279999999,95.25173891574565,73.97595758734872,475.3541065302765,632.7726987251757,630.9547204426942,175.0,447.43786621828394,593.1464668422205,0.7543463397840727,deceptive
1783335258032571058,1783335268032571058,1172.2827646197184,1049.8496,52.91763273096981,66.35801625242557,615.3055113236323,869.970507094694,866.9119915704568,142.0,615.1620449989576,753.6508301108832,0.816242775063951,1266.2308152671758,1133.837568,28.01521732816049,66.09449654410217,746.0373752929296,990.612317295676,986.8002018346933,131.0,700.4686870866924,931.5660684425177,0.7519259350630962,984.0010452071006,713.8977279999999,64.94436744255384,72.2479800600686,567.1545109892385,747.249224719869,745.023458937712,169.0,528.3849940358097,709.7415922078776,0.7444751721427225,1018.9337835582821,713.8977279999999,84.04565198448147,72.03675047127032,661.3026328602733,793.0110471964148,790.5597359256772,163.0,560.7434890284302,847.0098666556195,0.6620271039374084,933.0685770786516,713.8977279999999,84.04565198448147,73.8112204191306,457.8550507861751,613.5274088969774,611.7918717662451,178.0,433.8293912748644,570.2267309534535,0.7608015684383569,deceptive
1783335259032571058,1783335269032571058,1215.0668071240877,1133.837568,47.625869457872824,65.02511928818257,648.4358994442149,940.7660387521615,937.313979092864,137.0,665.2220455116598,787.1963201506328,0.8450522804582816,1273.924369587786,1175.831552,34.018478184194876,64.35195337554504,698.0182345613792,921.3709170910836,917.8203984291634,131.0,651.5076234631734,873.0565960148593,0.7462375594400582,1006.3285620363633,713.8977279999999,42.02282599224073,70.67449777633163,565.3877659592762,761.9418759057776,759.6309103251532,165.0,538.7742673229742,702.9849189194166,0.7664094247585617,1071.2529853935482,713.8977279999999,84.04565198448147,69.90587008172231,697.5147557643346,834.4549140170486,831.7414111162825,155.0,590.0487282958926,893.8539691337498,0.6601175904244398,972.2466821988305,713.8977279999999,64.94436744255384,71.99610893295682,503.8871173117886,694.1530367730489,692.1105590079981,171.0,490.8403194834578,622.368334967531,0.7886653158680782,deceptive
1783335260032571058,1783335270032571058,1237.5689762388058,1133.837568,79.3764490964547,64.39459225629717,670.0796268614292,968.3153092083761,964.7146621076732,134.0,684.7023214679913,814.6194069365621,0.840518057436007,1310.0154539999999,1259.81952,27.476463148772783,63.21770847343739,719.2182486817557,959.813661879796,956.0283148603877,128.0,678.6907489906959,896.7938515015185,0.7567968355875226,1030.6671628641975,713.8977279999999,84.04565198448147,68.54614748493096,504.0820832676648,649.4108221022168,647.4118942499654,162.0,459.20279608440813,634.6368169095365,0.7235678483334266,1130.9808343945576,713.8977279999999,64.94436744255384,67.69611170887485,759.3459242006517,970.2190787907247,966.8927979597821,147.0,686.0484898494866,958.0611671432587,0.7160800514388262,987.1085881904762,713.8977279999999,64.94436744255384,70.98923105864402,504.2000881389315,699.1546992231017,697.0583239708278,168.0,494.3770289190963,621.4749668306649,0.7954898512489894,deceptive
1783335261032571058,1783335271032571058,1228.9415905882354,1154.83456,23.812934728936412,64.35721343164916,647.9168631404946,943.871258382367,940.376349729574,136.0,667.4177673692517,785.4102653922715,0.8497696003959297,1313.7173104881888,1175.831552,23.812934728936412,64.67114760494793,753.6646319422476,1035.2536805585457,1031.1795747751446,127.0,732.0348977712795,931.7098309579992,0.785689786077055,1043.8129648,713.8977279999999,64.94436744255384,67.27508632369542,483.9396360954171,666.8480825039005,664.7511262976443,160.0,471.53280115975434,597.6818145832674,0.7889361691362984,1191.4293174857144,713.8977279999999,30.39949114332308,64.96608750969862,784.9786665473837,1031.136286965028,1027.4659522350535,140.0,729.1234608404891,983.144192524683,0.7416241344701668,1000.0603255568863,713.8977279999999,28.01521732816049,70.11425200748036,511.369851784254,717.2570179986674,715.1094953570052,167.0,507.1773012804993,627.9998751278655,0.8076073282295386,deceptive
