window_start_ns,window_end_ns,red_Mean_NN,red_Median_NN,red_Heart_Rate,red_Mean_HR,red_SDNN,red_SDSD,red_RMSSD,red_NN_Count,red_SD1,red_SD2,red_SD1_SD2,infrared_Mean_NN,infrared_Median_NN,infrared_Heart_Rate,infrared_Mean_HR,infrared_SDNN,infrared_SDSD,infrared_RMSSD,infrared_NN_Count,infrared_SD1,infrared_SD2,infrared_SD1_SD2,ppg0_Mean_NN,ppg0_Median_NN,ppg0_Heart_Rate,ppg0_Mean_HR,ppg0_SDNN,ppg0_SDSD,ppg0_RMSSD,ppg0_NN_Count,ppg0_SD1,ppg0_SD2,ppg0_SD1_SD2,ppg1_Mean_NN,ppg1_Median_NN,ppg1_Heart_Rate,ppg1_Mean_HR,ppg1_SDNN,ppg1_SDSD,ppg1_RMSSD,ppg1_NN_Count,ppg1_SD1,ppg1_SD2,ppg1_SD1_SD2,ppg2_Mean_NN,ppg2_Median_NN,ppg2_Heart_Rate,ppg2_Mean_HR,ppg2_SDNN,ppg2_SDSD,ppg2_RMSSD,ppg2_NN_Count,ppg2_SD1,ppg2_SD2,ppg2_SD1_SD2,label
1783334553985520861,1783334563985520861,1193.5466777971014,1070.905344,71.43488491173315,69.36445210103035,696.4354092737107,993.603993163549,989.97181899557,138.0,702.5841213799775,850.4306760535184,0.8261509622869757,1218.8119787445257,1217.892352,84.04104107262725,68.42931775198171,657.2959128169426,944.3539730228356,940.9073481607401,137.0,667.759098164905,800.7026460682594,0.833966393696642,893.3964436284153,713.9368959999999,84.04104107262725,77.35503777610431,514.1809830375086,565.4935727917721,563.9378791350783,183.0,399.8643400384706,669.9391176947622,0.5968666845643977,877.5013861052632,713.9368959999999,95.24651321564421,78.65907991760024,696.5428292132555,973.7737718774582,971.1992163287006,190.0,688.5620374361529,856.3206094435072,0.804093735270047,914.4053646850828,713.9368959999999,95.24651321564421,75.20868454420875,472.2141080541224,564.339155114291,562.7694114100809,181.0,399.04804347040204,605.2707304933247,0.6592885189494604,truth
1783334554985520861,1783334564985520861,1158.9808924444446,1028.909056,79.37209434637018,71.59912220515541,685.3405108098791,967.3660193084545,963.9974147631893,144.0,684.0310721424448,839.9011713803718,0.8144185238106579,1225.6122578823529,1238.890496,36.63327431370931,68.53750360037098,665.2422980405996,968.7279432373404,965.1366016232517,136.0,684.9940977880202,806.5272302919872,0.8493130449421177,955.4155519999999,713.9368959999999,28.573953964693256,75.90241113478443,670.6057925986121,842.834747723924,840.41066487445,172.0,595.9741655352398,849.6067650042064,0.7014705980269461,874.1035901276597,713.9368959999999,64.94080446521195,78.64254594696385,669.9619887579788,933.6210467831158,931.1227146367212,188.0,660.1697732388242,824.4913995985598,0.8006994051851324,914.5336906368716,713.9368959999999,64.94080446521195,74.57354757408676,448.80694479767067,528.3649480941422,526.8800071339436,179.0,373.6104377386461,577.1160782750793,0.6473748554282466,truth
1783334555985520861,1783334565985520861,1102.5425476266666,1007.910912,36.63327431370931,73.14292713125229,583.3638529808886,804.5923850114929,801.8878651407371,150.0,568.9327315326841,720.266994540771,0.7898914372654618,1229.0913621333332,1259.88864,35.717442455866575,69.15916736625188,677.542875861116,982.003269217214,978.3503378130818,135.0,694.3811708108508,822.8281060294303,0.8438957854291073,967.879362619883,713.9368959999999,95.24651321564421,75.62277062511005,684.9056002737093,873.0545089863239,870.4841762040604,171.0,617.3427636497212,864.6590765482326,0.7139724550330149,896.0729711304347,713.9368959999999,84.04104107262725,78.32826171033969,721.7380946468073,1010.1054179035597,1007.3418125506813,184.0,714.2523907128785,886.9799973557895,0.8052632447655687,935.0698927005649,713.9368959999999,95.24651321564421,73.75935283349169,468.98309634522536,549.7962756978892,548.2321814246134,177.0,388.76467481708613,603.5903437947732,0.6440869686100712,truth
1783334556985520861,1783334566985520861,1092.732362105263,944.9164800000001,44.64680306983322,74.15116296326096,588.691940514074,808.2726547282024,805.5922414316916,152.0,571.5350752059649,727.8669044249148,0.7852192093519251,1212.0680492846714,1217.892352,29.157095882340062,70.49991456831066,665.9148847650928,987.2304679469245,983.6156238747061,137.0,698.0773584792388,802.0157531449976,0.8704035497330591,1012.776335609756,713.9368959999999,89.29360613966644,74.74261587374723,778.7678357021059,1037.3104854369603,1034.1236882333808,164.0,733.4892784483841,971.5736837980529,0.7549497178443997,912.611643076923,713.9368959999999,89.29360613966644,77.74449588595213,736.990928509735,1037.7370408955906,1034.8664195233905,182.0,733.7908987057338,903.928490478975,0.8117798104990711,949.1161088,713.9368959999999,89.29360613966644,73.34311702526766,496.2944493566615,568.2228610512827,566.5877353677088,175.0,401.7942382745834,641.79206599111,0.6260504913754247,truth
1783334557985520861,1783334567985520861,1145.195329324138,965.914624,17.63824318808226,72.8982538283804,679.7018301101629,933.3963476291683,930.3254760117516,145.0,660.010886943341,840.3463394745893,0.7854034175432958,1251.0473162105263,1259.88864,40.81993423527609,69.48674863411651,702.7142957984111,1043.1460114710721,1039.1879680347351,133.0,737.6156184788952,845.9174680350985,0.8719711394448829,1059.0019375286624,713.9368959999999,38.61345130363954,72.84568503273414,818.9803301554771,1080.2819072340178,1076.8273590218141,157.0,763.8746621983108,1024.551273772502,0.7455699697543164,928.8452748156425,713.9368959999999,44.64680306983322,76.96462109856067,747.6201852824604,1050.7834698476895,1047.8336500903338,179.0,743.0161170880314,917.5158896483882,0.809812805937095,966.6471173953487,713.9368959999999,44.64680306983322,72.8911702960947,515.0382071696712,634.1438196415754,632.2976107353043,172.0,448.40739511609695,655.7393641468358,0.6838195472670873,truth
1783334558985520861,1783334568985520861,1145.2737706666667,986.912768,59.529070759777625,72.1433353246078,655.2358143636995,899.7763649707774,896.6440125201058,144.0,636.2379692222187,810.1040477060429,0.785378089424244,1284.4403160615386,1280.8867839999998,19.843023586592544,68.9515327621067,737.8250944766587,1059.550847699322,1055.5566161981324,130.0,749.2155894201454,898.9492423735018,0.833434808223417,1100.803363602649,713.9368959999999,102.04983558819022,70.57324372906415,788.6154352621604,1009.043212752879,1005.6744615646007,151.0,713.5012982478208,994.6288544813038,0.7173543126495256,955.2948730114941,713.9368959999999,102.04983558819022,75.58334480839956,762.9731063038248,1079.8586651082762,1076.7334094229439,174.0,763.5753848211152,934.2013903508482,0.8173562924524734,983.5580349349111,713.9368959999999,102.04983558819022,71.9750168327392,525.4650216311451,650.7574530928455,648.8182176425232,169.0,460.1550079896377,668.0985423024568,0.6887531985982385,truth
1783334559985520861,1783334569985520861,1169.6853453521128,1091.903488,28.013680357542412,71.65000340926704,671.9396247928079,914.385468706793,911.1376355898411,142.0,646.568165541013,833.0549335955363,0.7761410916208964,1288.8628231937985,1343.881216,75.19461569656121,68.49870457349195,742.1700064787639,1089.401248762984,1085.1820706794983,129.0,770.3230104333991,897.1810669155861,0.8586037298821835,1135.6139102040815,713.9368959999999,84.04104107262725,68.44570916194029,791.3298901975369,1023.9066964244106,1020.3941416590861,147.0,724.0113683440164,995.1430849352288,0.7275449925787711,959.3979586206898,713.9368959999999,84.04104107262725,75.03396294934232,757.4341356650307,1077.2015983026556,1074.0837868479782,174.0,761.6965548647952,925.9169071222401,0.8226402920237804,999.6122443113774,713.9368959999999,84.04104107262725,70.8457248564489,519.9609285879121,650.9650422578935,649.0013423320463,167.0,460.30179569594395,659.378391331982,0.6980844409628105,truth
1783334560985520861,1783334570985520861,1150.9879207724139,1091.903488,14.728842249841886,73.11969497514835,691.478948934603,936.5095547803755,933.5584748796243,145.0,662.212256831198,858.5008660977996,0.7713588686767375,1296.635392,1343.881216,42.020520536313626,67.92684342581416,740.0780062945778,1066.2810541486879,1062.091479885685,128.0,753.9745640392774,900.6620282840868,0.8371337309242695,1175.6003154929576,713.9368959999999,44.64680306983322,66.02708605338844,793.4176183484052,1042.5948049251742,1038.9006881322955,142.0,737.2258565924565,993.6156462118895,0.741962809666991,948.495709090909,713.9368959999999,84.04104107262725,75.16796798253081,680.3674299452472,949.4565120180814,946.739892681817,176.0,671.3671380897122,836.9186115789374,0.8021892795801321,1017.8978341463413,713.9368959999999,84.04104107262725,69.64900253368101,521.7176478558907,688.4205918692911,686.3195997634609,164.0,486.7868688192324,652.6085199728471,0.7459094601453962,truth
1783334561985520861,1783334571985520861,1094.6664016842108,944.9164800000001,49.26543787016079,74.41909774005535,619.7977920999156,842.277504498695,839.4876049638698,152.0,595.5801350719099,768.7267118669176,0.7747618573387327,1333.1301662719998,1385.877504,49.26543787016079,66.00382645963622,757.5102381178145,1035.977663064662,1031.8079415042744,125.0,732.5468307108148,937.7265550864958,0.7811945035973145,1150.8149475555556,713.9368959999999,79.37209434637018,67.00794498143662,781.3548077361645,1025.1417804528894,1021.5663194227375,144.0,724.8847046358891,978.9288807861924,0.7404876072853458,951.0359391085714,713.9368959999999,84.04104107262725,75.53073332126498,754.8062366104633,1070.1661198388024,1067.0864987205562,175.0,756.7217203341127,923.6617501225176,0.8192628093928741,1027.353637925926,713.9368959999999,43.293869643474636,69.07674847926893,523.8258214836806,686.2563279778261,684.1225731212462,162.0,485.25650314530026,656.5440164861021,0.7391073423263348,truth
1783334562985520861,1783334572985520861,1138.5021089315069,1091.903488,109.89982294112794,72.73577046784092,639.0239072017629,857.2641632797809,854.3414558125351,146.0,606.1773031233447,795.5989231640958,0.7619131769467188,1409.366953220339,1427.8737919999999,39.68604717318509,62.10115818581077,766.007034373581,1114.5890995173588,1109.8549148541072,118.0,788.1335105053321,928.9544328054459,0.8484092251168509,1057.1294915668786,713.9368959999999,95.24651321564421,69.90378947219826,689.006609542266,943.2069455719476,940.184536090684,157.0,666.948027276175,852.6724930722619,0.7821854612350593,886.2119913978494,713.9368959999999,95.24651321564421,76.7053172538831,464.18322013380646,621.3897592985027,619.7140390299426,186.0,439.38891255984777,578.2739968797808,0.7598282387426694,965.914624,713.9368959999999,43.293869643474636,71.92391836748118,469.63278201840257,597.8089866746681,596.0395617559838,170.0,422.7147883319162,593.0986458890633,0.7127225652290282,truth
1783334563985520861,1783334573985520861,1121.414393081081,1028.909056,75.19461569656121,73.90865635336198,636.046780939603,849.9529796076123,847.08036722389,148.0,601.007515570254,792.7837020280488,0.7580977182462187,1390.0771328,1406.875648,158.74418869274035,63.12232248590804,779.3412086655304,1073.1080038060595,1068.6973804453955,120.0,758.8019464368241,962.7332143903332,0.7881746833855193,1042.4648198481013,713.9368959999999,84.04104107262725,70.376780718836,659.3937525430747,905.4022495505253,902.514196739336,158.0,640.2160703587311,815.2680132403622,0.7852829498536683,873.4334365957446,713.9368959999999,95.24651321564421,77.07634277899668,436.1606557134476,585.264552898611,583.697749533501,188.0,413.8445341427207,542.9904105643731,0.7621580898870373,961.3023149132947,713.9368959999999,84.04104107262725,71.7224796918572,442.5384500521839,598.8842584966874,597.1627915458461,173.0,423.4751203288849,549.5588874546538,0.7705727811813933,truth
1783334564985520861,1783334574985520861,1188.1077505815601,1133.899776,25.976321786084778,70.07586866896571,665.9243099649514,876.8836394555449,873.7563923600852,141.0,620.0503677705555,833.4741411216023,0.7439347391583817,1362.1255050491802,1343.881216,31.058645613797022,64.51122986346249,779.2516397444214,1060.7386633133513,1056.3500010135979,122.0,750.0555018956247,966.0096314875905,0.7764472293517294,1013.8006353170732,713.9368959999999,89.29360613966644,71.76680717997421,651.598917291409,878.3100316154447,875.6116841276652,164.0,621.0589793394519,810.1266383236587,0.7666196245868029,861.4678973678757,713.9368959999999,89.29360613966644,77.52348463465636,409.55597428113896,555.4755154109725,554.0271193164091,193.0,392.78050373019124,508.2656097784647,0.772785913848058,955.5362309885058,713.9368959999999,89.29360613966644,72.99736209625235,500.42696184113754,693.6929889177676,691.6852328362228,174.0,490.51501652531806,616.8888048560179,0.7951433267455784,truth
1783334565985520861,1783334575985520861,1201.9521550948907,1133.899776,178.58721227933287,68.30787292085458,662.7123867542673,887.7716287148992,884.5502521532143,137.0,627.7493388093311,825.4337035324514,0.7605084892013396,1365.2235918688527,1364.87936,36.63327431370931,64.6495180581643,777.1962037563208,1062.81214664481,1058.465935619096,122.0,751.5216760199764,962.1202957544008,0.781109887543435,976.5372144941177,713.9368959999999,95.24651321564421,73.63985486417609,629.3735375269009,827.4972491899246,825.0455497919993,170.0,585.1289163154099,788.0572156411156,0.742495474569552,839.501555070707,713.9368959999999,95.24651321564421,78.21640232926201,335.19636908841323,423.2789714363144,422.205929650212,198.0,299.3034310362849,424.1720638904281,0.7056179709034323,932.647901483146,713.9368959999999,95.24651321564421,74.76674780354794,513.3517144229543,709.6723827049391,707.6777061064273,178.0,501.8141542314771,633.365015380899,0.7922985040935541,truth
1783334566985520861,1783334576985520861,1226.602693214815,1133.899776,25.976321786084778,66.57550354303207,668.7420666525727,918.5625542285604,915.1944021164757,135.0,649.5218110390509,826.7361198797254,0.7856458613826431,1383.4277205333335,1364.87936,23.421273741551854,65.22948418436484,824.885879771048,1153.4322504038064,1148.7166826584296,120.0,815.5997658997915,1014.0374451781425,0.8043093179428988,947.3026327272727,713.9368959999999,89.29360613966644,75.043856198055,605.9238954614466,750.086722392483,748.1807803449641,176.0,530.3914078817161,770.4738875555573,0.6883963447021696,830.5236059701492,713.9368959999999,89.29360613966644,78.70560513008138,326.0454700048932,405.8500384357438,404.8341963347567,201.0,286.9793143227354,414.044361870621,0.6931124796052882,909.3811593846153,713.9368959999999,89.29360613966644,75.8077677608177,484.8294668511297,652.0252969547563,650.2216687919081,182.0,461.05150898188054,603.187348082722,0.7643587194714357,truth
1783334567985520861,1783334577985520861,1165.5448662535211,1091.903488,29.157095882340062,69.2536822047334,620.4546862775105,867.9772596666146,864.8939006393258,142.0,613.75260622598,762.6151746607568,0.8047998867830067,1307.1757989291339,1259.88864,158.74418869274035,69.37444245922785,821.6279185961146,1147.96682328281,1143.402324795279,127.0,811.7351253204541,1010.2910057966765,0.8034666454150516,899.4965815652173,713.9368959999999,95.24651321564421,76.7002916816501,554.4801358709602,670.9375046043141,669.1018701918703,184.0,474.4244592580909,708.7715840662569,0.669361568555408,825.372590891089,713.9368959999999,95.24651321564421,79.48387433666255,353.0818687142294,416.93902116113617,415.910852536146,202.0,294.8204092043208,453.7334847548317,0.6497655983305326,882.1442505820105,713.9368959999999,95.24651321564421,76.92441504916803,455.383392699013,609.2439629329682,607.6584277242913,189.0,430.8005375868674,567.4094792119356,0.7592409950309575,truth
1783334568985520861,1783334578985520861,1156.4908826482758,1091.903488,102.04983558819022,69.20402801242996,613.7747212352699,849.6852739174775,846.7298881484597,145.0,600.8182190613975,756.9329895550939,0.7937535123347488,1287.560612713178,1175.896064,71.43488491173315,69.19412415207397,796.6764760102292,1137.890758678038,1133.437917197351,129.0,804.610271710746,972.4648940629859,0.827392615016735,874.4069227789472,713.9368959999999,84.04104107262725,78.05362179308716,533.2312953430127,662.5769858024507,660.8218118959264,190.0,468.51267971905577,677.4357262040504,0.6915972417698193,817.6924310588234,713.9368959999999,89.29360613966644,80.41089206978805,423.8017884070449,528.3893379092808,527.0863202045421,204.0,373.62768394232256,537.9749888330937,0.6945075360338736,864.296662880829,713.9368959999999,89.29360613966644,77.77674063468838,438.52749418664746,577.5399014873406,576.0473827876062,193.0,408.3823807475091,548.8393588863125,0.7440836269034817,truth
1783334569985520861,1783334579985520861,1174.1089879148938,1049.9072,71.43488491173315,69.38559993453399,665.7792582764856,914.7458315939856,911.4742614754251,141.0,646.8229805822349,823.0030725323761,0.7859302135919906,1282.3517707906976,1175.896064,46.087022523698806,70.08613338866881,809.8427474800147,1154.0674939393182,1149.5584911705,129.0,816.0489509114567,989.3041019575899,0.8248716944534004,861.4678973678757,713.9368959999999,95.24651321564421,78.42273857127536,508.7106247098746,631.0791703295062,629.4337415290341,193.0,446.2403608055741,646.5352036660319,0.690202727206916,831.31652096,713.9368959999999,95.24651321564421,79.99306807132993,449.09478023476396,572.5973078049843,571.1569651028378,200.0,404.88743923806527,566.9262068751477,0.7141801425440759,861.4678973678757,713.9368959999999,95.24651321564421,78.18820085037943,449.48432377708644,593.1820824409408,591.6470057954841,193.0,419.44307297234695,562.2331090485926,0.7460305453766782,truth
1783334570985520861,1783334580985520861,1177.385294070922,1091.903488,158.74418869274035,68.54215705073872,655.5498403906139,886.2276517531642,883.0569317090282,141.0,626.6575822296926,814.3348965808457,0.7695330076862047,1274.7488649846152,1154.8979199999999,44.64680306983322,72.0904476430271,855.1995481991963,1244.2592753861961,1239.4518091646146,130.0,879.8241711798391,1037.153435314213,0.8483066643975297,852.8476947692307,713.9368959999999,89.29360613966644,78.78131109893222,499.3663689992565,617.683023109609,616.0890377790611,195.0,436.76785426461146,635.098781069171,0.6877164108696997,857.2438169072163,713.9368959999999,89.29360613966644,78.54199977873377,429.5475794743898,534.8604405896691,533.4730366106023,194.0,378.20344452937957,545.4386522219256,0.6933931854457169,870.7083794764396,713.9368959999999,89.29360613966644,77.72280426845423,455.0084564469986,604.9930395012516,603.3988926566759,191.0,427.7946808019958,567.9447564819308,0.7532329085172321,truth
1783334571985520861,1783334581985520861,1185.2621426187052,1091.903488,71.43488491173315,67.849438456625,654.3262225121401,908.4697413067065,905.2067808658106,139.0,642.3851145807607,806.198668577755,0.7968074615082361,1269.185528183206,1175.896064,49.26543787016079,71.27243586051397,812.157697821462,1225.7058523385665,1220.9963445942783,131.0,866.7049199286374,971.3966971052874,0.892225516631232,839.501555070707,713.9368959999999,89.29360613966644,79.55197946423529,491.0526479594074,604.020244586456,602.4852855515463,198.0,427.10681092104005,625.3441389893414,0.682994825235453,861.2503000207253,713.9368959999999,89.29360613966644,78.77164159072392,494.2212400616037,627.9622810308388,626.3248659000684,193.0,444.0363872462786,624.4398383004523,0.7110955451766489,874.8489889684209,713.9368959999999,89.29360613966644,77.4102360032997,456.1617901422996,612.1728106757764,610.5511984314604,190.0,432.87154568687004,567.8717020938662,0.7622699706479099,truth
1783334572985520861,1783334582985520861,1205.7195148985509,1133.899776,119.05814151955525,66.53497060161006,654.9267487858594,926.3232838501447,923.0261459569153,138.0,655.0094755814284,802.0844007956417,0.8166341035079104,1234.06869997037,1091.903488,31.058645613797022,71.96374535329515,779.6748806473902,1181.0628406028745,1176.6737231696309,135.0,835.1375435977391,931.1597503445967,0.8968789117964748,864.9494549222798,713.9368959999999,29.157095882340062,78.72461462695436,627.9468886905778,826.2403405665498,824.121422557449,193.0,584.2401477044898,786.1083353695417,0.7432056389910232,887.953429787234,713.9368959999999,21.979964588225588,77.8011899659486,535.4520981378375,668.089769360491,666.3095541728263,188.0,472.4108063561597,679.5821611986194,0.6951489213944945,869.4544,713.9368959999999,29.157095882340062,78.1333248693149,480.67984181842434,622.7013220697147,621.116751168732,192.0,440.31632748932356,604.290481916047,0.7286501122658686,truth
1783334573985520861,1783334583985520861,1194.3260896690647,1091.903488,46.087022523698806,67.75217949013695,709.4315318278097,976.5143130579976,973.3813212885755,139.0,690.4998926890332,876.4651423766504,0.7878235645705796,1315.2170829206348,1217.892352,46.087022523698806,69.09716638968104,842.3689237515625,1304.2132248599,1298.9880252483,126.0,922.2180154116107,996.959263676238,0.9250307901357748,820.4274834285713,713.9368959999999,43.293869643474636,79.01268855581608,302.91046257316185,379.3391830300697,378.38512667604226,196.0,268.2333086903272,384.102776255384,0.6983373338389592,859.9132981390374,713.9368959999999,43.293869643474636,78.1520456220692,425.8668099266184,556.341118545684,554.85844685796,187.0,393.3925775765621,534.1780784981571,0.7364446303797906,819.5639233939393,713.9368959999999,84.04104107262725,79.40799742321948,326.7497492444719,444.80105405956283,443.6707322807606,198.0,314.52184160444097,405.05407396979234,0.7764934654820853,truth
1783334574985520861,1783334584985520861,1161.4043871549295,1091.903488,28.573953964693256,67.52288378361841,610.698292376421,869.6613021441639,866.6276489017815,142.0,614.9434040816612,746.2084919854387,0.8240906002630443,1263.0944635114506,1133.899776,109.89982294112794,71.14696263827703,828.3227770723462,1248.0753393024954,1243.2658245029575,131.0,882.5225358524957,991.369876932887,0.8902051155547064,855.5927689948187,713.9368959999999,43.293869643474636,77.23080321363152,354.1931599887905,434.70692561660957,433.5875225196746,193.0,307.3842149322607,451.29044015016405,0.6811228148993818,904.7461175652173,713.9368959999999,44.64680306983322,76.27984818675397,484.8484032052399,645.5479094605529,643.7909042212788,184.0,456.4713043603564,604.9569590715683,0.7545517040764455,845.042059045685,713.9368959999999,44.64680306983322,77.85298498476263,349.63420072814915,470.08002204602326,468.89032012303943,197.0,332.3967712890648,435.02223145021674,0.7640914584548164,truth
1783334575985520861,1783334585985520861,1179.4702161702126,1175.896064,42.020520536313626,66.7576225762811,615.7350951019923,880.7612632911982,877.6118956940277,141.0,622.7922618796365,751.215224787106,0.8290463788937924,1257.3434104242422,1133.899776,95.24651321564421,70.30149734025701,827.0153875287756,1228.6078507139202,1224.1332449047454,132.0,868.7569426588425,995.2585542007524,0.8728957304531809,891.4563404108109,713.9368959999999,84.04104107262725,75.7630689461864,414.8703654236738,531.5149129437655,530.0686603187968,185.0,375.83779924431406,523.0753430846655,0.7185156100609402,918.8138148066297,713.9368959999999,89.29360613966644,75.84187947190938,508.6708680139669,692.9973640570105,691.0697297100404,181.0,490.0231354691147,630.4211031403327,0.7772949430597264,891.4563404108109,713.9368959999999,84.04104107262725,76.26609702385655,448.59496879267505,607.9422850543707,606.2880602280495,185.0,429.88011233199063,556.8450741121086,0.7719923050723506,truth
1783334576985520861,1783334586985520861,1226.2298503529412,1217.892352,59.529070759777625,64.09757299284115,642.4160125193536,863.4615766677377,860.257851545015,136.0,610.5595361557853,799.3780036297901,0.76379326599353,1240.9125394962962,1133.899776,30.397823366694958,69.25487045126657,786.4775904031451,1171.2234059881596,1166.8734372526906,135.0,828.1800126586324,945.5966020079853,0.875828033751372,913.5346384175823,713.9368959999999,84.04104107262725,74.71916688150225,434.4003481618053,551.9665956778522,550.439909810419,182.0,390.29932279226256,548.8538460101614,0.7111170407741602,944.6778647272728,713.9368959999999,21.646934821737318,75.03565211353038,542.5537239675542,738.5989420496827,736.5873221751762,176.0,522.2683205005405,672.5674594290854,0.7765292732774679,908.5426458579235,713.9368959999999,37.59730784828061,75.07165314697406,437.99493548354224,596.0143031487788,594.3983396961052,183.0,421.4457554406762,543.0201328026278,0.7761144200409593,truth
1783334577985520861,1783334587985520861,1245.4720038208957,1217.892352,29.157095882340062,64.86041781310308,695.2405524768524,944.4730871358465,940.9488509555698,134.0,667.8433245619501,862.3870932102699,0.7744124765085213,1197.4941549714288,986.912768,142.8697698234663,69.84039896757115,736.4202116622339,1062.9996428416534,1059.1959332157485,140.0,751.6542558522112,895.6212347409635,0.8392546164558156,921.1029423910613,713.9368959999999,84.04104107262725,74.78060190472286,452.17359561360547,572.5876595183286,570.9770506158945,179.0,404.8806168691441,571.8022072203845,0.7080780937123852,966.4029529302325,713.9368959999999,84.04104107262725,74.62484600055068,586.1205878664707,808.963309058044,806.5944883335845,172.0,572.0234415660518,723.5117678319677,0.7906207846212967,918.3497674254143,713.9368959999999,84.04104107262725,74.72966619733734,449.67217655536365,619.1215279081129,617.399394725877,181.0,437.7850307624029,555.5018147191396,0.7880892900120335,truth
1783334578985520861,1783334588985520861,1265.6591223206105,1217.892352,28.013680357542412,64.16239652441047,712.8103424537313,981.1088844149599,977.329438701618,131.0,693.7487452521868,880.6551583046111,0.7877643578307698,1175.5982179858156,1007.910912,44.64680306983322,70.3679895668297,697.6675871289896,1021.022795791616,1017.3719177897384,141.0,721.9721426502992,844.3093253537121,0.8551038357273132,926.0417438202246,713.9368959999999,89.29360613966644,74.80960497564809,499.851272697646,687.231869772932,685.2877870385478,178.0,485.9463153639506,617.7626396335512,0.7866230234515439,998.2973039036144,713.9368959999999,43.293869643474636,72.23063718355648,577.6339334381722,793.1118285112564,790.7166454921448,166.0,560.8147521795715,714.188580829596,0.7852474363677635,958.3455255813955,713.9368959999999,43.293869643474636,73.12919995948214,494.57048430157647,661.697816177058,659.7734004275239,172.0,467.8910129151273,616.2296064789648,0.7592803201854906,truth
1783334579985520861,1783334589985520861,1229.7135293629633,1175.896064,109.89982294112794,66.6429957631508,715.9555394178774,1003.3274953400092,999.5909243199939,135.0,709.4596757058347,879.4988079127643,0.8066636012725609,1138.5660302222223,986.912768,119.05814151955525,71.26799020186773,652.8577788024013,932.495372312831,929.2293644705234,144.0,659.3738011874772,796.9063017942567,0.8274169744960966,924.6182741333333,713.9368959999999,84.04104107262725,74.88420145981594,496.55916155373524,682.2786792595342,680.3705677593553,180.0,482.4438807634181,613.8126365617308,0.7859790627084932,1008.6744808727273,713.9368959999999,84.04104107262725,72.362223610711,610.7267853472508,820.2032910734573,817.6988476969992,165.0,579.9713090695653,760.1256823770931,0.7629939660186953,956.5016628965517,713.9368959999999,84.04104107262725,73.48980200460363,511.4678835234906,680.5833836079847,678.6135288726969,174.0,481.2451257120914,638.2792149531227,0.7539727355017124,deceptive
1783334580985520861,1783334590985520861,1241.258707729323,1175.896064,44.64680306983322,66.82058374974754,729.6787707167059,1035.2334618185087,1031.3086429409514,133.0,732.0206009630923,892.7122362509112,0.819996154681749,1133.8997760000002,1007.910912,75.19461569656121,70.8211822176942,617.25600254114,869.0357893374029,866.0755913156897,147.0,614.5010997342815,757.1024663536732,0.8116485245303945,932.5991329608939,713.9368959999999,84.04104107262725,74.82460932197331,510.687232520227,686.2613005581082,684.3308851994353,179.0,485.26001929053774,635.5031516502576,0.7635839696946074,993.6621714285714,713.9368959999999,84.04104107262725,72.96699442913909,594.5007017939054,800.5482781306742,798.147828114859,168.0,566.073116133414,739.3529485045658,0.7656331354035553,932.5991329608938,713.9368959999999,84.04104107262725,74.76810568536351,500.33810623714663,661.4184679568173,659.5579341222335,179.0,467.6934838942827,625.5460364092819,0.7476563780643644,deceptive
1783334581985520861,1783334591985520861,1270.7058656969696,1175.896064,16.808208214525447,66.10883849823388,763.4230181136902,1079.3527358563442,1075.3543970087935,132.0,763.2176388162735,935.0822568477533,0.8162037438173076,1122.9074590067114,965.914624,35.717442455866575,72.89112216417568,653.2066912758354,899.2126287000606,896.1771913525171,149.0,635.8393474823939,806.9771528064663,0.7879273226894993,912.4439403715847,713.9368959999999,84.04104107262725,75.75319176159955,493.387289994271,687.8631010858455,685.9707643476047,183.0,486.39266330580904,607.1022355393881,0.801170931076653,982.2190652235292,713.9368959999999,84.04104107262725,73.63363033805224,591.2789211077431,788.9188615101625,786.581319004693,170.0,557.8498767798067,737.3081327240673,0.7566034497934642,912.4439403715847,713.9368959999999,84.04104107262725,76.00392623054951,492.9549997395828,643.5865417698268,641.8160114778169,183.0,455.08440796584375,618.4321744134055,0.7358679363626252,deceptive
1783334582985520861,1783334592985520861,1287.0247030153848,1154.8979199999999,31.748837738548065,65.08333940829678,768.5935589321774,1119.0375845368828,1114.729061693123,130.0,791.2790644286442,931.8856360962571,0.849116065082165,1120.0889161879195,965.914624,62.117291227594045,73.8658355903284,659.9773050113934,912.7809333310826,909.6983601726254,149.0,645.4335876961944,814.154670929924,0.7927653193452577,897.9528891182796,713.9368959999999,84.04104107262725,76.69077199525016,490.5919881310344,657.8560471372109,656.0756486165844,186.0,465.1744719752989,610.8742529751706,0.761489733295743,965.4291177803467,713.9368959999999,43.293869643474636,73.83855540590137,557.1251018648941,737.3012783151853,735.1652161652389,173.0,521.3507336741775,696.3285607417203,0.7487137007834942,917.6881174505493,713.9368959999999,43.293869643474636,75.58273160525363,490.54187284236326,636.2016857119568,634.4526495605562,182.0,449.86252616923724,616.5018343830801,0.7297018452822688,deceptive
1783334583985520861,1783334593985520861,1305.5224017637797,1175.896064,142.8697698234663,64.70703953515633,774.9338667542556,1139.2395692635214,1134.769735717458,127.0,805.5640248222775,936.2576016468286,0.8604085279578314,1135.9132966575344,965.914624,26.45736478212339,72.91668764197338,650.460326735621,876.3679795151389,873.3431458946953,146.0,619.6857411299081,808.8214045351174,0.7661589290976815,869.6731306666666,713.9368959999999,84.04104107262725,77.9131436345189,456.15259991955804,601.9896290137002,600.4116718330438,192.0,425.6709488795615,570.5720905080545,0.7460423598717058,912.4439403715844,713.9368959999999,84.04104107262725,76.47044502417671,521.9808800727118,693.6186697040687,691.7104991844715,183.0,490.46246490533906,651.6527937348653,0.7526438459571633,907.4850059130436,713.9368959999999,84.04104107262725,76.17338061962768,485.5453480725239,629.9904680766891,628.2668247151117,184.0,445.4705320599141,610.1529091980676,0.7300965468564301,deceptive
1783334584985520861,1783334594985520861,1332.458225664,1217.892352,79.37209434637018,64.9012382732084,809.1056375302084,1209.7004070701507,1204.8357480137813,125.0,855.3873610434306,971.318741016515,0.880645379237964,1136.4709773061224,1007.910912,119.05814151955525,73.00726471405328,648.2455235555763,876.353232643497,873.34686620974,147.0,619.6753135169688,805.2613057439861,0.7695332050562728,866.829632,713.9368959999999,44.64680306983322,77.99854195498494,449.75683997522975,581.7885887527532,580.2729562793342,192.0,411.38665632402336,565.6349880517283,0.7273005825559032,895.7694726918918,713.9368959999999,95.24651321564421,77.2083561849196,505.274544175465,667.8546184456941,666.0374800274802,185.0,472.24452954970457,631.7414678004262,0.7475281481742015,901.6580084808743,713.9368959999999,95.24651321564421,76.37329170091901,479.2115241044099,610.4623994168473,608.7830385917543,183.0,431.6621022870634,605.0795686465534,0.713397253277959,deceptive
1783334585985520861,1783334595985520861,1316.2169945396827,1154.8979199999999,39.68604717318509,65.59828080098066,790.2654807732944,1191.8329720111105,1187.0561146733962,126.0,842.753176550773,945.4748023667701,0.8913544543346285,1154.4634756413793,1007.910912,31.058645613797022,73.36561479204626,672.7988919827033,930.5024976415505,927.3189735279111,145.0,657.9646259933597,829.97468249159,0.7927526464037977,874.8489889684209,713.9368959999999,84.04104107262725,77.44606210940886,478.6228859445215,612.2724531860474,610.6505365536515,190.0,432.9420035815771,603.6889469479374,0.7171607261825755,914.4053646850828,713.9368959999999,84.04104107262725,76.57174955669637,536.9553180681335,694.4942016987441,692.5780839479498,181.0,491.0815595159198,675.3232397563457,0.7271800089289099,914.405364685083,713.9368959999999,84.04104107262725,76.3731715565896,567.957531744233,746.8852725959478,744.8078479207488,181.0,528.1276410209578,711.1203225367858,0.742669874961474,deceptive
1783334586985520861,1783334596985520861,1261.8121341068704,1091.903488,158.74418869274035,68.13827956007496,772.757377526892,1175.5353965554668,1171.0055564175505,131.0,831.2290504291879,921.3235381264143,0.9022118897771343,1159.4499652027976,1007.910912,37.59730784828061,73.5037908487034,674.8554486032174,936.4771817316863,933.1945683789885,143.0,662.1893656289421,831.6323556974376,0.7962525280460087,922.2667965842695,713.9368959999999,28.573953964693256,76.27150569982942,589.4774727727283,681.5468137505613,679.666689747294,178.0,481.9263736991068,760.8159218757581,0.6334336070556181,906.9806065856352,713.9368959999999,84.04104107262725,76.36241312743535,512.7022508995235,662.6753371648581,660.8320497816948,181.0,468.5822246343529,644.9360786413149,0.7265560730010853,922.0414069273742,713.9368959999999,68.03322372546015,76.0734112045636,581.3183358590938,777.8452921356912,775.6581530976596,179.0,550.0196807831784,724.2935803854386,0.7593877616456037,deceptive
1783334587985520861,1783334597985520861,1295.651104,1154.8979199999999,129.8816089304239,66.26021246149011,775.575518378031,1197.6975465206963,1192.9732954236454,128.0,846.9000569552749,918.9205167909133,0.9216249299916048,1193.1175633956834,1049.9072,40.81993423527609,73.1713333955269,702.1648914767537,965.5032057461443,962.0034588086941,139.0,682.713864040449,867.7683789863527,0.7867466487289301,951.6745033563217,713.9368959999999,89.29360613966644,75.17052761512255,625.2823465997594,707.7402225748768,705.6928099314829,174.0,500.44791070117185,810.3900112143654,0.6175395843678443,914.8694120662982,713.9368959999999,89.29360613966644,75.807860909575,525.2110831504482,673.5319951724917,671.6780799149648,181.0,476.25904113257394,662.0287203723677,0.7193933230943441,962.7404859534882,713.9368959999999,89.29360613966644,73.90507361368579,616.1968260847328,831.2168349696292,828.8004242900569,172.0,587.7590606434442,765.9417081407469,0.7673678745999813,deceptive
1783334588985520861,1783334598985520861,1243.9049781492533,1133.899776,84.04104107262725,67.90070809084978,706.980298511771,1088.0770067427213,1083.9990553025527,134.0,769.3866299209391,838.8470610409478,0.9171953573589285,1230.024612977778,1133.899776,102.04983558819022,71.41064491696484,718.6750986505075,1010.4818850296577,1006.715345845626,135.0,714.5185931706362,881.8839973870491,0.8102183453693421,922.5184597333334,713.9368959999999,95.24651321564421,76.52655284327611,603.9016647867288,666.194469622188,664.3311506527872,180.0,471.0706270588245,786.4099907971465,0.5990140417485319,871.4785266455025,713.9368959999999,95.24651321564421,78.01039302637619,482.4939278404078,645.3717395581879,643.6670303145193,189.0,456.34673342775307,601.2275860692347,0.7590249416386596,925.333941213483,713.9368959999999,44.64680306983322,75.37089854298587,573.2729292612879,784.7197022619733,782.5079336913807,178.0,554.8806228001299,709.4627897699112,0.7821137779193262,deceptive
1783334589985520861,1783334599985520861,1233.0489070676692,1133.899776,68.03322372546015,67.18949699106881,685.7251680840498,1060.3943570999534,1056.383921525718,133.0,749.8120406373264,811.9907414160834,0.9234243722159694,1207.2411195362317,1091.903488,51.02491779409511,71.52023651192548,708.1352104871481,988.0429510073851,984.4361253957433,138.0,698.6518707608898,871.1221122233723,0.8020137027376274,933.1197698876402,713.9368959999999,89.29360613966644,76.18298805690638,615.6040275645407,694.9243269804837,692.9585239815714,178.0,491.3857040193976,798.2522674255603,0.6155769599053735,878.8112118518517,713.9368959999999,89.29360613966644,77.6096234790992,488.6344585281937,652.1457092600203,650.409004965623,189.0,461.136653339471,609.2649354720148,0.7568737777141489,938.3916329943503,713.9368959999999,89.29360613966644,75.24067809716013,603.6072244523594,826.3837451410343,824.032754312963,177.0,584.341550051561,746.964416330411,0.7822883356642845,deceptive
1783334590985520861,1783334600985520861,1195.0682824347825,1091.903488,158.74418869274035,69.70123520120968,705.3675520035666,1077.9364465640826,1074.0428060874838,138.0,762.2161710535934,839.404563444355,0.9080438732974812,1231.3687727761196,1133.899776,34.84628532279665,69.77044310163052,717.97651642988,1023.7147307822366,1019.8847759373023,134.0,723.8756281366805,876.916526121178,0.8254783740233111,956.9843788505746,713.9368959999999,54.94991147056397,75.30686766000683,643.1423700217241,727.4712741686114,725.3689991338038,174.0,514.3998710830433,833.6429706710151,0.6170505710244196,878.5890092698412,713.9368959999999,95.24651321564421,77.81836420335429,492.71494633639986,667.5750576646542,665.7973746915042,189.0,472.0468502256775,611.6550680592544,0.7717533539343578,961.7638280930232,713.9368959999999,42.020520536313626,73.69522015103267,590.1133247383954,820.7170587910308,818.3244332120778,172.0,580.3345977066164,726.6865551391161,0.7986037358232364,deceptive
1783334591985520861,1783334601985520861,1191.7946587428573,1091.903488,59.529070759777625,69.72424539309502,687.1113607547328,1040.9758592951982,1037.2256828293434,140.0,736.081089159128,820.5707521278083,0.8970354929790131,1224.3770729411763,1154.8979199999999,42.020520536313626,69.85298828926612,692.1842684707441,982.3868619384649,978.7594758640773,136.0,694.6524118252612,846.739119451459,0.8203854007303645,1010.4561415757574,713.9368959999999,32.47040223260598,73.17826125529382,682.7007787247957,799.7279487542777,797.316004113751,165.0,565.4930556685575,878.7886597687772,0.6434915259572733,891.5789484491979,713.9368959999999,32.47040223260598,76.74360133780262,482.8455082333531,646.2007442016147,644.4901371241074,187.0,456.9329282327554,601.5693801969727,0.7595681284229281,1005.3501627317072,713.9368959999999,84.04104107262725,71.40194917909486,579.4336647227237,789.6454834243586,787.2195315056317,164.0,558.3636760626936,718.0541388049297,0.7776066537155376,deceptive
1783334592985520861,1783334602985520861,1184.5952950857143,1091.903488,119.05814151955525,70.2897876716833,692.7761573657837,1023.2117837378113,1019.6072941451536,140.0,723.5199908709895,835.5459411869725,0.865924846505939,1245.99513118797,1217.892352,68.03322372546015,67.90902896801737,684.0549056610739,981.8415757727015,978.1619761752536,133.0,694.2668362797626,833.5820343187622,0.8328716403384896,1031.760655802469,713.9368959999999,52.91472956424678,71.69466614534625,687.8414256849782,827.9025548747884,825.3284545622971,162.0,585.4155107136306,880.2817694832924,0.6650319602293453,887.953429787234,713.9368959999999,64.94080446521195,76.49744227875496,461.16349672152336,634.853854147571,633.1551042396965,188.0,448.90946533016285,569.722465227885,0.7879441179322325,1048.5865620125787,713.9368959999999,84.04104107262725,69.4764858621474,616.1746507389331,848.3231636910814,845.6343354892206,159.0,599.8550616835893,761.2025702221329,0.7880360434260496,deceptive
1783334593985520861,1783334603985520861,1175.3045669859155,1028.909056,38.61345130363954,70.09817370167507,673.2978974199231,941.6124133464281,938.3393226053228,142.0,665.8205227266897,827.6482544524318,0.8044728169785041,1228.7002202352942,1217.892352,27.474955735281984,68.87665602221331,677.3047603850088,966.0022321547125,962.4866212964523,136.0,683.0667289979388,827.15983869408,0.8257977443348369,1052.0335943291138,713.9368959999999,95.24651321564421,70.8021486652418,698.5925614551403,856.0180714701614,853.2877120585068,158.0,605.2961831547818,890.4332648604467,0.6797771456232006,948.495709090909,713.9368959999999,84.04104107262725,73.90388679472083,526.5156649387496,722.1806574222851,720.1143279870804,176.0,510.65884010505675,651.1921877319064,0.7841906732383793,1063.281814012739,713.9368959999999,84.04104107262725,68.72451268759282,620.0684583086444,860.5620188515095,857.799372817372,157.0,608.5092391614879,764.0864080102928,0.7963879906541812,deceptive
1783334594985520861,1783334604985520861,1169.1414162797203,1007.910912,79.37209434637018,71.19097833552833,684.0069462793714,978.4341719016479,975.0206171836998,143.0,691.8574378962994,834.5044325410415,0.8290638262874336,1250.100031518797,1217.892352,29.764535379888812,69.01531135581881,722.1224266152568,1047.217809696798,1043.2494042803614,133.0,740.4948146159293,876.7869255439855,0.8445550373102377,1036.082335006211,713.9368959999999,84.04104107262725,71.62238491664178,692.1234234071445,865.8589309919579,863.1488807420018,161.0,612.2547216553484,877.8620303686774,0.6974384361950574,975.4927247719298,713.9368959999999,84.04104107262725,72.7738915221403,553.7452921663775,728.7587436608042,726.6121742155021,171.0,515.3102494915436,693.1777337576092,0.7434027730494551,1090.256574745098,713.9368959999999,84.04104107262725,68.02870007720288,662.6356569036827,925.7980246849303,922.8313691795199,153.0,654.638061263825,814.7984609538242,0.8034355642958488,deceptive
1783334595985520861,1783334605985520861,1177.6705550422535,1049.9072,68.03322372546015,70.80633703703276,703.2282690415072,1000.2924532815069,996.7418533472812,142.0,707.3135768850814,859.6009241126053,0.8228394793959357,1245.158598686567,1196.8942080000002,28.013680357542412,67.34335731456831,697.7186358063848,1001.7430620770135,998.0211567983182,134.0,708.3393122012328,850.1472218964121,0.8331960558797683,988.7988288383234,713.9368959999999,64.94080446521195,72.86490431352779,616.1953517860817,767.6021152263562,765.625209866648,167.0,542.7766609296941,782.3619183603914,0.6937667186910119,965.6690316725146,713.9368959999999,64.94080446521195,73.5234560908814,557.8043229830068,772.2353049257839,769.9663813555986,171.0,546.0528207846831,687.8986000375394,0.7937984184804046,1060.3393989299361,713.9368959999999,64.94080446521195,69.26204630387134,640.3159438152815,891.5228652313831,888.6649037845494,157.0,630.4018635879715,788.2295103588266,0.7997694266749706,deceptive
1783334596985520861,1783334606985520861,1205.5049576978417,1091.903488,51.02491779409511,69.84093959300843,732.2731191426575,1021.4931073574446,1017.8035145636422,139.0,722.3047031477671,900.8805691894688,0.801776315142008,1250.9803364848485,1217.892352,79.37209434637018,68.2907325392837,714.7949810132408,1036.7273537338324,1032.8547940823175,132.0,733.0769420667775,867.8495424141502,0.8447051087075906,971.3494377411765,713.9368959999999,43.293869643474636,72.63500758139315,531.266307182176,742.9653488599135,740.7746354793986,170.0,525.3558363654738,653.0607941779533,0.804451654499901,962.5160804624277,713.9368959999999,84.04104107262725,73.68824558637536,556.2675892542395,757.6979846425726,755.4922028681782,173.0,535.7733830321437,689.4495650347403,0.7771030836826286,1045.945286037736,713.9368959999999,43.293869643474636,69.92911296243953,631.4096939780292,868.7796837012538,866.0270366539983,159.0,614.3200057022605,780.1678464252703,0.7874203077159295,deceptive
1783334597985520861,1783334607985520861,1162.9741292307692,1049.9072,129.8816089304239,70.51646773479655,687.3323539770153,957.7048831740448,954.3432681861084,143.0,677.1996172678373,845.9029902023738,0.8005641605615132,1244.8451935522387,1217.892352,51.02491779409511,68.02941464474551,707.273000744588,1031.094657686881,1027.2112423180497,134.0,729.0940244956155,857.1354308899506,0.8506170649585776,975.7961035294115,713.9368959999999,62.117291227594045,71.81299122287498,494.9981122367237,692.103375142217,690.0543047547362,170.0,489.3909898451587,608.5182756212242,0.80423384054579,967.8679397209303,713.9368959999999,64.94080446521195,72.76912155987824,510.1960790444722,685.9430854985358,683.9366237041379,172.0,485.0350072640384,634.799652653413,0.764075728832916,1032.0587776,713.9368959999999,64.94080446521195,70.5290003539944,614.5431841833948,837.322492835496,834.6862948421364,160.0,592.0764127240036,761.6097499378993,0.7774013039778978,deceptive
1783334598985520861,1783334608985520861,1207.545440463768,1091.903488,178.58721227933287,68.44501260166506,699.8283914906717,973.6865621385199,970.1303759920577,138.0,688.5003708383641,861.6862391558539,0.7990151630050977,1244.5317884179105,1217.892352,37.59730784828061,67.80139941373162,696.0876064653617,1001.5871053556418,997.8218302932316,134.0,708.2290341459793,847.5150319290384,0.8356536550554995,1002.5981285783132,713.9368959999999,44.64680306983322,70.20168130301596,502.8124479960579,697.883133914384,695.7770403927883,166.0,493.4778964665804,619.5809055878308,0.7964704722434764,1006.3744624390241,713.9368959999999,44.64680306983322,71.06555492889763,554.0060047849361,765.27721311108,762.935913935279,164.0,541.1327068783874,683.6907220730495,0.7914875680009148,1057.9834092307694,713.9368959999999,44.64680306983322,69.67185543700143,645.3904917765508,894.3499241219994,891.4695202439578,156.0,632.40089610034,795.6709917151056,0.7948020006826825,deceptive
1783334599985520861,1783334609985520861,1203.2849474782608,1091.903488,119.05814151955525,67.91451218369276,662.9456960055276,916.4356366830413,913.0910815165025,138.0,648.0178532195897,817.94279913625,0.7922532650252542,1276.6871552,1301.884928,102.04983558819022,66.59241150204191,703.132977525465,1023.3149188076605,1019.3421649438973,130.0,723.5929183782581,852.642136188489,0.848647853146091,1021.0508548711656,713.9368959999999,64.94080446521195,69.09778813064437,504.6575292667964,703.7502645442588,701.5771803211369,163.0,497.6265843210722,620.920554483266,0.8014335823287413,1027.3536379259258,713.9368959999999,64.94080446521195,69.7182406721224,555.0781064681842,778.5095208299974,776.0901714048458,162.0,550.4893613971809,681.6921152946333,0.8075337077343995,1060.0719066496815,713.9368959999999,49.26543787016079,69.10110353110011,627.704147073111,872.5553473863138,869.7623652214698,157.0,616.9898030974462,773.1020527345992,0.7980703206194366,deceptive
1783334600985520861,1783334610985520861,1226.5386465882352,1112.901632,49.26543787016079,65.55678405590098,660.6094594096286,914.011106433488,910.6300024082338,136.0,646.3034514389386,814.8347317413644,0.7931712116121247,1228.0826277647059,1238.890496,158.74418869274035,68.8681920463041,685.0816973412351,980.3318672770503,976.6950523351961,136.0,693.1993111648728,835.7100104487012,0.8294735045625301,1013.0013711515151,713.9368959999999,84.04104107262725,69.33408114564836,496.33916650927523,686.602119012425,684.5068165741526,165.0,485.50101433073866,612.2495561159323,0.7929789568337503,1017.8978341463413,713.9368959999999,44.64680306983322,70.21905035643535,551.7744648806254,776.317983989967,773.9330197524982,164.0,548.9397108363753,676.9362725707932,0.8109178560511658,1036.8648745341613,713.9368959999999,84.04104107262725,69.72618407321895,596.6436303706291,821.4784006805702,818.9276160000001,161.0,580.872947719511,737.0621090705389,0.7880922659991464,deceptive
1783334601985520861,1783334611985520861,1227.5359440592592,1133.899776,31.058645613797022,65.2281225758825,645.6474467928532,863.7866605285096,860.5760304585373,135.0,610.7894051581915,804.4808278470729,0.7592342589353777,1274.4258166153847,1301.884928,33.225527865922395,66.7998211912313,720.8019956458331,1025.2297331632542,1021.2650555513635,130.0,724.9468965938117,881.0998992245611,0.8227749171595904,984.5237576047901,713.9368959999999,42.020520536313626,70.41531370062184,457.39673332688744,607.6000890149711,605.7843199811036,167.0,429.63814319203595,571.0771193748401,0.7523294641227478,1001.2529639024386,713.9368959999999,49.26543787016079,70.8268224644195,537.3708762117827,743.7221955037917,741.4448945970245,164.0,525.8910077596784,662.7625828152893,0.7934832493497045,1007.3956201226993,713.9368959999999,49.26543787016079,71.08290840354023,580.9249952756993,792.8401670762848,790.3965261777839,163.0,560.6226585367164,719.5823911406912,0.7790944656775302,deceptive
1783334602985520861,1783334612985520861,1249.4685083909776,1175.896064,129.8816089304239,63.63049823882352,640.4075286076145,869.4059266637221,866.1459626539796,133.0,614.7628263476921,794.5293821282658,0.7737446092943195,1264.0562105648855,1301.884928,26.956560344050246,66.76036870758516,700.4283375915594,977.3272327188347,973.622981502145,131.0,691.0747136937711,861.63076909375,0.8020543584122847,988.7988288383234,713.9368959999999,84.04104107262725,70.50507504654439,468.2572290988822,606.147314037868,604.3444410141294,167.0,428.61087615418825,588.7920037058041,0.7279495534187792,980.8245487337279,713.9368959999999,84.04104107262725,71.44605969091978,504.98242525587403,682.8847511579565,680.8495061946993,169.0,482.87243831267915,627.2412644219071,0.7698352543143274,976.6000700591713,713.9368959999999,44.64680306983322,71.93609799491466,528.1640897858612,729.2189171390563,727.057803040328,169.0,515.6356412785378,651.900724190647,0.7909726468224344,deceptive
1783334603985520861,1783334613985520861,1224.736191525926,1175.896064,38.61345130363954,64.88793869341634,634.1551027575825,885.7521864325716,882.4815225655772,135.0,626.3213774772825,779.8500848012006,0.8031304858252908,1255.0429144615387,1259.88864,47.62325660782211,66.07905753138584,678.3324366484903,950.177482217851,946.5121491706948,130.0,671.8769410070026,833.402950133063,0.8061849803864136,984.4129889523808,713.9368959999999,51.02491779409511,70.77680995732622,467.73447516783426,604.1358612621456,602.3307073665355,168.0,427.1885642564384,588.4777343326764,0.725921371928987,960.3313024739884,713.9368959999999,84.04104107262725,72.25713583242656,484.98008899948,668.2233721448417,666.2780754274285,173.0,472.5052777909595,598.9831004976111,0.788845757749127,990.1624807619048,713.9368959999999,62.117291227594045,71.29014981872359,535.1276930915508,724.7418874405854,722.5899231018444,168.0,512.4699032191754,664.3873832142166,0.7713420154668126,deceptive
1783334604985520861,1783334614985520861,1207.9376763259256,1133.899776,39.68604717318509,65.2052713208199,619.9023301735652,854.6891765012838,851.4968917470053,135.0,604.3565125108038,765.463520229489,0.7895301298350774,1245.6793696240602,1301.884928,44.64680306983322,66.0421792542901,646.5223050663776,895.3296937419909,891.9400167887782,133.0,633.0936978426366,797.2316895185819,0.79411506863825,1024.3442420869565,713.9368959999999,29.157095882340062,69.66426229921876,546.3589140234479,663.0800847234112,661.0164369593598,161.0,468.8684243776745,697.9235819031774,0.6718048172252767,949.1646594219653,713.9368959999999,84.04104107262725,73.51907632092691,535.1914937370051,759.1619437393362,756.9566254766733,173.0,536.8085584368448,654.8115421488626,0.819790922858853,992.9845204819276,713.9368959999999,95.24651321564421,71.36558565622995,536.5616192555277,735.9220947428173,733.6886386217192,166.0,520.375503617655,663.627463365979,0.7841379875664926,deceptive
1783334605985520861,1783334615985520861,1232.824365511111,1175.896064,47.62325660782211,64.44044096113517,646.9411590371648,903.9424407662419,900.5738934771958,135.0,639.1838296681287,795.4795675930919,0.803520110016311,1249.7842699548871,1301.884928,42.020520536313626,66.02038650270507,678.7690906083211,935.920286776981,932.3686114456088,133.0,661.7955814300615,838.1337965565629,0.7896061275049646,1016.6708739141104,713.9368959999999,84.04104107262725,69.98911447813752,538.7140277518562,653.1957278636031,651.180750574706,163.0,461.8791286144364,688.3018543258763,0.6710415288170354,932.647901483146,713.9368959999999,84.04104107262725,74.30706509983989,516.9494339247949,716.6586151112418,714.6413714758088,178.0,506.7541665409191,637.2389989768682,0.7952340759974647,1006.1292512969698,713.9368959999999,84.04104107262725,71.1787723267735,561.9170456089363,716.8366397338484,714.6595653332279,165.0,506.88004895878237,709.2516057616803,0.7146688775056536,deceptive
1783334606985520861,1783334616985520861,1240.4575216716419,1175.896064,47.62325660782211,64.21238095496847,640.8832462341812,881.3682661962724,878.0567757174744,134.0,623.2214777500144,791.9975791900304,0.7868982104558678,1271.5183812923076,1301.884928,46.087022523698806,65.53494674771115,688.5027668682586,942.2265028687651,938.5922558735422,130.0,666.2547495921898,852.1293471612274,0.7818704423357113,1000.0207003151514,713.9368959999999,28.573953964693256,71.03851400294081,532.2388344438634,627.6257957962521,625.7735634115659,165.0,443.7984562551332,684.1621290988744,0.6486743965785863,941.5758661818181,713.9368959999999,84.04104107262725,73.51454030001891,511.2311516405474,706.9170382011469,704.8945449855339,176.0,499.8658314483406,630.6993389014058,0.7925580393330367,1016.6708739141104,713.9368959999999,17.2132252799357,71.18299207198949,590.5246391860907,753.5488863446153,751.4263190698466,163.0,532.8395274898485,745.3051173471994,0.7149280409966995,deceptive
1783334607985520861,1783334617985520861,1261.7975621818182,1196.8942080000002,40.81993423527609,63.7413947870179,661.965859661505,871.3114112510908,867.9965335861215,132.0,616.110207420867,828.6143281833223,0.7435427875977533,1267.2061750303028,1280.8867839999998,42.020520536313626,65.25850448508731,683.0392008330729,932.7424294899972,929.207377954131,132.0,659.5484969927921,845.9213851219511,0.7796806045962643,986.406788626506,713.9368959999999,95.24651321564421,71.49264587773227,518.192960216528,621.9349038768552,620.0591422117578,166.0,439.7743879879279,663.5865669758981,0.6627234634843066,911.8531040883977,713.9368959999999,64.94080446521195,74.41755035343498,455.9930226093015,637.3227986608605,635.5499918925478,181.0,450.65527273788314,560.637303355303,0.8038267700718464,973.8198076235293,713.9368959999999,84.04104107262725,71.74990615493033,488.8606389779845,614.8382854616938,613.0177975634559,170.0,434.756320983074,619.2438286866957,0.7020761464916229,deceptive
1783334608985520861,1783334618985520861,1253.8891702857143,1175.896064,52.91472956424678,64.09732690419985,637.6630117740112,853.556243352603,850.3285948809568,133.0,603.5554077987406,794.410893699132,0.7597521793644055,1278.6254454153848,1301.884928,89.29360613966644,65.24348695527529,697.6371517438747,984.0832875019959,980.2737536615069,130.0,695.851965845012,855.155080556403,0.8137143562221005,1018.4099839999999,713.9368959999999,42.020520536313626,70.35916506465595,562.8701287042117,681.4427024430687,679.3632909489313,164.0,481.8527558875806,719.412624574217,0.6697863499028311,912.9029161967213,713.9368959999999,42.020520536313626,74.69865901680438,464.0042137622822,639.5815165943404,637.8326895532254,183.0,452.25242750543447,573.0040939522406,0.789265613071046,982.4661022117647,713.9368959999999,84.04104107262725,71.33661953067045,493.5835949173576,632.8871852907884,631.0119598792013,170.0,447.5188204451834,622.1840427210908,0.7192708101094689,truth
1783334609985520861,1783334619985520861,1320.4029762519685,1301.884928,22.677741241820048,61.05089467349523,664.117706153371,881.5486051100567,878.1603892308749,127.0,623.348996618863,829.3507517690925,0.7516108176054509,1257.9940706165414,1259.88864,33.225527865922395,67.03536632643232,703.0148784066873,976.3692610633362,972.7240101137791,133.0,690.3973254399837,866.103691849306,0.7971301034011831,993.9121493333334,713.9368959999999,42.020520536313626,71.45887355851481,541.5655563722976,655.419479822101,653.4543931510971,168.0,463.4515587039672,692.2375532034536,0.6694978574324116,888.1768142978723,713.9368959999999,42.020520536313626,76.22109429862141,450.6617927550287,614.1632773610006,612.5308265257702,188.0,434.27901817771794,558.4737863889867,0.7776175511937727,988.0310123550296,713.9368959999999,29.157095882340062,71.39409234662254,512.9589163802436,661.5490408097137,659.6257117663761,169.0,467.7858128440046,645.632957986908,0.7245383109043363,truth
1783334610985520861,1783334620985520861,1285.0864128,1259.88864,178.58721227933287,64.18357461888898,664.9372857548497,886.7210656338472,883.2774756709648,130.0,627.006478530655,829.2856117854371,0.75608025705489,1309.4905549606299,1301.884928,119.05814151955525,63.728201529752866,719.3164904529757,1026.0313537802285,1022.026096100221,127.0,725.5137279680132,878.4345975313983,0.8259166134927659,988.2795111005915,713.9368959999999,42.020520536313626,71.65870375386386,536.1929869557051,652.8341297297552,650.9021437343569,169.0,461.62344012192824,684.4397258239474,0.6744544810957799,893.1510020106953,713.9368959999999,84.04104107262725,75.99380663509037,456.26536671852676,609.5388454269475,607.8980918574778,187.0,431.0090509980134,568.7457856656869,0.7578237269811856,976.7206864093566,713.9368959999999,84.04104107262725,71.90457308846696,507.61354394156325,663.0444814330627,661.0914742999053,171.0,468.84324904963654,636.7385836401913,0.7363198353228282,truth
1783334611985520861,1783334621985520861,1318.2168177777776,1259.88864,46.087022523698806,62.267627129543904,689.0252986088208,909.4095419606779,905.7655962255245,126.0,643.0496539961474,861.8325217196592,0.7461422466548803,1237.323470328358,1196.8942080000002,40.81993423527609,66.22225628136152,666.0267497241948,973.44658243546,969.7852445403713,134.0,688.3306795629833,806.4016992061285,0.8535828734495704,976.4750940818712,713.9368959999999,84.04104107262725,71.94719394925384,520.5446164154602,634.4755503270575,632.6066933946771,171.0,448.64196413332894,664.2993221188258,0.6753611650578782,893.8887322150537,713.9368959999999,68.03322372546015,76.29733099843305,482.71689965293666,647.0130625151099,645.2626479663024,186.0,457.50732402070986,601.1445206061445,0.7610604577405068,966.6471173953487,713.9368959999999,68.03322372546015,72.57182180731168,503.76045556563565,657.9603797623197,656.0344336043079,172.0,465.2482462820123,631.918687687862,0.7362470130204838,truth
1783334612985520861,1783334622985520861,1330.882364952381,1259.88864,102.04983558819022,63.43511572827402,723.2431783300209,975.985175735477,972.0739182972524,126.0,690.1257361001001,898.9018990902002,0.7677431061149081,1245.4720038208957,1238.890496,57.14790792938651,65.34960693056225,641.0787044532798,934.7301472208222,931.209493855083,134.0,660.9540256793433,776.8743132425774,0.8507863040555464,1011.7287563636363,713.9368959999999,44.64680306983322,70.06115465765875,536.5299786541893,654.7616907526478,652.7737150299627,165.0,462.9864315923664,684.5075734204942,0.6763788299358275,912.2144524590163,713.9368959999999,44.64680306983322,75.28132977127815,492.29057839180405,662.3077945680651,660.4858017272179,183.0,468.3223327717857,612.402746124044,0.7647293153661424,974.0668446117646,713.9368959999999,84.04104107262725,71.80649698437065,504.1686447573305,659.3710177227035,657.4173215240207,170.0,466.2457179495988,632.2021116381361,0.7374947178545198,truth
1783334613985520861,1783334623985520861,1328.4265820159999,1259.88864,26.45736478212339,63.35293848963759,722.3845122978889,969.6251924596302,965.7084491095451,125.0,685.6285487975157,899.2416325730387,0.7624519639239759,1231.268947437037,1175.896064,36.63327431370931,66.67875261087111,657.1787095077975,940.5158115470292,937.0380609025407,135.0,665.0451081580734,801.6390799594145,0.8296066456637111,1008.6744808727273,713.9368959999999,64.94080446521195,70.12825310331877,528.8310601539747,644.9276503804277,643.2227009399127,165.0,456.0327149587073,674.790087220351,0.6758141881384677,893.9209874285715,713.9368959999999,64.94080446521195,75.42347148121016,410.9227244731117,525.3242430115107,523.8735788398101,182.0,371.460334555129,518.3855523670636,0.7165715418937866,959.3979586206898,713.9368959999999,64.94080446521195,72.24276244760586,465.29940596144473,609.7022417382256,607.9387543503572,174.0,431.124589637739,583.1576703439579,0.7392933533455082,truth
1783334614985520861,1783334624985520861,1306.845119496063,1175.896064,158.74418869274035,64.39985558733362,714.3017543005419,982.9914797346021,979.1274266252785,127.0,695.0799411689358,882.5451433699909,0.7875857075308115,1281.3676575267175,1217.892352,71.43488491173315,63.402109274071904,665.1294696861047,961.7384681651104,958.0663737179817,131.0,680.051792567512,808.430085166735,0.8412005008785076,992.9845204819276,713.9368959999999,84.04104107262725,71.6218969239602,565.3524395660437,736.5876255523431,734.3585011627879,166.0,520.8461049661593,709.652329889323,0.7339454589649415,938.8661673220339,713.9368959999999,84.04104107262725,74.23183287733484,519.4516612359499,703.8480615930026,701.8547713488896,177.0,497.69573727741897,644.8329498944044,0.7718211939370032,977.5253624470589,713.9368959999999,84.04104107262725,72.20997280216334,510.55958613812396,643.8931751875036,642.0784431103802,170.0,455.3012305348214,646.291402334739,0.7044828832474604,truth
1783334615985520861,1783334625985520861,1273.9942634503818,1133.899776,28.013680357542412,65.72765639413826,697.8815930759644,952.1140263884336,948.4454750321825,131.0,673.2462845220888,864.5502623312847,0.7787242845854454,1236.8684525037033,1133.899776,46.087022523698806,65.5745510027365,632.3782966697038,922.3978840672467,918.9689483141581,135.0,652.2337987760731,766.2246120197512,0.8512305511262541,1009.1835267878787,713.9368959999999,43.293869643474636,71.11557685558427,577.6035013490639,753.3612079476738,751.0734790550421,165.0,532.7068188226889,724.819516935976,0.7349509862463367,957.4182651560694,713.9368959999999,84.04104107262725,73.35505035750352,532.6606643075161,712.4752425114632,710.4021233658356,173.0,503.7960754073856,663.7390479722483,0.7590273269992245,984.0550324260354,713.9368959999999,31.748837738548065,72.12639861071405,521.6582216034179,687.7391994806068,685.7276220028233,169.0,486.3050516405447,652.693112195406,0.7450745879710657,truth
1783334616985520861,1783334626985520861,1278.6254454153845,1154.8979199999999,109.89982294112794,65.75888456739348,693.4503030598206,980.6590762496311,976.8507313484388,130.0,693.4306828482497,849.307712004206,0.816465779183712,1239.9792886518517,1133.899776,68.03322372546015,64.7861515679783,630.942865353141,937.7654894435236,934.2598117914685,135.0,663.1003367482373,759.1618868082425,0.8734636818190671,976.4750940818714,713.9368959999999,84.04104107262725,72.65290220715333,557.070972657437,722.0691125632271,719.9422475233121,171.0,510.57996597881043,700.2215266082186,0.7291691937150132,932.833749094972,713.9368959999999,84.04104107262725,74.39710979374533,506.09333133184697,681.335951425764,679.4193908037697,179.0,481.7772715193459,629.4491642387179,0.7653950452091353,976.4750940818714,713.9368959999999,52.91472956424678,72.72397217448356,533.7114963369718,737.4240611312987,735.2561179485419,171.0,521.4375542360644,658.5949902334929,0.7917423636204676,truth
1783334617985520861,1783334627985520861,1204.8065521159422,1007.910912,59.529070759777625,70.672617849781,686.2306418270358,943.1565307005906,939.7164989296679,138.0,666.9123785787658,848.1974576794589,0.7862701927960715,1249.3895680000003,1133.899776,36.63327431370931,63.66764461359731,627.8222306284541,937.1611128104795,933.5800066603642,132.0,662.6729779326212,754.1576550705638,0.87869290124837,958.3892775953756,713.9368959999999,43.293869643474636,73.2790079361581,537.6951995803956,687.6652770892275,685.6644229163774,173.0,486.25278061631894,678.2413817919488,0.7169317497726457,929.0798909497205,713.9368959999999,84.04104107262725,74.68217941898703,505.4798030605449,663.9938192694684,662.1368019878271,179.0,469.51453227139604,633.0858666857448,0.7416285167276632,984.0550324260355,713.9368959999999,84.04104107262725,72.3817224517066,539.7970881848668,751.0027021525228,748.7749213510211,169.0,531.0391033814699,664.6506813098321,0.798974737128001,truth
1783334618985520861,1783334628985520861,1174.7046799432621,1007.910912,46.087022523698806,71.80459561436041,666.9149424155523,931.4613845847597,928.1288235051919,141.0,658.6426614532943,820.1499881674933,0.8030758653364565,1249.1527468270676,1133.899776,95.24651321564421,65.48786452264426,628.9180563345008,958.6882163999853,955.0501297952953,133.0,677.894938860066,749.2029558811727,0.9048214953486963,961.0595618034682,713.9368959999999,44.64680306983322,72.85679609958537,520.0541653376773,659.1033582802555,657.1976752797517,173.0,466.05645414279525,657.5016049760326,0.7088293786899335,923.6850232888888,713.9368959999999,44.64680306983322,74.64523649220318,470.2247009973323,617.308240541129,615.594421742761,180.0,436.5028429689687,589.0290085352887,0.7410549168951802,983.8065336804734,713.9368959999999,64.94080446521195,72.27098309434291,530.2991628135668,761.9634450802398,759.6943272849373,169.0,538.7895190325011,645.9778101853831,0.8340681530188768,truth
1783334619985520861,1783334629985520861,1156.9394062222223,1007.910912,44.64680306983322,72.57656768010551,656.5635798892131,952.7691673044561,949.4365041499026,144.0,673.7095391064412,797.0001237969612,0.8453066931744557,1287.7767999999999,1322.883072,158.74418869274035,64.21203855302277,635.7546191124151,947.0574346575887,943.4842875241313,128.0,669.6707342195166,764.2894905142231,0.8762003697956833,968.6320308705884,713.9368959999999,84.04104107262725,72.42480710051696,526.2049223573555,668.3296148895422,666.3494209766803,170.0,472.58040275618913,664.9188838434505,0.7107339169321203,951.1917874022988,713.9368959999999,95.24651321564421,73.43490478352625,499.2974964471263,680.6210052427064,678.6510850331123,174.0,481.27172822512233,618.696001055719,0.7778807805511897,1013.5445603902439,713.9368959999999,44.64680306983322,70.85422361160396,550.550665449912,774.4606567922301,772.0923607660441,164.0,547.6263821799733,675.4737176418625,0.8107293709247262,truth
1783334620985520861,1783334630985520861,1166.3649915460992,1007.910912,37.59730784828061,73.07400514495546,667.0929634152656,954.4412500759181,951.055990115057,141.0,674.8918801728471,813.8098787276432,0.82929919851552,1276.949632,1301.884928,28.573953964693256,65.49196705550693,635.0587344837477,919.4297804850646,915.8718362933928,128.0,650.135032605848,771.5318607662905,0.8426548087853813,976.5372144941175,713.9368959999999,84.04104107262725,72.75853483824397,564.421283115874,742.8910996336397,740.6901027224548,170.0,525.3033342340777,706.520327513384,0.7435077431995424,948.636151222857,713.9368959999999,84.04104107262725,73.5732012537829,496.9514223120531,691.4123386012969,689.422827674216,175.0,488.9023532210264,611.8894318285098,0.7990044079696539,1006.1292512969696,713.9368959999999,84.04104107262725,71.6226759346338,567.3073605155216,793.2576627426728,790.8356621216676,165.0,560.9178725535353,697.3957647671687,0.8043035259051255,truth
1783334621985520861,1783334631985520861,1159.7436455384616,1133.899776,47.62325660782211,71.34672181402365,632.2650833277535,950.5863935186612,947.2500118024683,143.0,672.1660849607093,757.3735196751986,0.8874961528216213,1281.2098323692308,1301.884928,21.323846242308402,66.77987779718549,665.3822108283742,961.3964135392084,957.8554228317137,130.0,679.8099234220006,808.947592234625,0.8403633683414566,966.8969933099415,713.9368959999999,84.04104107262725,73.80750155238319,613.8451165564458,791.2113427065797,788.8808182253244,171.0,559.4709057795359,772.7275115029267,0.7240209484600664,934.1208240451977,713.9368959999999,84.04104107262725,74.16741288804474,473.0893924585765,609.4280117307453,607.6942158655089,177.0,430.93067973984483,595.6311955758595,0.723485745778004,1018.2167495460122,713.9368959999999,84.04104107262725,71.96032080579678,637.9316003874475,853.1378989715193,850.5008392603135,163.0,603.2595936500051,794.9543288015956,0.7588606939966314,truth
1783334622985520861,1783334632985520861,1164.7362112447552,1133.899776,102.04983558819022,70.2838490214577,627.8696990879035,934.5785780974124,931.3027037652629,143.0,660.8468501243617,755.0373755025798,0.875250512843127,1291.713952,1280.8867839999998,29.157095882340062,65.7897907898693,690.9090369525813,1037.8878564880586,1033.8321623990748,128.0,733.8975414338765,827.8935885874118,0.8864636126559267,924.1529521340781,713.9368959999999,84.04104107262725,75.70374005925184,568.9256224229072,646.6425108064443,645.1208218313045,179.0,457.24530439473216,736.7605401370713,0.6206158982261232,897.8125353513512,713.9368959999999,84.04104107262725,76.01523045926025,446.46438290254,560.9106174101641,559.3843737502359,185.0,396.62370121026026,565.6904720960296,0.7011320161371409,1000.5742110843372,713.9368959999999,84.04104107262725,73.1096483203095,638.0616456909455,842.961126276629,840.4028550455727,166.0,596.0635286668539,797.8718332541165,0.7470667641390618,truth
1783334623985520861,1783334633985520861,1175.5982179858156,1217.892352,158.74418869274035,69.87756436509842,628.913496711446,912.884684450637,909.6826403485342,141.0,645.5069508163871,763.364107694029,0.8456082023116531,1275.0719133538462,1238.890496,109.89982294112794,66.3757633399924,673.8100133881708,1019.2344395215895,1015.3171525572664,130.0,720.707583804586,805.1895165783094,0.8950782008032924,896.1502985792349,713.9368959999999,52.91472956424678,76.83012249126203,535.6934973260599,692.602591523286,690.7010707018393,183.0,489.743989133492,673.8029821161804,0.7268355916077676,858.615207539267,713.9368959999999,52.91472956424678,77.41291267501798,370.33980101766576,491.72926979001363,490.4385190727086,191.0,347.70510117642795,462.443204884182,0.7518871452841652,996.5263760963855,713.9368959999999,52.91472956424678,73.51219581461955,645.7951270598996,849.7445578821837,847.1675345047653,166.0,600.8601391548568,808.4468064480352,0.7432277972557969,truth
1783334624985520861,1783334634985520861,1171.1305277730496,1259.88864,46.087022523698806,68.96043269685573,606.989941581247,872.6643543674886,869.5434040864963,141.0,617.0668826730315,739.2481379859572,0.8347222684310005,1268.5443634809162,1301.884928,95.24651321564421,65.10624421338396,637.1334977334652,951.5537809035952,947.908912650689,131.0,672.8501311406304,765.1892173705646,0.8793251601907814,883.0449434010695,713.9368959999999,89.29360613966644,77.15441458788699,498.0586578799647,654.9775985013989,653.2145721491469,187.0,463.13910142561906,623.5991819620344,0.7426871535790687,877.4779963597882,713.9368959999999,84.04104107262725,76.53480933375552,394.5535909292822,534.4019540644932,532.9787772260092,189.0,377.87924559834505,489.84559822804937,0.7714252143231918,966.891281860465,713.9368959999999,84.04104107262725,74.35706800832149,581.5090142289527,783.794641438965,781.499522417757,172.0,554.2265060191706,722.995129493932,0.7665701792584789,truth
1783334625985520861,1783334635985520861,1193.8944731428571,1259.88864,54.94991147056397,67.18959320747973,587.584128310904,851.1808317263445,848.1188849813041,140.0,601.8757381297038,713.7107352500605,0.8433048690501014,1312.2173480634922,1322.883072,71.43488491173315,64.74558231175764,713.3474498453804,1063.5192865017295,1059.2592777527475,126.0,752.0216994080515,857.2985770497512,0.8771992856864497,878.6065515789473,713.9368959999999,42.020520536313626,77.17479223383958,486.38988923945146,632.589438546432,630.9138585065244,190.0,447.30828170317284,610.8255882562626,0.732301151594048,872.1451343915343,713.9368959999999,89.29360613966644,76.81788750317932,390.7532277524981,527.920886557824,526.5149695835565,189.0,373.2964388150515,485.4905296522184,0.7689057067343059,933.8275724943819,713.9368959999999,84.04104107262725,75.62543900160004,547.8928790363022,719.8287994530356,717.7925437832309,178.0,508.9958253866128,686.1740585790727,0.7417882081415901,truth
1783334626985520861,1783334636985520861,1212.6811337810218,1259.88864,30.397823366694958,66.3377430533351,585.6816266897836,837.7677615877958,834.6985580201014,137.0,592.3912652782052,714.5503691798259,0.8290405978771836,1327.754641408,1343.881216,35.717442455866575,62.7472429581077,668.3916940651312,971.9424283068424,968.0253848200059,125.0,687.2670819786881,810.7569872685413,0.8476856724899856,902.3526745945945,713.9368959999999,42.020520536313626,76.25419460582339,517.6929569460788,649.7248864489883,647.9685415645238,185.0,459.4248731137392,656.1069945712829,0.7002285860615449,889.8245753118279,713.9368959999999,44.64680306983322,76.0013556698818,410.3226406400974,547.5452054117233,546.0739648374523,186.0,387.1729277528106,511.6423563890928,0.7567257145895366,925.5606489385473,713.9368959999999,44.64680306983322,75.79938682667188,529.5598367842937,665.8352743644678,663.9673884459911,179.0,470.81663765632055,670.8450553764363,0.7018262024635893,truth
1783334627985520861,1783334637985520861,1226.9137768296296,1259.88864,52.91472956424678,63.751892151993445,559.1101243913512,819.4218035208563,816.3802508636596,135.0,579.4187139217083,676.2730508991772,0.8567822023239124,1352.831244590164,1364.87936,46.087022523698806,61.43690445677405,670.2297169257499,936.3069034701464,932.4611034855204,122.0,662.0689607155186,824.1650881524151,0.8033208033595818,911.0670128961746,713.9368959999999,84.04104107262725,76.30404891417028,549.762338806945,708.848361856089,706.8982938921807,183.0,501.2314835014162,691.99765773769,0.7243254047131674,886.8365072340424,713.9368959999999,84.04104107262725,76.09993972970959,399.5868731634612,517.3600910879256,515.9859176089683,188.0,365.82882872356214,502.41812511739397,0.7281362085376266,929.1088884494383,713.9368959999999,18.08478099031219,76.13375013651628,576.8552141878619,668.2789411298849,666.5508220788296,178.0,472.5445709971072,744.2275797644346,0.6349463307267901,truth
1783334628985520861,1783334638985520861,1266.941451725191,1301.884928,142.8697698234663,61.970847765142565,588.5972931373562,821.9494553399659,818.8074994639079,131.0,581.2060336634792,723.873828918983,0.8029106875316093,1367.2889830819672,1343.881216,64.94080446521195,59.17608472201525,675.7702979378896,950.1359818802451,946.2017181523087,122.0,671.84759583686,829.2414576793925,0.8101953774923476,883.2623550638295,713.9368959999999,84.04104107262725,77.58474508167821,507.16242702138044,690.3290607341614,688.4890281582943,188.0,488.13636009526556,628.7200503729038,0.7763969986415166,873.9648565894737,713.9368959999999,84.04104107262725,76.84897234683076,392.3125386275838,506.33085299669784,505.0005761206455,190.0,358.02997967793397,493.68565176106546,0.72521852397528,897.5855283891891,713.9368959999999,84.04104107262725,77.96558622173967,585.2949828810403,740.5525948339657,738.5454173055996,185.0,523.649761632391,740.2944667783249,0.7073533372622027,truth
1783334629985520861,1783334639985520861,1293.095007255814,1301.884928,62.117291227594045,59.78265081819201,581.2939574130396,810.4878363062676,807.3540612249351,129.0,573.1014451213742,715.2500937781983,0.8012602166803701,1274.3148458015266,1301.884928,54.94991147056397,63.07705473145972,650.5572136570261,860.4138324394156,857.1137450004468,131.0,608.4044555446166,813.2474320396692,0.7481172784262039,870.7083794764396,713.9368959999999,84.04104107262725,78.45000239386012,520.3882665197643,698.5034211798163,696.6628643195022,191.0,493.91650579825125,647.7894245145667,0.76246460208636,848.4964310204081,713.9368959999999,84.04104107262725,78.50337436057542,393.7974881559078,512.6920462362126,511.37580688282424,196.0,362.52802255403293,494.40837350042517,0.7332562350983749,866.1734399999999,713.9368959999999,84.04104107262725,79.09029322594904,541.126983255893,724.885069041108,722.9850072834807,192.0,512.5711478998461,673.9972056214804,0.7604944703401458,truth
1783334630985520861,1783334640985520861,1290.578235076923,1301.884928,23.811628303911053,59.74296450779338,597.1951517750665,830.8947540459268,827.6935761086712,130.0,587.5313150382034,735.3146098997552,0.799020320184174,1248.9888400610687,1259.88864,26.45736478212339,64.36678457237947,629.4830057055173,820.9405824195549,817.879108398605,131.0,580.492652780101,789.9442062438745,0.7348527252833463,865.9547093333332,713.9368959999999,29.157095882340062,78.74666939339218,518.0613753949697,709.5413685092282,707.7209778591366,192.0,501.72151320525825,641.0249128901062,0.7826864496470368,843.9761634111676,713.9368959999999,84.04104107262725,78.7552091965331,390.5554274619358,505.6394895287391,504.3481254426816,197.0,357.5411118814757,491.0695067882242,0.7280865680704275,848.2821642448977,713.9368959999999,84.04104107262725,79.56442776414659,500.6173594783605,657.3319112727879,655.6444199070012,196.0,464.80385195130236,627.067915642148,0.7412336692036311,truth
1783334631985520861,1783334641985520861,1265.3385399694657,1301.884928,38.61345130363954,60.92883991349137,561.2051468382199,751.9527011739823,749.0550617863086,131.0,531.7108541316644,698.9593818489769,0.7607178155690746,1232.2021982814815,1217.892352,62.117291227594045,65.0086340515268,616.7296790589658,778.8721621372136,776.0032639125766,135.0,550.745787524652,780.4168968098238,0.7057071544401231,867.3430257409326,713.9368959999999,54.94991147056397,78.54923530417818,499.8718047094877,689.4440954860902,687.6491420384846,193.0,487.51059516723996,617.1793516368498,0.789901013172736,839.2926501306531,713.9368959999999,84.04104107262725,78.93593697822085,383.2668086986363,495.35490196777,494.1024223352095,199.0,350.26881027540765,482.12319335850185,0.7265130885643815,843.5315018989897,713.9368959999999,84.04104107262725,79.62927921673848,488.2511989713869,639.5136423392589,637.888446211735,198.0,452.2044331593984,611.9918642510595,0.7389059554129775,truth
1783334632985520861,1783334642985520861,1268.1606361212123,1301.884928,35.717442455866575,61.477683339323754,569.8884101805758,795.9238958791094,792.8854482920859,132.0,562.8031840845339,700.8365630505042,0.8030448377790711,1221.2643167299268,1217.892352,119.05814151955525,65.21780092441185,606.0014110680085,752.0942995671301,749.3425335017834,137.0,531.8109793156643,770.1064611938351,0.6905681306598049,883.9541264516128,713.9368959999999,95.24651321564421,77.66169132577222,509.45462808647466,690.306123008869,688.4442278547243,186.0,488.1201406741663,632.4218531103843,0.7718268087566682,861.4678973678757,713.9368959999999,49.26543787016079,77.5161927296063,378.94011895387064,458.0244146513248,456.8403488643581,193.0,323.8721695489508,484.50452670885863,0.6684605647525091,853.4167955233161,713.9368959999999,49.26543787016079,78.0980257248369,433.48245921540655,557.1794555717836,555.7405197436067,193.0,393.98537137263685,546.078610153388,0.7214810542789257,truth
1783334633985520861,1783334643985520861,1226.538646588235,1259.88864,158.74418869274035,64.74608395796676,583.7135484196885,802.0292510143913,799.0910968040733,136.0,567.1203221022438,721.5471456160933,0.785978193591228,1276.6871552000002,1280.8867839999998,22.32340153491661,63.38745513848987,657.7222338294388,786.4520491832304,783.4305939973704,130.0,556.1055770555184,842.9533601161147,0.6597109678510757,887.953429787234,713.9368959999999,43.293869643474636,77.0002736833279,477.7183924550453,626.7435431686343,625.0745893493755,188.0,443.17460943942507,598.5213928956691,0.7404490711607309,866.3108624083768,713.9368959999999,44.64680306983322,77.17263197062358,379.6892702989477,433.9452883993691,432.81813173922853,191.0,306.84565609114594,491.17283681947623,0.6247203287504329,838.870576884422,713.9368959999999,84.04104107262725,78.78940958198514,416.77854335623744,546.0992682077003,544.7185253246215,199.0,386.1504957506761,522.3529512887313,0.7392520608871431,truth
1783334634985520861,1783334644985520861,1188.1949769142857,1217.892352,57.14790792938651,67.95730031428027,594.5256845357836,814.4336390116695,811.5131317454097,140.0,575.8915489715882,735.5923062791213,0.7828950140664814,1303.8535039999997,1280.8867839999998,178.58721227933287,62.119518577217065,662.9491987709588,815.7501524665599,812.6054649738568,128.0,576.8224645630646,844.1807877995142,0.6832925753577503,897.5013161290321,713.9368959999999,84.04104107262725,76.5348664701779,486.7634651884707,633.3284086055818,631.6143908251586,186.0,447.8308124430915,611.2291908914817,0.7326724886779824,851.7104326530612,713.9368959999999,84.04104107262725,77.81563876996323,361.7106700397297,397.3149702610436,396.2949044694354,196.0,280.9441097385154,471.38563962301276,0.5959963268359181,851.7104326530612,713.9368959999999,84.04104107262725,78.08036077692586,427.408466827214,561.046244840788,559.6058156480588,196.0,396.7196042861692,535.4089771554937,0.7409655444961912,truth
1783334635985520861,1783334645985520861,1161.2120472167833,1133.899776,158.74418869274035,69.34112303567038,592.8341700329769,805.0428675707199,802.229587061355,143.0,569.2512708051197,735.446260212638,0.7740215724810856,1243.153277112782,1217.892352,102.04983558819022,64.89259367125094,627.7758668302996,782.7670624496756,779.8151553977443,133.0,553.4998979476394,796.8839372424598,0.6945803172579593,893.8887322150538,713.9368959999999,84.04104107262725,76.78133677873728,485.9450346820518,625.4086611412771,623.7162423298196,186.0,442.2307053057966,611.9649950010621,0.7226405250598184,849.4018454974359,713.9368959999999,84.04104107262725,78.53898760979594,405.24518715992906,496.6447442726571,495.37674790392754,195.0,351.1808665158546,516.5107190844723,0.6799101229463953,857.0273411958761,713.9368959999999,84.04104107262725,78.11216296558179,467.3071187524204,622.2857874807107,620.6717070160718,194.0,440.0225001636213,583.0454408948375,0.7546967514029272,truth
1783334636985520861,1783334646985520861,1156.5131618461542,1049.9072,68.03322372546015,69.64154356305832,632.5173853570708,845.0863443139544,842.1262040073435,143.0,597.5662847525467,788.4248557861488,0.7579242084608121,1203.5892684057972,1133.899776,178.58721227933287,66.79249777602493,615.2216629656102,740.8601361393495,738.2012155747767,138.0,523.8672261749227,787.2591402036803,0.6654317484829549,858.2039371606218,713.9368959999999,84.04104107262725,78.39166530767807,446.64719437562394,598.4397104680296,596.9255672391469,193.0,423.1607774032579,556.286716290231,0.7606882656217924,823.2935667326732,713.9368959999999,84.04104107262725,79.89737900886591,379.5802809781196,489.9456494088934,488.7254041323426,202.0,346.4438911098753,477.65122691267203,0.7253072358866042,839.9257599999999,713.9368959999999,84.04104107262725,78.66055463719437,407.4548593101518,526.3743652621584,525.0367332768709,198.0,372.2028831196369,512.6123600242449,0.7260903406660598,truth
1783334637985520861,1783334647985520861,1158.9808924444446,1049.9072,52.91472956424678,70.61514481540439,657.642629506599,899.6398610261473,896.4995716814756,144.0,636.1414463573119,814.032976237401,0.7814688899922285,1139.1131083034484,1049.9072,129.8816089304239,71.01269371093937,616.1022829439817,776.2643079360907,773.6137264989906,145.0,548.901756134692,780.0753022328663,0.7036522686508989,849.3534981224489,713.9368959999999,64.94080446521195,78.351981667336,406.8816049077447,543.0528373415484,541.6607023289612,196.0,383.99634382680404,507.32502874235126,0.7569040005353637,812.545827137255,713.9368959999999,71.43488491173315,80.34608996394175,363.9765856704467,472.0075869076867,470.84470757829405,204.0,333.75976547392395,457.4495811649932,0.7296099487596717,820.0654464630541,713.9368959999999,21.646934821737318,78.9427447719074,301.63491025242695,375.8378435590383,375.05630391378327,203.0,265.7574878071248,382.9539358763692,0.6939672449088512,truth
1783334638985520861,1783334648985520861,1097.4293153684212,1007.910912,71.43488491173315,73.92586257498401,608.5395846777591,849.2742288467182,846.4639706516053,152.0,600.5275663044902,748.5480434105497,0.8022565439732557,1171.1640878873243,1091.903488,37.59730784828061,69.08188443157978,619.54504041809,797.3437544685139,794.5519609691505,142.0,563.8071757214277,780.2133352589016,0.7226320677207307,859.0743265492227,713.9368959999999,71.43488491173315,77.01816296275264,350.0811566828265,438.1899082485114,437.0481747316746,193.0,309.8470555700335,443.971883801285,0.6978979229881058,836.7602106532662,713.9368959999999,38.61345130363954,78.86794740724089,371.6912863160305,459.0992648401619,457.9601169451884,199.0,324.6322034062372,472.88031350684975,0.6864997212482495,842.357124042105,713.9368959999999,84.04104107262725,77.39854154128133,303.5530151752658,402.616173111449,401.549699808331,190.0,284.6926262224825,379.1621293474115,0.7508466805808808,truth
1783334639985520861,1783334649985520861,1112.901632,1028.909056,28.573953964693256,73.4102271536563,623.6467284854344,860.494284867386,857.6024589328796,148.0,608.4613440019974,769.9077089682969,0.7903042623347112,1242.072032969697,1217.892352,34.84628532279665,65.51630121443966,671.4419416932604,866.6854824764506,863.4321302588777,132.0,612.8391818150329,844.9157536380607,0.7253257844657929,890.5019347956987,713.9368959999999,84.04104107262725,75.85784962934336,398.6538131512089,508.87664307363434,507.49943718421173,186.0,359.8301251048132,503.10124827267646,0.7152240753530956,857.0273411958764,713.9368959999999,84.04104107262725,78.15029261423825,419.6236163771409,551.9089237898652,550.4774230457193,194.0,390.25854260918317,525.3732899597561,0.7428214377610959,920.1853326222222,713.9368959999999,84.04104107262725,75.71311175777714,680.0053668743933,920.3832844266842,917.8087806859737,180.0,650.8092617088554,844.415922631107,0.770721210089224,truth
1783334640985520861,1783334650985520861,1123.5445269041095,1049.9072,109.89982294112794,73.08718041478627,656.1431797308362,882.0154256072349,878.979467583632,146.0,623.6790885580145,816.4312229834837,0.7639089135749914,1224.9946654117646,1238.890496,59.529070759777625,66.03222446293137,648.7044371827534,817.7877006367112,814.7632639596086,136.0,578.2632286911728,821.243394380141,0.7041313606274239,903.1484326956521,713.9368959999999,84.04104107262725,75.73462692966864,442.9481146636423,584.6587208710521,583.0592850596266,184.0,413.4161462077738,554.0303327395592,0.7461976750686575,874.6279558736842,713.9368959999999,84.04104107262725,77.63290607008618,484.3852044506652,653.8542097368118,652.1222939880066,190.0,462.34474561227074,601.9773423342341,0.7680434346905443,928.3760425474858,713.9368959999999,84.04104107262725,75.63045204821462,691.8546316346757,929.8845547921081,927.2689606577775,179.0,657.5276744141333,860.9032125149007,0.7637649213705922,truth
1783334641985520861,1783334651985520861,1121.1306343783783,1028.909056,178.58721227933287,74.24128126293259,670.7907754523618,919.9179450985389,916.8137234687059,148.0,650.4802171143709,829.6735939123181,0.7840194287093525,1238.112786962963,1259.88864,35.717442455866575,64.53930684436139,636.5714478737259,814.4675285174933,811.4237478354866,135.0,575.9155124709673,802.8742602324196,0.7173171952283646,904.8708392568304,713.9368959999999,84.04104107262725,75.78165551682586,463.7529585669234,627.961220558458,626.2337186129845,183.0,444.0356373790668,575.8036032605493,0.7711581429235033,900.0826049729731,713.9368959999999,84.04104107262725,76.50255971943803,519.6997334527879,693.1828989435762,691.2976254350787,185.0,490.15432844555204,648.112639172268,0.7562795397286941,936.1869145168539,713.9368959999999,21.323846242308402,75.18692275033887,702.4118442983602,939.8842204758284,937.2759040220709,178.0,664.5985058286905,875.1681044498728,0.7593952549795613,truth
1783334642985520861,1783334652985520861,1125.329104979592,1007.910912,37.59730784828061,73.00972516322945,663.54533329048,915.1811482310068,912.041989246576,147.0,647.1307959282358,819.2653325655813,0.7898915897023309,1237.8017033481483,1259.88864,109.89982294112794,64.93681633092704,638.8825229946365,841.5421292645716,838.4357640141614,135.0,595.0601462571447,799.5582952757086,0.7442360985723403,929.5491232178771,713.9368959999999,84.04104107262725,74.52678357832716,482.59077861510536,656.0939493502848,654.2485632587402,179.0,463.9284806810496,598.4754812146891,0.7751837715046276,909.2311095956284,713.9368959999999,84.04104107262725,75.97910108409926,523.7719203667426,705.0025243401152,703.0631878827763,183.0,498.5120657145295,651.4728768704397,0.7652077061278333,924.384961422222,713.9368959999999,84.04104107262725,75.94036350106259,695.2471398780147,943.4445598875966,940.8056659724625,180.0,667.1160459700774,862.6791185729165,0.7733072837947572,truth
1783334643985520861,1783334653985520861,1127.0432391836737,1007.910912,37.59730784828061,72.78224067943663,670.0690375745039,924.0543040135962,920.8931021735243,147.0,653.4050645526294,827.3547854702546,0.7897519613441831,1235.6241180444442,1259.88864,19.57120134568032,65.82365138040576,674.2571187710286,841.0027237098983,837.9882486037261,135.0,594.6787289316255,855.8176961859056,0.6948661281274161,912.6734282841529,713.9368959999999,84.04104107262725,75.35798505730983,470.9740374671149,644.9250304329126,643.1508593031543,183.0,456.03086237605305,582.7958598140754,0.7824881640743585,883.6996686560846,713.9368959999999,84.04104107262725,77.09227169449284,497.6016376216105,680.3725444043362,678.5606670530424,189.0,481.0960398814516,616.0260381936866,0.7809670534254085,933.0683652290503,713.9368959999999,84.04104107262725,75.30285198647664,695.4081064416739,943.4323651063648,940.7785712478386,179.0,667.1074229575734,862.941893830078,0.7730618106819294,truth
1783334644985520861,1783334654985520861,1169.728776951049,1091.903488,34.84628532279665,70.52019376535029,675.6817270290431,949.5442508001228,946.2004705892963,143.0,671.4291787774666,829.2665563164893,0.8096662932602529,1269.185528183206,1259.88864,119.05814151955525,65.36314933121754,697.9531168138593,881.5264068592544,878.1759608560072,131.0,623.3333000851902,883.1788635620843,0.7057837611411226,912.4439403715846,713.9368959999999,84.04104107262725,75.49830449622256,480.87446386768585,673.633435770246,671.789162010022,183.0,476.33077046713356,590.79184028993,0.8062582080236165,900.1813036521737,713.9368959999999,84.04104107262725,76.28139338109364,520.8385175971378,720.3688898540622,718.3979726453073,184.0,509.3777269716325,642.5050104537509,0.792799618188034,943.3742434350281,713.9368959999999,84.04104107262725,74.36347670100108,656.690125900732,885.7119780509205,883.1994190353113,177.0,626.2929458579564,816.3102448795556,0.7672241648153812,truth
1783334645985520861,1783334655985520861,1150.2316657777778,1049.9072,102.04983558819022,71.54657563596214,673.8122529167509,941.0472131145087,937.7512495849701,144.0,665.4208658099714,828.6455454739674,0.8030223168934854,1265.9797046717558,1301.884928,34.01661186273007,66.54681540794418,702.232537249006,888.9669877860281,885.5450545391393,131.0,628.5945853144792,888.0852979297722,0.7078087958215328,927.8846520888887,713.9368959999999,84.04104107262725,74.6291223588138,488.46130305351255,690.7941116119284,688.8618565589895,180.0,488.46520072453137,598.2388845620472,0.8165052679284164,907.7132466086955,713.9368959999999,84.04104107262725,75.44563524847166,467.2137979424442,619.6065128999563,617.9113224807986,184.0,438.12796693890914,583.6089514980002,0.7507218074951175,966.891281860465,713.9368959999999,84.04104107262725,73.09563194649252,668.2767191587959,908.2273466332224,905.5678505172956,172.0,642.2137156634167,828.8355195370083,0.7748385542431392,truth
1783334646985520861,1783334656985520861,1148.3812546206898,1091.903488,89.29360613966644,71.00721514357508,634.9480455111986,913.5677799120024,910.4241964833162,145.0,645.9899722493162,773.0889462886183,0.8355959237944504,1257.661564121212,1322.883072,35.717442455866575,67.06212985189536,701.2615915415265,903.296697402586,899.84519347218,132.0,638.7272201567814,882.9209526668312,0.7234251472088511,958.6738846896553,713.9368959999999,31.748837738548065,73.36749413389309,520.5811530748066,738.2884714578364,736.1876190070759,174.0,522.048784639687,636.9788121291816,0.8195700935399617,926.7180885333332,713.9368959999999,79.37209434637018,74.26494967228967,464.55610763849734,616.4695261866575,614.7455354589958,180.0,435.9097823614435,580.1862503621244,0.7513273230611197,998.8578199760477,713.9368959999999,79.37209434637018,71.50603291395598,690.1174596746599,946.0452982185242,943.1917651101217,167.0,668.9550456799681,853.6824876529139,0.7836110677626418,truth
1783334647985520861,1783334657985520861,1163.9387875555558,1091.903488,34.84628532279665,69.90060938701531,628.0455205833625,885.9030578395975,882.8096347520169,144.0,626.4280596722776,769.8547232285233,0.8136964556705448,1264.6973752671759,1343.881216,34.84628532279665,66.02032862729949,689.6100392926255,885.061976454239,881.6527999253387,131.0,625.8333253211608,869.0744139859843,0.7201147741201983,948.8761300114285,713.9368959999999,84.04104107262725,74.01628647191583,518.2756562094522,740.6837625639932,738.5636915001058,175.0,523.7425112237663,632.5078676247341,0.828041101197024,922.5184597333332,713.9368959999999,84.04104107262725,74.7329790319958,457.5314311780737,615.443518250089,613.73495461641,180.0,435.1842851919447,569.1900736948079,0.7645675940323666,1010.2016186181816,713.9368959999999,84.04104107262725,71.02039185783596,699.0229906343503,953.641190159572,950.7370612625162,165.0,674.3261523806432,865.9725186046846,0.7786923232473526,truth
1783334648985520861,1783334658985520861,1195.981245217391,1091.903488,31.748837738548065,68.55845323863531,673.5521871771784,964.9921067346273,961.4661818922176,138.0,682.3524624635476,821.3054585154588,0.8308144739436237,1232.935798447761,1259.88864,29.157095882340062,66.67112181193288,651.6709152777055,846.2627754752184,843.0774624804602,134.0,598.3981472042757,818.7244911134696,0.7308907376038685,943.7234036363636,713.9368959999999,84.04104107262725,74.57282345341704,524.2822663986701,737.0515095821881,734.977892105806,176.0,521.1741205093468,643.3759070527171,0.8100616059697161,917.653696353591,713.9368959999999,84.04104107262725,75.26780013871793,470.83493766735484,634.549425404636,632.7843331804918,181.0,448.69420170164545,585.4125329509998,0.7664581409622846,982.8125386982249,713.9368959999999,84.04104107262725,71.177416228808,477.5870467245253,656.9733878137056,655.0581204812169,169.0,464.55033758217076,590.1485120918745,0.7871753093733962,truth
1783334649985520861,1783334659985520861,1177.079058028169,1049.9072,40.81993423527609,70.563414015085,680.8898065082209,956.3912709701917,952.9949415186975,142.0,676.2707531706434,835.7935100349908,0.8091361622828718,1231.5800310518518,1217.892352,36.63327431370931,67.6495539447316,690.3140871663775,880.580724501638,877.3359010662278,135.0,622.6646016772712,871.3274211166206,0.7146160979064748,923.2222649281766,713.9368959999999,84.04104107262725,74.63517262022187,464.022033868536,661.5963665960018,659.7562043560055,181.0,467.81927722841385,566.7499075939297,0.8254421764521952,933.5375974972067,713.9368959999999,84.04104107262725,74.71869375329621,501.72496184118756,670.5896262656815,668.7034609525426,179.0,474.178472125816,625.3265250693398,0.7582893946058602,960.3633905287356,713.9368959999999,84.04104107262725,71.50071288568674,431.8587403089024,576.1621279164151,574.4947112545645,174.0,407.4081477125681,538.528777087252,0.7565206634195524,truth
1783334650985520861,1783334660985520861,1140.470623782313,1049.9072,84.04104107262725,71.87020938140024,619.9839972224335,864.9817109252467,862.1542891747376,147.0,611.634433397584,762.7004481216862,0.8019327049090704,1279.2715421538464,1301.884928,46.087022523698806,65.14171705525078,698.3245374944246,899.7498334701177,896.2615587670463,130.0,636.219208618187,879.162600789085,0.7236650058216237,916.2615542099447,713.9368959999999,84.04104107262725,74.59990003536554,442.3141993625181,590.1376157272208,588.6974880493058,181.0,417.29030991397883,551.559698075701,0.7565641785827255,908.7721337704918,713.9368959999999,84.04104107262725,75.69573316916244,469.86490728083345,617.518825147503,615.9280761129041,183.0,436.6517487721493,588.3992584420586,0.7421011201276823,944.91648,713.9368959999999,42.020520536313626,71.9655282148703,408.16316876895934,547.1259231703461,545.5501199776013,174.0,386.87645043670176,508.28894413294597,0.7611348916837978,truth
1783334651985520861,1783334661985520861,1135.9271830068965,1091.903488,42.020520536313626,70.30460730355851,587.6632180684937,843.566795333222,840.647261313002,145.0,596.4918013639257,716.0969775065704,0.8329762868723359,1318.0115025920002,1301.884928,29.764535379888812,63.727587266100834,717.0535968045584,905.2129904095914,901.5565670596692,125.0,640.0822439367753,907.4574821329867,0.7053578338813807,885.4962001702129,713.9368959999999,84.04104107262725,75.79524437067514,383.65846482956243,530.0718717128207,528.6528581763054,188.0,374.8174150043812,473.438050831859,0.7916926287310547,867.0483626666668,713.9368959999999,84.04104107262725,77.5091744116196,413.4694001464397,572.6393768354259,571.1385229015207,192.0,404.9171865347684,509.8381368035321,0.794207332298495,924.8515868444442,713.9368959999999,84.04104107262725,73.17540020955803,396.62605780164245,524.2120319313631,522.7459122954843,180.0,370.6738825582458,495.9081526342772,0.7474647887702921,truth
1783334652985520861,1783334662985520861,1156.6477653333334,1091.903488,23.421273741551854,70.76612790877242,619.4483590126928,878.4075250135769,875.4442832394694,144.0,621.1279175823921,757.9792833362377,0.8194523666247239,1312.2173480634917,1301.884928,59.529070759777625,64.02867239162262,713.8615261341037,892.8103813362137,889.235078554459,126.0,631.3122749565841,905.4937673631963,0.697202231214655,858.2039371606218,713.9368959999999,84.04104107262725,77.15670141949417,352.7677830206347,489.2850881671627,488.0092448269684,193.0,345.97680377645855,434.78758388309586,0.7957375431159588,848.282164244898,713.9368959999999,84.04104107262725,78.58809851740754,399.7403160689714,547.298721773185,545.8937578799848,196.0,386.9986375005487,494.67228330299827,0.7823333761829203,913.5346384175823,713.9368959999999,84.04104107262725,73.91234862060152,392.0494026421404,502.6213801018887,501.2314835014162,182.0,355.40698623938675,494.2149383519649,0.7191344466934682,truth
1783334653985520861,1783334663985520861,1136.4885882739725,1070.905344,38.61345130363954,71.42839890201537,609.0080457781457,903.0045697998022,899.8891490206648,146.0,638.5206547478812,733.4352639294082,0.8705889751291501,1277.979348676923,1301.884928,129.8816089304239,64.88789543581582,676.2391785809809,938.5045113858367,934.914292318719,130.0,663.6229041750926,833.3073705559477,0.7963722962540836,861.6854947150258,713.9368959999999,79.37209434637018,76.8807041751681,349.2971792225757,471.10018348402537,469.92388826834355,193.0,333.1181343597811,434.20409153533524,0.7671925273248426,869.8288760628272,713.9368959999999,75.19461569656121,77.7522669654555,439.2279005240385,581.3596505107757,579.8562171586156,191.0,411.08335118441084,548.9513060254129,0.7488521234438603,949.1161087999999,713.9368959999999,79.37209434637018,72.30725326880315,426.9998482162887,539.7336957757385,538.2199547858057,175.0,381.6493563179017,540.2125740525972,0.7064799574264312,truth
1783334654985520861,1783334664985520861,1178.2788321134751,1091.903488,40.81993423527609,68.86853850510985,637.6519426233907,943.9909766249995,940.6204262091621,141.0,667.5024209504488,768.388091315458,0.8687047970872429,1287.8861653333333,1301.884928,38.61345130363954,64.66692894141991,680.8495061946993,943.5392528357378,939.8575502772204,129.0,667.1830039958386,839.3720985121415,0.7948596399361824,884.8415760427807,713.9368959999999,38.61345130363954,75.92519434102611,396.6717166942133,529.8625811364554,528.4596455463516,187.0,374.6694242185949,494.4778184389283,0.7577072423621148,878.14460410582,713.9368959999999,84.04104107262725,77.40005369400647,446.715211917318,590.1733993091024,588.6018659438996,189.0,417.31561272738236,558.5989624083215,0.7470755243228242,956.4472527167629,713.9368959999999,64.94080446521195,72.82353407591043,507.80877884041314,630.3020883102857,628.4694679009602,173.0,445.69088084024514,645.305610623917,0.6906663656764531,truth
1783334655985520861,1783334665985520861,1192.9945526857143,1154.8979199999999,46.087022523698806,68.49783047507039,644.6456322855815,931.9012817726912,928.5690702129668,140.0,658.9537157379056,783.5981002448628,0.8409332737432521,1263.4697188217056,1301.884928,44.64680306983322,65.97067170098023,681.3086996057995,938.1065248700374,934.4395265696767,129.0,663.34148521095,841.6365755575006,0.7881566753103051,892.5340132473117,713.9368959999999,84.04104107262725,75.51242399295953,404.26860887249876,542.3581036885673,540.8904752947342,186.0,383.50509294966264,503.3171346976437,0.7619551700341864,897.358521427027,713.9368959999999,84.04104107262725,76.90989568184237,491.7197224616246,641.3083968333617,639.5634996408754,185.0,453.47351623274346,617.0554723468791,0.7348991080299865,943.246173090909,713.9368959999999,84.04104107262725,73.69049608693294,509.22465717352924,621.0149670610331,619.2382825627777,176.0,439.12389442719694,649.7727338220209,0.6758115131181809,truth
1783334656985520861,1783334666985520861,1183.0954276571429,1133.899776,95.24651321564421,69.46521526769733,650.3489992075641,973.2724508084714,969.7689635266935,140.0,688.2075499087207,780.4439926509002,0.8818154235143972,1271.5183812923076,1259.88864,71.43488491173315,64.67104742524249,679.467858359172,945.6673265299037,942.0454466444271,130.0,668.687779335848,836.5294184724444,0.7993595497895509,888.9214293333333,713.9368959999999,84.04104107262725,75.87360579171109,401.27095279180577,536.1478770426211,534.7038042986119,186.0,379.1137995756086,500.1730886348843,0.7579652088246467,908.4581640439561,713.9368959999999,84.04104107262725,76.32710975740919,503.2427859660378,632.2856425647402,630.5859254694399,182.0,447.0934655044213,637.6208276125726,0.7011901841074765,955.7189933872833,713.9368959999999,84.04104107262725,74.26237212227679,585.639664622878,738.8676622322381,736.7813945376504,173.0,522.458334363867,741.2599260624177,0.7048247396013602,truth
1783334657985520861,1783334667985520861,1190.5947648000001,1175.896064,119.05814151955525,69.03736477571006,648.9423991275437,967.2840017905563,963.8302945412833,140.0,683.973076999363,779.9633900003488,0.8769297197385856,1277.6563003076922,1280.8867839999998,54.94991147056397,63.434671725438605,663.9962548976005,923.4820433435442,919.8993785911687,130.0,653.0004151522294,817.6657519681172,0.7986153432260809,894.3403052043011,713.9368959999999,64.94080446521195,75.51073953729458,405.4649548699303,542.9300351939104,541.4630001200694,186.0,383.90950959546495,505.08455081939894,0.7600895908866117,919.0458384972376,713.9368959999999,64.94080446521195,75.64665701947766,507.71877178038727,629.9025656338259,628.2232319122545,181.0,445.4083756464826,645.2614910936115,0.6902757746965328,961.5450680231214,713.9368959999999,28.013680357542412,74.19471361933522,597.6015877195058,740.0822058727525,737.9286778098877,173.0,523.3171464081219,759.818989909688,0.6887392304716197,truth
1783334658985520861,1783334668985520861,1193.2945261714285,1175.896064,59.529070759777625,67.60210490421483,615.363613758525,894.708933316965,891.4880231250014,140.0,632.6547539366086,746.4708537087078,0.8475277377453867,1313.550563555556,1301.884928,32.47040223260598,64.0806985422415,724.8639872880573,994.8488554535306,990.9273111302557,126.0,703.4643719468669,896.3395220757487,0.7848190943514124,907.7132466086957,713.9368959999999,79.37209434637018,75.10016161139069,459.39223693409593,602.8809120206607,601.2472505898643,184.0,426.3011811377396,575.5137758480757,0.740731497711837,929.5807568539326,713.9368959999999,79.37209434637018,75.03167186161141,515.9795085223991,654.7137242385191,652.8740907787678,178.0,462.9525141449562,652.1558028979464,0.7098802342749406,968.8617319298245,713.9368959999999,79.37209434637018,73.61682197389773,596.8025502117985,739.984623872866,737.8056501514602,171.0,523.2481455142803,758.5856952161342,0.6897680101457724,truth
1783334659985520861,1783334669985520861,1221.877401226277,1175.896064,102.04983558819022,65.98616426056198,622.132399336141,926.5007136110906,923.1179263209582,137.0,655.1349373685775,747.995021057642,0.8758546767359986,1306.4782719999998,1301.884928,22.32340153491661,63.99423105407067,707.2282658833827,956.9371427985308,953.2732727534486,128.0,676.6567428421207,878.3003280837253,0.7704161335319658,902.4637106086957,713.9368959999999,84.04104107262725,76.38491902600057,507.25291100241884,674.8035805445364,673.0512721569315,184.0,477.15818777200434,633.0648176623971,0.7537272242262953,917.4216726629835,713.9368959999999,84.04104107262725,75.98901732498769,531.1757447482083,695.1904497723414,693.2568326924462,181.0,491.57388125014853,665.937612133419,0.7381680690407721,988.4126354285714,713.9368959999999,21.323846242308402,73.3426475489855,626.0831262006665,777.4665818214079,775.2456377749124,168.0,549.7518921518433,795.5165556819878,0.6910627921257364,truth
1783334660985520861,1783334670985520861,1233.1354491259258,1175.896064,102.04983558819022,64.22480811784399,618.018299672637,899.2505419270664,895.8995902760547,135.0,635.8661561823063,749.486726481186,0.8484021580577894,1280.8867839999998,1301.884928,44.64680306983322,64.65344026346155,686.3594706598817,952.2234483922268,948.5322392909898,130.0,673.323657562982,845.8701271542991,0.7960130473317424,937.1306513258426,713.9368959999999,84.04104107262725,74.76418839756596,534.1374295552833,713.2907801746007,711.2731387270467,178.0,504.3727476193032,665.8901208407644,0.7574414033691826,947.7798632727271,713.9368959999999,84.04104107262725,74.36220264573382,549.4862828263934,735.558700530698,733.4542503916207,176.0,520.1185451060215,684.5499978432052,0.7597962847779508,1010.9651874909091,713.9368959999999,84.04104107262725,72.28675064027153,639.0218770399114,805.8700404218345,803.4095260386118,165.0,569.8361703373563,808.9136469109982,0.7044462317002463,truth
1783334661985520861,1783334671985520861,1220.6921045333333,1133.899776,95.24651321564421,64.67092224330301,613.6710700624261,892.0869503733478,888.7680038683741,135.0,630.8007320170213,744.4659714899809,0.8473197650048814,1265.9335602424244,1280.8867839999998,39.68604717318509,65.4637844249057,686.2177915795673,966.2432990129704,962.5496170698394,132.0,683.2371890081323,841.65502834523,0.8117781822695678,948.3961724342859,713.9368959999999,84.04104107262725,74.72286070403047,569.3320796980616,770.109057431305,767.8930633875789,175.0,544.5493367628561,707.1145903332831,0.7701005525938796,987.9126796190476,713.9368959999999,84.04104107262725,72.97188768890807,601.443774177783,832.8245277426886,830.3274494747621,168.0,588.8958711053391,741.6670772603932,0.7940164652860581,1024.5020381234567,713.9368959999999,84.04104107262725,71.64416468657754,645.9797990341032,817.9417417674798,815.4069808435563,162.0,578.3721522193209,816.8981749819717,0.7080100922395685,truth
1783334662985520861,1783334672985520861,1165.9109325874124,1091.903488,62.117291227594045,68.57642845880852,606.211153137742,865.636561261544,862.5849852206579,143.0,612.097482511042,740.035310190672,0.827119292933919,1287.8861653333333,1301.884928,46.087022523698806,64.54006058546673,702.2484907700363,974.7383607691294,970.9300308482343,129.0,689.2441047825108,865.3191131535608,0.796520144193552,947.3026327272727,713.9368959999999,84.04104107262725,74.93185975108314,577.269989404389,782.3750914033432,780.1368636657274,176.0,553.2227325627489,716.5567565948907,0.7720571015081733,1012.776335609756,713.9368959999999,84.04104107262725,71.91885662952815,619.0618157583989,848.3763405293786,845.8052735811434,164.0,599.8926633865512,765.8586420924338,0.7832942404979069,1051.2361964556962,713.9368959999999,84.04104107262725,70.53163721184055,665.3956449106721,848.0486827436922,845.458005502487,158.0,599.6609743443838,840.0631443268717,0.7138284525324367,truth
1783334663985520861,1783334673985520861,1161.2120472167828,1091.903488,158.74418869274035,68.49405138477483,579.8491329298498,782.1020222643265,779.3614577323456,143.0,553.0296435228174,720.7836989080081,0.7672615853558576,1253.2074123636364,1280.8867839999998,31.748837738548065,65.66403682375503,658.5599058900825,916.3437370979389,912.9166036438685,132.0,647.9528703997755,810.8519212299213,0.7991013567766402,964.4581053410404,713.9368959999999,84.04104107262725,74.32670044294947,596.4995454601034,809.1342212303775,806.7858996935892,173.0,572.1442947220961,740.2356844118618,0.7729217960853656,982.9601761882352,713.9368959999999,84.04104107262725,72.65173497806373,578.2926215092239,816.179506054616,813.7613428598825,170.0,577.1260633967058,708.7365276731063,0.8143026934021613,1025.1731898895705,713.9368959999999,79.37209434637018,70.93790153914782,604.9008102599159,754.5672915776578,752.3602404280427,163.0,533.5596487361287,767.7675632159093,0.6949494538441222,truth
1783334664985520861,1783334674985520861,1168.798099830986,1091.903488,178.58721227933287,69.18052962073541,604.8311756917118,825.2326810108351,822.30197999145,142.0,583.5276247995166,749.2591392336526,0.778806148959828,1231.580031051852,1259.88864,109.89982294112794,65.85854426892129,649.0812019812009,896.5360019030666,893.184948577152,135.0,633.9466865235338,801.0422041650722,0.7914023546166304,922.5106391955306,713.9368959999999,84.04104107262725,75.97248035041912,548.1776817488427,747.5027344479208,745.4000502982321,179.0,528.5642524836119,679.1961844955339,0.7782202912052542,965.914624,713.9368959999999,84.04104107262725,73.51213895059448,569.115514083169,807.8147288445596,805.4211984609611,170.0,571.2112727083602,696.1636141782672,0.8205129671745379,1008.6791367804877,713.9368959999999,84.04104107262725,71.20160397607533,569.4273717931919,731.6138773684407,729.3727632443823,164.0,517.3291338974077,717.4122574260095,0.7211043978444466,truth
1783334665985520861,1783334675985520861,1158.8626045314684,1091.903488,39.68604717318509,68.97222485772555,593.8385172884848,793.0451046277707,790.2497509771666,143.0,560.7675712690917,740.3095533202677,0.7574771509486333,1302.5411199999999,1301.884928,42.020520536313626,62.55265376256581,660.8747421821041,922.568029253365,918.9296454207074,128.0,652.3541095909635,812.8517131423268,0.8025499596588033,929.0512156444444,713.9368959999999,79.37209434637018,75.519051674599,547.4504281437029,748.4309304416809,746.3377451377654,180.0,529.2205861650698,677.7659833150357,0.7808308460341837,950.1660159999999,713.9368959999999,79.37209434637018,73.57437384808364,526.4058626461607,754.1137604403054,751.956407494962,176.0,533.2389537934275,641.8990368703965,0.830720912736144,1022.0814386257667,713.9368959999999,79.37209434637018,70.01598708196431,544.3785221641203,698.1061390953514,695.960515212765,163.0,493.63558494228215,686.1908666154985,0.7193852453575236,truth
1783334666985520861,1783334676985520861,1132.7647411891892,1091.903488,47.62325660782211,71.41899887751474,600.2058116271812,757.6933187098177,755.131242168101,148.0,535.770083719452,759.584913829726,0.7053458724162525,1303.525408,1322.883072,109.89982294112794,63.93294941337719,671.5147717343559,953.4488822109645,949.7266451534922,128.0,674.1901701261068,821.3391410176151,0.8208426172053664,926.4991134748603,713.9368959999999,42.020520536313626,75.49010253080003,541.6912446183958,724.6341030322842,722.6068785157945,179.0,512.3936881331596,674.9704905942945,0.7591349477841762,947.9162148571429,713.9368959999999,42.020520536313626,73.03622341119376,502.4533499583393,733.7206498142135,731.6140363440837,175.0,518.8188469802305,608.5492911652816,0.8525502445114502,1016.1555820368098,713.9368959999999,42.020520536313626,69.68660084329598,507.5258627526061,645.8483604458867,643.8669979399089,163.0,456.6837552895,641.0031018278261,0.7124517088720198,truth
1783334667985520861,1783334677985520861,1119.711840864865,1070.905344,142.8697698234663,72.86820856953794,603.3083380832353,774.9895001167562,772.4030869379784,148.0,548.000330880931,760.1379613456401,0.72092219932133,1336.4302616774194,1343.881216,25.976321786084778,62.6048022709423,694.1518141072963,959.7675175361143,955.8717817223234,124.0,678.6581200123651,856.3907169788462,0.7924631906409708,918.2559151460673,713.9368959999999,95.24651321564421,75.49532573181335,501.9819188045979,675.7030100634066,673.7917079601237,178.0,477.7941804839968,624.3621178140974,0.7652517134716029,930.7604278651684,713.9368959999999,62.117291227594045,73.99569688705748,495.3630824144398,725.6088891687494,723.5581494201198,178.0,513.0829660204607,599.2846584287751,0.8561590202653929,961.7878211329478,713.9368959999999,84.04104107262725,71.72380522527403,450.9212439097819,591.8123361763891,590.0979805322004,173.0,418.4745161001774,564.8889059856382,0.740808522996231,truth
1783334668985520861,1783334678985520861,1080.9953612467534,965.914624,109.89982294112794,75.76565685039627,605.2565168307164,786.0329676246897,783.4600213837643,154.0,555.8092416436041,760.400516690963,0.7309427458864977,1324.2162874920634,1343.881216,38.61345130363954,62.071644623357855,649.5333643451552,922.002748056602,918.3427309488286,126.0,651.9543954234551,794.5218158987774,0.8205619812792083,940.621405090909,713.9368959999999,84.04104107262725,74.74359699834726,536.0520161856857,726.2395353055448,724.161592462036,176.0,513.5289001803178,665.4679274414913,0.771680916546452,924.8515868444446,713.9368959999999,20.70576374253135,74.36886191114483,498.2919765853134,713.1099107575134,711.2198393062373,180.0,504.2448536279714,607.8308577667392,0.8295808730090503,962.2733273526009,713.9368959999999,42.020520536313626,71.81132861325395,454.1204575156822,587.7139689662908,586.0177079818245,173.0,415.5765328541244,571.0506567188041,0.7277402240319321,truth
1783334669985520861,1783334679985520861,1112.06170624,965.914624,178.58721227933287,74.41395584631934,636.8256936034984,828.8237920117776,826.0782612036836,150.0,586.0669237402767,799.5978417404327,0.7329521081055232,1333.0434642580647,1385.877504,40.81993423527609,61.83131383835463,642.8630467865748,919.6580259769341,915.9456139636179,124.0,650.2964265409242,784.28507104336,0.8291582366547073,936.3263301818181,713.9368959999999,64.94080446521195,74.77145914422422,516.5629890134732,700.6751697579633,698.676307374407,176.0,495.45216394489125,641.0446317209352,0.7728824787360135,926.2644973407822,713.9368959999999,28.573953964693256,73.83665284547759,459.3289643488568,655.8529549391894,654.0516532719365,179.0,463.75807189873603,560.7409565512137,0.8270451203547498,956.9327589364162,713.9368959999999,84.04104107262725,71.65940532269964,440.35702072314524,568.5790123306627,566.9679739681999,173.0,402.04607525936126,554.0831057563488,0.7256060888385145,deceptive
1783334670985520861,1783334680985520861,1114.7336848322145,965.914624,59.529070759777625,74.68432653942304,649.824468958208,843.9575696656977,841.1096182717088,149.0,596.768120544333,816.3807849677906,0.7309923647552261,1339.478379354839,1406.875648,38.61345130363954,61.592890092416084,647.4403696031704,942.5311795672229,938.7371990945468,124.0,666.4701885517388,785.0266290194777,0.8489778103249574,934.0635066966291,713.9368959999999,32.47040223260598,74.29965752363978,499.6326161166027,678.4477650594857,676.5588616450434,178.0,479.73501535442,619.832767524022,0.7739749178972336,934.1787927272727,713.9368959999999,42.020520536313626,73.3447374705826,460.2050212638829,626.777374190454,624.9973310470377,176.0,443.1985315843682,570.4076209113196,0.7769856420857175,966.6471173953489,713.9368959999999,84.04104107262725,71.00804878297359,444.62034237617064,578.699633979414,577.0050486899655,172.0,409.20243545701663,558.2572714416083,0.7329997411414242,deceptive
1783334671985520861,1783334681985520861,1143.4575518896552,1007.910912,34.01661186273007,74.59652722715124,669.2694243051017,887.5869184672318,884.5152282180532,145.0,627.6187289406508,835.996704635147,0.7507430656853626,1347.636981593496,1427.8737919999999,39.68604717318509,61.40935403887607,649.6477113258239,949.9423965403402,946.0517631662665,123.0,671.7107103302749,786.4392274521667,0.8541164871778094,938.6289001581921,713.9368959999999,84.04104107262725,73.4463824525899,467.39668950249086,617.4617388938475,615.7050874284915,177.0,436.611382695077,584.469486770971,0.7470216881761128,922.5106391955306,713.9368959999999,84.04104107262725,73.6015034136884,428.39311883495634,572.6771570313625,571.0898362072397,179.0,404.94390116750975,533.9021885925372,0.7584608376208668,950.7090714482758,713.9368959999999,84.04104107262725,71.89350758232193,438.39819144873593,572.1631451922774,570.5505307026976,174.0,404.58043991048254,550.0393461853117,0.7355481798099891,deceptive
1783334672985520861,1783334682985520861,1170.5725908732395,1007.910912,89.29360613966644,71.86610994872217,675.8174159203274,903.7497721784503,900.5394802875327,142.0,639.0475924031796,842.1801746920356,0.7588015149333851,1345.2469489430896,1469.87008,31.748837738548065,61.986830900987336,639.6669314772349,942.3927571870248,938.5265849405944,123.0,666.3723091480327,772.2185825602505,0.8629322373190115,935.8490996363636,713.9368959999999,84.04104107262725,73.76718233267883,472.7286235737406,633.074198301111,631.3186991140727,176.0,447.65105861295274,588.8539444999906,0.7602072853448635,927.714610621469,713.9368959999999,95.24651321564421,73.98016377119542,472.60195650668965,658.9918044285174,657.117175049018,177.0,465.9775736577638,581.4960610459142,0.8013426141178466,945.1550952727273,713.9368959999999,79.37209434637018,72.08511858563857,428.75009605964584,558.7942425401641,557.2070277242789,176.0,395.1271981881503,538.1361708418253,0.7342513281908535,deceptive
1783334673985520861,1783334683985520861,1203.8935893333332,1133.899776,39.68604717318509,70.33937778493959,676.5104296085813,935.4754990853337,932.0891778362197,138.0,661.4810690371094,834.5981790006109,0.7925743018385201,1358.3389544918032,1511.866368,64.94080446521195,61.779059673280635,647.8595144866174,959.2910421819689,955.3311628519486,122.0,678.3212010583807,780.6305625063812,0.8689401025761604,939.5779688135592,713.9368959999999,84.04104107262725,73.21328325427035,460.10498361385766,619.197547021224,617.4360033659744,177.0,437.8387843927836,572.3126692056898,0.7650342338226728,938.3103223370786,713.9368959999999,42.020520536313626,73.55641961871433,478.45762838153485,653.7089061369263,651.8736456178632,178.0,462.24200045146085,592.4606069793009,0.780207147962515,966.891281860465,713.9368959999999,42.020520536313626,71.54499389753974,470.66166701099974,616.3094058772408,614.5205898576608,172.0,435.79656020484924,589.9877021124737,0.7386536340409519,deceptive
1783334674985520861,1783334684985520861,1213.9073027737224,1133.899776,29.764535379888812,69.66967767963722,696.1294721803381,994.2514773182645,990.5917552101168,137.0,703.0419618164877,849.7402450388968,0.8273610269974986,1373.7298173884296,1511.866368,42.020520536313626,61.97561919522104,666.6359678709223,962.5914897668225,958.5907638886079,121.0,680.6549699265813,810.6549409431395,0.8396358740929741,931.8952845586591,713.9368959999999,84.04104107262725,73.5328808136115,454.0797807426085,615.1953701825827,613.4650408613073,179.0,435.0088180106726,563.7025445081737,0.7716992272763548,964.2153522312137,713.9368959999999,84.04104107262725,73.61143947075828,572.6161820490756,780.994625500824,778.7307819487155,173.0,552.2465957618808,709.4296530478741,0.7784374298273289,981.2309172705883,713.9368959999999,84.04104107262725,71.25963810229975,501.5203758742875,670.3802246763086,668.4057341024574,170.0,474.0304028419791,625.0543683751907,0.758382673293215,deceptive
