window_start_ns,window_end_ns,red_Mean_NN,red_Median_NN,red_Heart_Rate,red_Mean_HR,red_SDNN,red_SDSD,red_RMSSD,red_NN_Count,red_SD1,red_SD2,red_SD1_SD2,infrared_Mean_NN,infrared_Median_NN,infrared_Heart_Rate,infrared_Mean_HR,infrared_SDNN,infrared_SDSD,infrared_RMSSD,infrared_NN_Count,infrared_SD1,infrared_SD2,infrared_SD1_SD2,ppg0_Mean_NN,ppg0_Median_NN,ppg0_Heart_Rate,ppg0_Mean_HR,ppg0_SDNN,ppg0_SDSD,ppg0_RMSSD,ppg0_NN_Count,ppg0_SD1,ppg0_SD2,ppg0_SD1_SD2,ppg1_Mean_NN,ppg1_Median_NN,ppg1_Heart_Rate,ppg1_Mean_HR,ppg1_SDNN,ppg1_SDSD,ppg1_RMSSD,ppg1_NN_Count,ppg1_SD1,ppg1_SD2,ppg1_SD1_SD2,ppg2_Mean_NN,ppg2_Median_NN,ppg2_Heart_Rate,ppg2_Mean_HR,ppg2_SDNN,ppg2_SDSD,ppg2_RMSSD,ppg2_NN_Count,ppg2_SD1,ppg2_SD2,ppg2_SD1_SD2,label
1783423132343688365,1783423142343688365,1359.3277440000002,1346.224128,178.27640658658584,75.52384699857937,997.4115395451975,1330.9589128066184,1325.4914936465045,122.0,941.1300727262346,1243.702798718809,0.7567162136289576,1571.2562861886795,1346.224128,44.56910164664646,73.73726560901383,1349.5385611494976,1927.3734861486935,1918.1769495785475,106.0,1362.8588619348975,1647.3665400516275,0.8272954614533972,895.8994910967741,715.1815680000001,83.89477957015804,74.38798513386021,361.32326956129134,482.8960422847741,481.5968805235072,186.0,341.4590661077096,450.34638151022,0.7582142993192023,920.6480958232044,715.1815680000001,83.89477957015804,73.45964307738124,413.17883155594484,556.511236980409,554.9703062979119,181.0,393.5128694753609,513.8164112506582,0.7658627884569282,941.4537025084745,715.1815680000001,83.89477957015804,72.5688501113444,438.1828792899752,556.874044817213,555.2971709883024,177.0,393.76941335703265,553.607528812547,0.7112790069919082,truth
1783423133343688365,1783423143343688365,1329.7328824320002,1346.224128,30.344920270057166,75.34794739038327,957.7225722289307,1340.6932038776047,1335.2859372427242,125.0,948.0132559525728,1176.9029203730865,0.8055152549473205,1608.3494990769234,1346.224128,57.04845010770747,74.59619877674938,1393.207658325851,2011.3055546244184,2001.5201636315921,104.0,1422.2077967130963,1694.3192290474196,0.8393977783706617,923.6593322666666,715.1815680000001,52.82263898861803,73.20519893325984,404.19766177036047,543.536409854609,542.0185220984661,180.0,384.33828122998466,502.8852178696885,0.7642664122403721,923.6593322666668,715.1815680000001,95.08075017951246,73.58438882873125,423.80519986625245,566.5044592054229,564.9294104228386,180.0,400.5791446765724,528.1949160039702,0.7583926549447542,956.8988337572257,715.1815680000001,95.08075017951246,71.88175422227404,449.48635401134237,584.6812291623884,582.9939249492484,173.0,413.4320619732106,564.4580852030639,0.7324406768387033,truth
1783423134343688365,1783423144343688365,1316.7423496062993,1346.224128,59.425468862195274,76.5696120138927,957.4022414968852,1368.998762120174,1363.5580217216352,127.0,968.0283081311643,1168.203193530508,0.8286472023806224,1594.556734135922,1346.224128,43.218522808869295,74.26648270225753,1455.3467930876109,2125.951003084153,2115.5130525101786,103.0,1503.2743707511474,1762.4277742427225,0.8529565822333186,930.2295912402235,715.1815680000001,44.56910164664646,72.72078512850473,405.553653988167,560.9005978697558,559.3340504742681,179.0,396.616616325293,500.2950752842221,0.792765381709927,933.1348740338983,715.1815680000001,79.23395848292704,73.16703047596346,437.5234700824691,578.1851202455875,576.5402585819614,177.0,408.83861930681434,547.0640414317681,0.7473322835052506,981.0409187218936,715.1815680000001,95.08075017951246,71.62608832643937,530.3843606745859,707.1716339453964,705.0639930228991,169.0,500.0458578255607,661.5075284017015,0.7559186197528912,truth
1783423135343688365,1783423145343688365,1316.4110936692914,1346.224128,44.56910164664646,76.53779888901263,927.8195916357596,1267.1301881371978,1262.101814137209,127.0,895.9963486779983,1149.040321670281,0.7797779867076814,1623.1476591844662,1346.224128,25.468058083797978,75.76086164062724,1484.4684066743196,2156.2106441284654,2145.617487374481,103.0,1524.6711681298514,1801.3833060637492,0.8463890849868322,918.5562420331493,715.1815680000001,95.08075017951246,73.36295040941039,398.79862722503145,561.9190194571596,560.3655125358256,181.0,397.3367491358531,489.02192593606196,0.8125131575139304,958.1147153757225,715.1815680000001,95.08075017951246,72.39898040676654,480.84678365960167,647.5956609768183,645.7105565071445,173.0,457.91928334369265,597.9817920995313,0.7657746262405831,986.6300342857143,715.1815680000001,95.08075017951246,71.75958133077647,549.2492500537631,719.3878962932297,717.2309832501079,168.0,508.6840597724675,688.4546034677543,0.7388781441945768,truth
1783423136343688365,1783423146343688365,1293.7187780465117,1346.224128,29.712734431097637,75.01722100459419,847.122750268833,1197.2375972593475,1192.563312166713,129.0,846.5748237135733,1037.7328374746699,0.8157926521567141,1435.5752869380535,1346.224128,25.468058083797978,77.70048298238171,1110.7540270393135,1570.1151859994454,1563.1362413893305,113.0,1110.2390952641852,1360.6004530506325,0.8159920076278774,926.4691886480448,715.1815680000001,44.56910164664646,73.17318886730503,414.04742226767024,584.3689750086435,582.7359611578385,179.0,413.2112649436439,507.4433574644974,0.8143002738439703,973.9951247719299,715.1815680000001,44.56910164664646,71.57461256219213,492.0095414800157,677.983569594561,675.9981550783356,171.0,479.4067795933757,607.6440962065745,0.788959824651035,1012.4898310243905,715.1815680000001,44.56910164664646,70.49726046414423,564.1355146736736,752.7190757145273,750.4165557321714,164.0,532.2527627662125,703.4566483416928,0.7566248240327658,truth
1783423137343688365,1783423147343688365,1402.4346417478994,1346.224128,29.10635209576912,68.17663434534471,926.2625392976659,1342.4867514743771,1336.8158585519614,119.0,949.2814856206313,1124.8808443303067,0.8438951471218111,1421.2964325517241,1325.1893760000003,178.27640658658584,78.09017793548719,1106.6592616126388,1592.7943699394825,1585.9215646616642,116.0,1126.2757000199624,1347.2716750523384,0.8359677716643225,920.4156676243093,715.1815680000001,89.13820329329292,73.61056128945705,412.2826412842633,569.2793623831906,567.6958765160601,181.0,402.54129753070805,508.8557796663059,0.7910714855094776,979.971975529412,715.1815680000001,89.13820329329292,71.72220494328054,509.4112181585367,712.6360315831305,710.5245563808634,170.0,503.90977045030223,626.1286209668829,0.8048023258738,1022.0566615950921,715.1815680000001,89.13820329329292,70.3444567810075,577.9052569555004,786.7619303973075,784.3299368725943,163.0,556.3246961633547,716.3800585254878,0.7765775855185414,truth
1783423138343688365,1783423148343688365,1444.5071933793106,1346.224128,17.607546329539343,67.78158767455324,997.9076963799864,1409.1850989161364,1403.0586122922523,116.0,996.4443393906358,1222.7791624970562,0.8149013083898007,1343.1706962580645,1009.6680960000002,178.27640658658584,81.78221450233474,1055.6659632939868,1472.537647812433,1466.5624793043153,124.0,1041.2413563206594,1298.7568945182154,0.8017215236473616,920.1832394254145,715.1815680000001,89.13820329329292,74.38516713126452,481.0179385383655,666.9511402328917,665.0959589556143,181.0,471.6056739787777,592.9169912617692,0.7953991552429076,979.7245078588237,715.1815680000001,89.13820329329292,71.96535608484476,513.6652143429509,705.8142984406732,703.7342633142603,170.0,499.0860766858256,634.9491703129901,0.7860252442566505,979.7245078588237,715.1815680000001,44.56910164664646,72.21462081729307,548.2984392393234,727.3917985714168,725.2365588753652,170.0,514.343673349328,684.8267297552834,0.7510566556494137,truth
1783423139343688365,1783423149343688365,1509.9540895135137,1346.224128,83.89477957015804,67.4383778703969,1146.8909048787752,1638.1289989371062,1630.6774391980061,111.0,1158.3321236067584,1399.9467279499033,0.8274115725124999,1367.948544,1009.6680960000002,178.27640658658584,81.02501329586109,1077.901807139581,1492.7205054145386,1486.6044946886682,122.0,1055.5127917948307,1329.1692837439068,0.7941146434122669,932.1097925363129,715.1815680000001,41.94738978507902,73.67456019159887,483.46130774048135,676.7223824442092,674.8307606517437,179.0,478.51498560701657,594.1223581376408,0.8054148763345456,946.56384,715.1815680000001,83.89477957015804,74.02064337292542,505.29485946647395,702.4356278322958,700.4025247900428,174.0,496.6969957872464,622.3277570496509,0.7981276588754479,964.4372997919075,715.1815680000001,83.89477957015804,73.1436950489564,545.943380715694,728.3526287452072,726.2322381361165,173.0,515.0230828807839,680.7965642866811,0.7565007079911018,truth
1783423140343688365,1783423150343688365,1525.3089890642202,1346.224128,35.65528131731717,65.62137014615936,1123.3920654772387,1586.3565402255663,1579.0444177714203,109.0,1121.723466973128,1376.5491990391502,0.8148807668887579,1393.9500358991595,1346.224128,44.56910164664646,81.51781877987295,1100.9951470585809,1555.9300823066433,1549.3231716878267,119.0,1100.2087122511705,1348.7590676011794,0.8157192330932274,935.2192546516856,715.1815680000001,95.08075017951246,73.91043655866494,524.9106074678675,729.3685127230241,727.305386672151,178.0,515.741421330397,646.5815376475131,0.7976432844136602,945.8467461818182,715.1815680000001,95.08075017951246,74.16219443421693,511.1841560287257,720.375135406541,718.3140122229718,176.0,509.38214324414247,626.8041151919817,0.8126656014185956,965.1526906046513,715.1815680000001,95.08075017951246,73.04129936266393,541.7355899975346,733.3102094165253,731.1678917566436,172.0,518.5286217917522,672.6952750921674,0.7708224525892612,truth
1783423141343688365,1783423151343688365,1420.6547889230767,1346.224128,89.13820329329292,73.43399928309053,1116.2900088872034,1535.1722837519094,1528.540838997379,117.0,1085.5307321306138,1379.4992869453656,0.786901988571746,1406.4270388965517,1346.224128,178.27640658658584,82.64663396781609,1264.7068527979486,1831.5644973908154,1823.6683249805096,116.0,1295.1116762855763,1536.3299515411936,0.8429905795863477,923.9020906077349,715.1815680000001,44.56910164664646,74.53944410276111,519.3755232783027,719.0060541575699,717.0146041546394,181.0,508.4140566089998,640.5149817782656,0.7937582587022193,939.4734741573034,715.1815680000001,44.56910164664646,74.2338876530151,498.53025455542155,707.8871600933641,705.8936497875719,178.0,500.5518112169049,609.7448413540903,0.8209201247284108,977.931452631579,715.1815680000001,44.56910164664646,73.15800601755606,594.3896464683297,834.5394413125152,832.0895731209899,171.0,590.1084981197123,729.7150703397461,0.8086834466019254,truth
1783423142343688365,1783423152343688365,1478.6079800366972,1346.224128,89.13820329329292,73.137352209296,1180.0286270864303,1645.093366577407,1637.4713425617913,109.0,1163.2566751918914,1452.016554760215,0.8011318268915955,1448.8146728421054,1156.9113600000003,59.425468862195274,83.2899255344458,1371.6952998758227,1912.0963718514254,1903.6262868161893,114.0,1352.0563108183371,1687.9182022808452,0.801020042909268,901.1969964972974,715.1815680000001,89.13820329329292,75.67786094244407,504.50158862361496,702.919392071341,701.0067199832671,185.0,497.03906876117077,620.9023980546513,0.8005107893260575,936.6373278202249,715.1815680000001,43.218522808869295,74.25244719576156,487.0984231601458,686.6936001720388,684.7616000845038,178.0,485.5657012790524,597.195715457581,0.8130763311103197,975.2252272280703,715.1815680000001,64.82778421330394,72.9917627546595,581.2095601656813,828.9185931088242,826.477927598616,171.0,586.1339582388622,709.8116631583277,0.8257598299115599,truth
1783423143343688365,1783423153343688365,1530.7124115963304,1346.224128,46.00681460298989,74.13403332543311,1314.3171130592748,1924.521798274092,1915.6001656977717,109.0,1360.8424141009393,1590.2556113257065,0.8557381620974013,1509.1960804324322,1346.224128,35.65528131731717,79.69645189850948,1389.372383941683,1929.371421641889,1920.5839659654978,111.0,1364.2716156705092,1711.7513609918585,0.7970033772194547,880.3597258105265,715.1815680000001,95.08075017951246,76.42350251504132,469.07512851775783,645.0088167915491,643.3140829301449,190.0,456.09010827841576,579.7015257468222,0.7867671345022607,925.2953685333334,715.1815680000001,44.56910164664646,74.33386775307646,463.7249546153109,651.6749660310819,649.8616577480868,180.0,460.803787610091,569.1323235663577,0.8096601941751491,969.8127764210527,715.1815680000001,95.08075017951246,72.94065781384373,570.3348417949229,797.0179139149244,794.6702860939888,171.0,563.576771656399,701.2519338691018,0.803672324362671,truth
1783423144343688365,1783423154343688365,1523.2984948363635,1346.224128,59.425468862195274,73.46566455351966,1282.01176091869,1873.8307427244226,1865.3840890765873,110.0,1324.998424976264,1552.1913210596465,0.8536308681791347,1665.1109683199998,1346.224128,89.13820329329292,75.48345884825687,1577.8534717059567,2154.0789944684734,2143.2396000479093,100.0,1523.1638642001574,1954.2847995485465,0.7793970789477659,873.3276615706809,715.1815680000001,28.524225053853733,76.93440023626351,467.4003850987234,633.3700343834251,631.7433292997691,191.0,447.8602463128767,580.2041363754266,0.7719011607030055,911.50592,715.1815680000001,89.13820329329292,75.41682680831619,466.2050124043964,664.0811661672385,662.2542947484275,183.0,469.57629585512484,569.5992260945033,0.8243977069189637,957.2615138742857,715.1815680000001,28.524225053853733,73.00825311345776,513.0127976465072,694.7617898474763,692.8084158988559,175.0,491.27077291045356,636.9385958945927,0.7713000532185589,truth
1783423145343688365,1783423155343688365,1474.6863634285717,1304.1546240000002,178.27640658658584,75.21589185956404,1258.376028355136,1860.2464349613952,1851.8504704793954,112.0,1315.3928688393025,1517.1984899086365,0.8669879897642883,1611.1811003076923,1346.224128,178.27640658658584,78.93520407349583,1559.8509595937676,2124.9793782410684,2114.701895997312,104.0,1502.587328235833,1933.2319293876112,0.7772411087332944,875.7505125863876,715.1815680000001,95.08075017951246,76.71539322159772,467.1179505788,654.247392228112,652.5235674497774,191.0,462.6227676181129,573.9237292067259,0.8060701171173869,916.2830431648354,715.1815680000001,95.08075017951246,75.07685181947483,468.9794484692584,656.5982798828887,654.7839816489073,182.0,464.2850962206133,576.2838891438555,0.8056534374236438,952.9343648914288,715.1815680000001,38.546250072775315,73.05317702343767,508.02488455329546,690.1001868876026,688.1238400318889,175.0,487.97452184632755,630.1737852887902,0.7743491291417384,truth
1783423146343688365,1783423156343688365,1418.0324193103447,1283.1198720000002,44.56910164664646,75.52075958661854,1160.5590680567393,1729.7650527860071,1722.237860506229,116.0,1223.128598684492,1394.9096445424375,0.876851488890312,1648.008427102041,1346.224128,13.713569737429678,80.55824869002488,1616.6416300193096,2190.891048978152,2179.667956439557,98.0,1549.1939175733596,2006.7534533917797,0.771990159007794,884.127353904762,715.1815680000001,89.13820329329292,76.73067731620134,490.0628745491693,694.8843596834728,693.033834976101,189.0,491.35744287265555,599.672555391367,0.8193762386740856,918.1322521318683,715.1815680000001,50.936116167595955,75.29893393770391,481.58234518669957,661.5334305676336,659.7084133695332,182.0,467.7747747359738,595.3456898738726,0.7857195956773863,954.857542217143,715.1815680000001,50.936116167595955,73.1307689850879,526.1341922927461,730.2660996098924,728.1694669907881,175.0,516.3761111048058,648.3149177207164,0.7964896333408948,truth
1783423147343688365,1783423157343688365,1408.091045647059,1304.1546240000002,44.56910164664646,76.32246218779785,1149.3683666840625,1701.8155535330663,1694.6107299851808,119.0,1203.3653182319692,1384.9372693758423,0.868895180194188,1629.6827277669902,1346.224128,22.28455082332323,80.66212428822897,1604.274803431768,2156.771801781644,2146.183496029787,103.0,1525.0679665117289,1996.116013314849,0.7640177005439306,899.9707334193549,715.1815680000001,44.56910164664646,75.86867444522336,481.163135398388,666.6490301529519,664.8535848663059,186.0,471.3920498925875,593.2374679517866,0.7946093686902769,920.8805240220995,715.1815680000001,44.56910164664646,75.39782988620046,509.7550808589125,697.7341435816148,695.8021258086136,181.0,493.37254439194805,630.8662704116147,0.7820556709586685,936.4009822921348,715.1815680000001,95.08075017951246,74.1852505024654,517.9935780247564,709.237165798237,707.2309929184852,178.0,501.5064094054611,640.999496421331,0.782381908574573,truth
1783423148343688365,1783423158343688365,1348.599019354839,1304.1546240000002,43.218522808869295,77.29454426862752,1061.675179982356,1610.055406541802,1603.5076507822098,124.0,1138.4810960517718,1267.3747561583805,0.8982987001435105,1837.189108747253,1388.2936320000001,29.712734431097637,70.84705350821156,1680.652610002069,2301.755776274618,2289.008890449529,91.0,1627.587118039088,2079.5832461361438,0.7826506205332907,919.2186624000001,715.1815680000001,22.28455082332323,75.07115548798438,499.94288456760916,689.3760031130072,687.5364163512356,180.0,487.46244658848593,617.3134999678424,0.7896513629037422,890.6973481290324,715.1815680000001,83.89477957015804,76.0036502976495,426.6169356606869,586.4854405555214,584.8981969400254,186.0,414.70783208398905,527.2691215964844,0.7865202324542006,961.276007583815,715.1815680000001,95.08075017951246,73.4755597290137,565.4242638280264,782.0615691205334,779.7849737126953,173.0,553.001038830521,697.4984743905276,0.7928347647121836,truth
1783423149343688365,1783423159343688365,1303.1608561889766,1304.1546240000002,44.56910164664646,77.6683937575498,944.301322034838,1436.4015247113334,1430.692073057133,127.0,1015.6892586300802,1125.876386885001,0.9021321261033113,1651.6487270399998,1346.224128,178.27640658658584,79.11580672760495,1619.1487214806248,2165.612337785419,2154.649194875268,100.0,1531.319169469322,2017.6263195033357,0.758970655104398,942.0222458181819,715.1815680000001,31.69358339317082,74.43781361540638,542.8288865074799,744.619273352005,742.5237661673935,176.0,526.5253375894023,671.3508281756148,0.784277482788286,925.0616490666667,715.1815680000001,89.13820329329292,74.93562515424901,506.6129702672745,704.8114122191844,702.839947199037,180.0,498.3769290378524,623.7977409284682,0.7989399389232511,958.357891699422,715.1815680000001,89.13820329329292,74.52507399994559,613.1091975244364,877.3346670602924,874.7805920004616,173.0,620.3692924483747,747.914932777564,0.829465043764379,truth
1783423150343688365,1783423160343688365,1286.3559876923077,1304.1546240000002,83.89477957015804,77.66849003098847,931.0104334015724,1421.8061855882354,1416.3044495145753,130.0,1005.3687953624201,1108.231765859888,0.9071827990622021,1668.47652864,1346.224128,178.27640658658584,77.35214370530193,1606.074043801445,2154.4125470029335,2143.5148421828244,100.0,1523.3997214591557,1999.643546403842,0.7618356402564032,934.6122763636365,715.1815680000001,95.08075017951246,74.70035128111282,529.1476483273634,689.1207012633288,687.1491323757864,176.0,487.2819209193288,664.2835480676476,0.7335450687237345,936.9377670508475,715.1815680000001,95.08075017951246,74.86311891290559,545.7161443066556,747.7221407041911,745.5949041299863,177.0,528.7193961352555,675.1593296319251,0.7831031475540686,933.4171200000001,715.1815680000001,95.08075017951246,75.2763064801781,574.903284729794,798.2635402284611,795.9796649020028,176.0,564.4575624695252,708.3229515353107,0.7968929444486402,truth
1783423151343688365,1783423161343688365,1348.25974916129,1325.1893760000003,89.13820329329292,73.44218816734289,947.1334096408362,1412.703557946374,1407.3322295660873,124.0,998.9322656302438,1138.064389943366,0.8777467026096425,1544.5517897142859,1346.224128,59.425468862195274,77.18141136643726,1346.106741453558,1735.0234245596657,1727.3440106464996,105.0,1226.846829023646,1694.5294768255712,0.7240044188088993,941.2160216949154,715.1815680000001,37.531875070860174,75.11158034821099,580.1948631694836,771.3643008975907,769.1751517485569,177.0,545.4369279299069,724.2247146581676,0.7531321658738916,937.413128677966,715.1815680000001,64.82778421330394,74.73778258194183,544.1927992340967,743.8322892603957,741.7207795696436,177.0,525.9688558015393,673.77294902652,0.7806321945122154,928.1288888089887,715.1815680000001,83.89477957015804,76.34179338211301,655.4427001212889,910.6382213476592,908.0621844315942,178.0,643.9184615225861,807.4000085086479,0.7975209991785492,truth
1783423152343688365,1783423162343688365,1296.0016193488375,1304.1546240000002,44.56910164664646,73.73741216376537,802.0848676040292,1216.1041935806581,1211.354504254975,129.0,859.9155219102813,957.5765855886569,0.8980122685243606,1566.9888585142858,1346.224128,25.021250047240116,75.42535604100323,1318.0272072963244,1641.851751269084,1633.9704618796354,105.0,1160.964507025378,1673.461127442271,0.6937505078470534,962.7350655260117,715.1815680000001,44.56910164664646,74.027250356635,590.5928792510655,776.0014083774878,773.7510002032625,173.0,548.715858074033,739.6319027686449,0.7418769471950023,940.9783408813561,715.1815680000001,95.08075017951246,74.85842301324544,559.6006898040147,769.4923651582639,767.3033421804938,177.0,544.1132694746834,691.5751868372978,0.7867738458966621,947.6456272457144,715.1815680000001,44.56910164664646,76.0611571292436,695.6993091068653,963.7370705759032,960.9637207380018,175.0,681.4650178850795,857.7865539182714,0.7944459082183382,truth
1783423153343688365,1783423163343688365,1324.187721142857,1346.224128,57.04845010770747,72.31472469199792,842.3943408231804,1126.4410917021019,1121.9361736405094,126.0,796.5141345497339,1049.7804854506896,0.758743514085972,1592.2305609142857,1346.224128,9.90424481036588,76.6809599599096,1431.1455498475598,1713.200386978147,1705.192700498893,105.0,1211.415611163665,1833.736970836175,0.6606267040639233,967.3540018604652,715.1815680000001,89.13820329329292,73.46308995106965,586.7987392538961,765.0066684782538,762.7732321191064,172.0,540.9414029339023,736.4487219595636,0.7345269083970302,927.892543280899,715.1815680000001,89.13820329329292,75.58113370866062,552.4738315555852,758.1270133824897,755.9823782134687,178.0,536.076752163463,683.2024055888231,0.7846529048758855,945.3686836363638,715.1815680000001,89.13820329329292,76.01131610607264,704.1288031981528,983.0025593882466,980.194938890768,176.0,695.087775667161,866.0376637569323,0.8026068666018766,truth
1783423154343688365,1783423164343688365,1376.5284317288135,1325.1893760000003,30.344920270057166,71.42150799920577,990.3953511907747,1372.899289136333,1367.0196077751496,118.0,970.7863972344917,1220.8819716880225,0.7951517179766834,1541.769415111111,1346.224128,35.65528131731717,78.52040669925863,1356.8752501441172,1890.4906780653666,1881.6779347734723,108.0,1336.778778229975,1669.9497411432205,0.800490425127907,983.6839905882354,715.1815680000001,43.218522808869295,73.19511869771208,615.7142526239029,800.2853070984108,797.9240267595092,170.0,565.887167533245,773.3653331893169,0.7317203697243021,939.4734741573034,715.1815680000001,43.218522808869295,74.5328790186667,539.5819106544923,736.534188051481,734.4604813468012,178.0,520.8083189469301,668.3387046018967,0.7792580548767638,955.5787337142858,715.1815680000001,79.23395848292704,75.60403591482137,712.5149987215259,998.9366084775969,996.0619941394776,175.0,706.35484983,875.1495071512587,0.8071247758903387,truth
1783423155343688365,1783423165343688365,1342.8314260645159,1304.1546240000002,44.56910164664646,75.04576008200445,1023.6317133398372,1421.4151139194817,1415.6252529081753,124.0,1005.0922659335145,1261.1655472579396,0.7969550612279358,1519.8564445090906,1346.224128,44.56910164664646,78.17065348019246,1296.8333414627177,1805.9274168649868,1797.6481239298487,110.0,1276.9835227959372,1596.3113644626335,0.7999589248215422,970.796858385965,715.1815680000001,83.89477957015804,73.94952140390187,617.9224617534122,784.2618445549373,781.9524164583198,171.0,554.5568685106663,780.9543375080365,0.7101015281894885,922.2570154666668,715.1815680000001,83.89477957015804,75.2728323507539,520.0470693257092,715.1157796759654,713.1325312849731,180.0,505.66321714238023,642.689866143171,0.7867919564017747,934.2250189944135,715.1815680000001,83.89477957015804,76.40389524704591,687.5757607197427,973.907567386613,971.1680188728297,179.0,688.6566451479686,841.6631547153755,0.8182093291001327,truth
1783423156343688365,1783423166343688365,1362.0864,1304.1546240000002,178.27640658658584,77.07618002519479,1070.1950861012278,1464.2235874077012,1458.1631765582483,122.0,1035.362427829279,1324.6310301929964,0.7816232628027963,1473.921825982301,1346.224128,35.65528131731717,77.46189964165782,1194.4110566882525,1704.877230681194,1697.273047390854,113.0,1205.5302509052142,1458.281163477915,0.8266788881988266,963.7077708208094,715.1815680000001,64.82778421330394,73.83634472012983,596.1320300949005,768.3153431472055,766.0795886562337,173.0,543.2809892290583,750.4463191869773,0.7239438389379284,915.999531845304,715.1815680000001,89.13820329329292,75.72545935732359,521.7081457433516,726.810592312516,724.7888998143799,181.0,513.9326984623913,642.1023044620808,0.8003906774527725,913.740380835165,715.1815680000001,83.89477957015804,77.61716442773945,678.6581141254908,959.7011951674599,957.0464149913564,182.0,678.6112230157452,831.2021870371087,0.8164213636572744,truth
1783423157343688365,1783423167343688365,1345.5400710243903,1304.1546240000002,89.13820329329292,76.29581729597874,1063.2060303705273,1443.3418201715167,1437.4249019923095,123.0,1020.5967886134139,1319.0925758143371,0.7737112673713231,1503.132007783784,1346.224128,22.28455082332323,77.54140688981016,1221.201240942902,1791.4718270996716,1783.3338035498948,111.0,1266.761877246832,1476.5913838763952,0.8578960239638457,960.1034504827587,715.1815680000001,18.28475964990624,73.5477275407724,586.095477669286,740.9565303645475,738.9608338452402,174.0,523.9353871852276,741.4591512121958,0.7066274471475019,929.2894905921788,715.1815680000001,32.41389210665197,74.95452816750077,529.2243149047267,733.4176022269274,731.3823779381134,179.0,518.6045599762383,652.4426458767704,0.7948661284691518,924.13451880663,715.1815680000001,64.82778421330394,77.07882830569041,666.4163035941181,911.3448532705938,908.8105653205065,181.0,644.418125747096,824.9751626542434,0.7811363964871014,truth
1783423158343688365,1783423168343688365,1399.7023110508474,1304.1546240000002,25.931113685321577,73.99928758333984,1096.1233287316295,1482.2855911172026,1476.0341928079465,118.0,1048.134193134084,1361.4991958025525,0.7698382756048917,1495.025521777778,1346.224128,89.13820329329292,78.85211632533291,1232.9478922913927,1804.7629499459217,1796.3124350468388,108.0,1276.160120340999,1491.9881647778573,0.855341986262342,950.6273716363635,715.1815680000001,83.89477957015804,73.97334164561644,575.7957585197879,777.5122516233856,775.2929723694273,176.0,549.7841855785172,715.5069431547391,0.7683841377617744,917.626529237569,715.1815680000001,83.89477957015804,75.00648454256081,493.64353184811904,661.8616527149135,660.0206289088435,181.0,468.006862842051,614.6972110212805,0.7613616174774687,927.8793396201119,715.1815680000001,43.218522808869295,76.10237668860894,599.4101217240973,805.1064058009403,802.8517394807509,179.0,569.2961991185732,746.0133422970176,0.7631179857530132,truth
1783423159343688365,1783423169343688365,1426.048315076923,1304.1546240000002,25.931113685321577,74.89413716726946,1145.5786505287115,1559.8040926664667,1553.1273910225534,117.0,1102.9480512469884,1420.0189038247352,0.7767136397101929,1589.0252653714285,1346.224128,178.27640658658584,75.53990713810315,1323.985008357918,1949.8219215743752,1940.4925958651265,105.0,1378.7323028514254,1598.5684918857983,0.8624793431434166,935.6351699664806,715.1815680000001,83.89477957015804,74.80153305944533,563.3342801830241,743.7949824332642,741.7027279864153,179.0,525.9424758910901,704.5447313587881,0.7464997642899907,910.2103012173914,715.1815680000001,83.89477957015804,74.76988410897822,450.71196594319423,617.443023626975,615.753709863108,184.0,436.5981490029597,557.6500521226129,0.7829249676228184,895.6079969197862,715.1815680000001,83.89477957015804,76.84577076293104,532.4850746509176,705.4371918367855,703.5382995853289,187.0,498.8194220489864,665.3347289487781,0.7497270176127975,truth
1783423160343688365,1783423170343688365,1420.6547889230771,1051.7376000000002,59.425468862195274,74.37277316469022,1138.886588440861,1568.6541073862786,1561.8800952296388,117.0,1109.2059566689684,1406.7538503611659,0.7884861707570191,1601.068238769231,1346.224128,22.28455082332323,73.76230149609613,1322.1121415754396,1923.0549555364594,1913.7416009324495,104.0,1359.805199654225,1603.5666307637664,0.8479879623128352,941.2160216949153,715.1815680000001,83.89477957015804,74.69557093057884,554.8930991605451,763.2638404741789,761.0923884483025,177.0,539.7090374337791,685.6892739777552,0.7871043895770319,895.6733109677422,715.1815680000001,83.89477957015804,75.25196382856556,406.14340962888036,539.1451592309459,537.6860356915715,186.0,381.23319813610277,507.1839535014929,0.7516665215927038,911.5059200000003,715.1815680000001,83.89477957015804,76.51869143494096,565.0300539594296,746.705460350463,744.6512461135959,183.0,528.0004945628351,706.4882607839231,0.7473591903380857,truth
1783423161343688365,1783423171343688365,1510.2951936000004,1177.946112,12.848750024258436,73.41108472429195,1249.6727600980441,1711.20204396779,1703.5135039687896,110.0,1210.0025692699048,1546.38640250173,0.7824710352550783,1549.0308878490566,1346.224128,59.425468862195274,74.84601132414222,1258.2703574383454,1894.108362859864,1885.0795266013406,106.0,1339.3368676803595,1506.511520783072,0.88903194512856,950.5303932342858,715.1815680000001,83.89477957015804,74.78692474028549,579.8196321038829,774.1504149924089,771.9311588663315,175.0,547.4070080995123,722.8792397682579,0.757259273727381,939.7899368135594,715.1815680000001,83.89477957015804,74.08005805886006,492.0397257219722,623.6164407066319,621.8526159951653,177.0,440.96341408307796,622.0786261375689,0.7088547903035678,892.8337669565218,715.1815680000001,83.89477957015804,76.62431298098089,517.6772085617968,712.6371285721643,710.7186340780332,184.0,503.9105461386869,639.5439510102282,0.787921682853393,truth
1783423162343688365,1783423172343688365,1466.7475718918918,1304.1546240000002,25.931113685321577,72.1738798347872,1197.88986820384,1710.5540646984011,1702.7734797319017,111.0,1209.5443787344518,1462.320577242477,0.8271403668649117,1524.9230303119264,1346.224128,29.712734431097637,78.73005519698911,1292.722073619811,1952.0388821801191,1942.9806482354916,109.0,1380.2999307293703,1545.848236361531,0.892907788916063,946.6840385828573,715.1815680000001,83.89477957015804,75.8673743172718,682.8171280859598,917.2990806348386,914.6844184206409,175.0,648.62840029308,849.7758880915227,0.7632934864153516,966.6258867052023,715.1815680000001,38.546250072775315,74.8675894359148,668.016827062841,899.9568896342629,897.350255894165,173.0,636.3656194359406,830.6698271143397,0.76608731732391,894.2581732620322,715.1815680000001,95.08075017951246,77.43661831041297,577.9953571754295,808.0872204018362,805.91214228006,187.0,571.4039533363266,710.5673978508394,0.8041516611437249,truth
1783423163343688365,1783423173343688365,1390.7476864000002,1051.7376000000002,178.27640658658584,74.89355581047138,1130.2033630552585,1609.7460384875642,1602.9706252983112,120.0,1138.2623398027379,1380.905031715154,0.8242871983665366,1492.7024919272728,1346.224128,44.56910164664646,76.662954126554,1209.2978680954202,1799.2031165845015,1790.9335361901917,110.0,1272.2287244688714,1454.482624123922,0.8746950313244013,917.5382324916203,715.1815680000001,89.13820329329292,77.3083349273468,668.9300996081481,906.3161751123298,903.776770169711,179.0,640.8623133209829,830.411165631805,0.7717409638072401,935.5116821694916,715.1815680000001,89.13820329329292,76.30546732630205,648.241792751982,869.636279716964,867.1980782879394,177.0,614.9257105537066,807.0737444562402,0.7619201030607285,861.6619135336789,715.1815680000001,89.13820329329292,79.08157441602228,549.5113955844567,770.8743325333345,768.8722191924035,193.0,545.0904679769744,674.8064452972246,0.8077730611136714,truth
1783423164343688365,1783423174343688365,1329.5998885161293,1325.1893760000003,44.56910164664646,75.2847454688373,970.0242297213455,1366.9979343754044,1361.4544382728438,124.0,966.6135092648516,1189.421361144285,0.812675424237311,1610.0775220194178,1346.224128,10.564527797723605,74.45809850672688,1335.174124927652,1752.5997651508226,1744.5148558670762,103.0,1239.2751786440974,1672.566412299064,0.7409422845820655,910.1265920000002,715.1815680000001,44.56910164664646,77.38150677591545,629.9511217764821,868.8663261653152,866.4829801172806,183.0,614.3812711761369,777.7818836080545,0.7899146073267764,946.3248087272727,715.1815680000001,95.08075017951246,76.85210369733846,734.7879664897658,1012.0998221982092,1009.2122401326326,176.0,715.6626475140528,907.6013435825879,0.78852092118893,858.5214759587631,715.1815680000001,95.08075017951246,79.6589285030804,559.8935298558483,788.7212728339125,786.6754206048303,194.0,557.7101604869446,686.6157717338691,0.8122594665697715,truth
1783423165343688365,1783423175343688365,1414.9016943589745,1346.224128,44.56910164664646,68.22944927222511,962.9927553686207,1340.075080127071,1334.4882595184251,117.0,947.5761764569579,1185.6474133107627,0.7992057046799246,1675.0531082448983,1346.224128,178.27640658658584,72.50216801095735,1393.8660474263086,1873.448276954177,1863.7792272881338,98.0,1324.7279808365518,1734.4373741158938,0.7637796559312579,929.5245157541901,715.1815680000001,89.13820329329292,76.91598567620535,682.2482265890611,941.1872357370581,938.5440129445979,179.0,665.5198767558956,842.2986003723659,0.7901234508304781,951.9727762285717,715.1815680000001,67.9148215567946,76.73430178645074,756.1007898041731,1041.4236169083679,1038.4280873970313,175.0,736.3977016037281,933.9357693232239,0.7884885939611869,880.3433244444445,715.1815680000001,89.13820329329292,78.7919906505784,584.3593311236826,810.1923554638481,808.0705340237577,189.0,572.8925086139888,720.3115593474957,0.7953398792224734,truth
1783423166343688365,1783423176343688365,1399.9599650420166,1346.224128,158.46791696585407,68.07689295824919,965.2384009034752,1357.1795258973523,1351.4392905781517,119.0,959.6708460495614,1184.4350023444322,0.8102351282679253,1827.6862293333336,1346.224128,25.468058083797978,71.12874017670124,1690.7628352797071,2349.960675687368,2336.8315066786454,90.0,1661.6731293002592,2082.4934900274934,0.797924765315027,957.2021053793105,715.1815680000001,44.56910164664646,76.00084978905389,728.8783718344307,995.1740093219454,992.2936154100256,174.0,703.694290452152,902.7372456305004,0.7795117503550765,937.6180259310346,715.1815680000001,83.89477957015804,76.94258424293946,705.7545182639817,994.8189301990018,991.9481783807494,174.0,703.4432115964609,865.3107558152032,0.812937094412691,892.7329692903228,715.1815680000001,95.08075017951246,79.05596587671683,658.8765073821662,928.2065225861426,925.694457025843,186.0,656.3411264622457,807.9880363083222,0.8123154019223507,truth
1783423167343688365,1783423177343688365,1473.921825982301,1346.224128,57.04845010770747,67.08172485638602,1016.9496813717868,1431.0452909909375,1424.6566822889156,113.0,1011.9018294447679,1247.5578754781372,0.8111061212746927,1864.2935255730335,1346.224128,178.27640658658584,71.29310269725818,1821.6253721257358,2575.246142889748,2560.857856220518,89.0,1820.9740108618416,2231.292185848218,0.8161073759910132,928.1288888089887,715.1815680000001,43.218522808869295,76.88357023358441,655.4579554556949,894.2218838542822,891.7003646129842,178.0,632.3103579587722,811.9988105590699,0.7787084780622028,925.5290880000002,715.1815680000001,89.13820329329292,77.0440290289915,665.5339108694492,937.255927949319,934.6342574604708,180.0,662.7400223602536,816.2466566028513,0.8119359718035732,872.2263656544503,715.1815680000001,89.13820329329292,79.43918485866594,588.6834184807269,844.7167589927496,842.4909166071377,191.0,597.3049484656958,717.4327380720129,0.832558812510924,truth
1783423168343688365,1783423178343688365,1487.457462857143,1346.224128,29.712734431097637,66.72722925346929,1029.4952376161602,1431.3390944196842,1424.9576810735691,112.0,1012.1095798415707,1267.887214126386,0.7982646788807204,1830.716877362638,1346.224128,79.23395848292704,70.44475817717954,1830.7766799283959,2604.7555449596175,2590.500853243306,91.0,1841.8403091742064,2237.6994081622784,0.8230954981959917,957.2021053793105,715.1815680000001,95.08075017951246,76.18494525809501,727.7827649688392,997.0745770050946,994.1888011229097,174.0,705.0381947490108,900.4421569117615,0.7829910998026504,941.7282648275864,715.1815680000001,41.94738978507902,76.31896500086708,679.2335586134893,925.7906069819494,923.2548057955248,174.0,654.6328161557462,841.6913878016618,0.7777587196959719,866.0591085235602,715.1815680000001,95.08075017951246,79.64262730688202,544.1230013702254,727.7005671742576,725.7831743886638,191.0,514.5620057222143,678.0506267041206,0.758884344998552,truth
1783423169343688365,1783423179343688365,1481.0719131428573,1346.224128,178.27640658658584,67.55193940194937,1029.5770288834774,1453.271203557482,1446.722835357545,112.0,1027.6179229386312,1261.7679735342408,0.8144270139146502,1955.4895329882356,1388.2936320000001,14.856367215548818,67.01022821648684,1879.4066110929264,2740.5498139600313,2724.544665226582,85.0,1937.8613576306693,2277.4294937364157,0.8508985077080734,1001.8117428433735,715.1815680000001,95.08075017951246,73.22705462930304,677.9803446996401,881.4293628554238,878.754453464119,166.0,623.2646796120082,851.5193862573864,0.731944204290395,961.276007583815,715.1815680000001,95.08075017951246,75.30774871291578,692.1805837844986,954.9310648261397,952.1511814888056,173.0,675.238231504254,854.5493470209911,0.7901687993305172,879.8981445079365,715.1815680000001,95.08075017951246,78.7941077665771,550.5975095580817,714.0092959405315,712.1079437329114,189.0,504.88081498978227,691.9992170448969,0.7295973789476493,truth
1783423170343688365,1783423180343688365,1509.3908958504674,1346.224128,44.56910164664646,66.66878579016459,1041.7315997764752,1410.0578997652135,1403.407140456062,107.0,997.0615027896436,1293.5778414046592,0.7707781247295972,1943.6110847999998,1388.2936320000001,89.13820329329292,66.57327623955894,1878.601374702103,2765.4446721049458,2748.934407100217,85.0,1955.4646806416156,2268.560158216408,0.8619849350519516,961.276007583815,715.1815680000001,89.13820329329292,73.30364967109982,522.9952573540728,645.7311979061313,643.8513824485393,173.0,456.600908863138,665.4366111376679,0.6861673992996979,978.2397018352941,715.1815680000001,28.524225053853733,74.72152878893742,715.5704077411974,994.0665442424972,991.1551981978539,170.0,702.911194384547,881.4986915896426,0.7974046939502072,918.7886702320442,715.1815680000001,89.13820329329292,77.28912306653936,594.922499309542,798.0082713759491,795.7885287369415,181.0,564.2770601328883,740.7167205304038,0.761798734243271,truth
1783423171343688365,1783423181343688365,1418.1378100512823,1346.224128,43.218522808869295,70.15859307997724,920.438721960189,1229.7628999698577,1224.4533561205533,117.0,869.5736858203203,1147.316732307101,0.7579194666425928,1906.6672904827587,1346.224128,44.56910164664646,66.44468580607413,1852.9193967659542,2736.1631242138096,2720.234019578562,87.0,1934.7594995641546,2234.9437176909278,0.8656860055353367,947.2809338181819,715.1815680000001,83.89477957015804,73.05529849799969,467.10357357001817,621.8442978747014,620.0651010635407,176.0,439.71031986938874,582.8369533445376,0.754431093200535,926.2302464000002,715.1815680000001,83.89477957015804,74.91117784925207,520.1424927304834,739.3597198899246,737.2916142214515,180.0,522.806271670352,635.9506479584992,0.8220862316103328,931.4047170502795,715.1815680000001,83.89477957015804,76.62879403794798,606.9931338979546,836.0669840402054,833.7152070192882,179.0,591.1886339410142,749.7528451083059,0.7885113578403478,truth
1783423172343688365,1783423182343688365,1482.4846453805312,1346.224128,44.56910164664646,69.05040719772613,964.1674095211109,1301.4620802787888,1295.651205335232,113.0,920.2726624222826,1198.2431725507145,0.7680182816842488,1878.9469483146067,1346.224128,178.27640658658584,64.09087282788153,1799.770193350013,2679.7820885835827,2664.5235296266383,89.0,1894.892086939701,2164.032690873439,0.8756300655397637,910.4389398260871,715.1815680000001,83.89477957015804,74.81600108000143,447.5003418178452,625.065969072013,623.3557990571744,184.0,441.9883854197612,550.305592767503,0.8031689868841576,904.4943360000001,715.1815680000001,83.89477957015804,75.77057187068212,473.8237623660343,657.6115388057659,655.8355326638987,184.0,465.0015784760775,583.8704321789095,0.7964122737655464,845.0021081212121,715.1815680000001,83.89477957015804,79.06171336867547,442.26121788754057,602.5139117559421,601.059568940615,198.0,426.04167276185973,548.1187975520265,0.7772798062475144,truth
1783423173343688365,1783423183343688365,1504.9408930909092,1346.224128,178.27640658658584,71.3044739318462,1025.4440812788064,1384.4082482966253,1378.09846441964,110.0,978.9244603011334,1274.332993440701,0.7681857609744811,1803.5013453913045,1346.224128,83.89477957015804,66.13762800015533,1750.499582693699,2582.710194544962,2568.4896391331713,92.0,1826.2518924023702,2112.0841817432397,0.8646681359523494,920.2126122197805,715.1815680000001,83.89477957015804,74.35450808791494,472.229978252351,649.0924420452067,647.2968855154479,182.0,458.97766738710175,583.6711875194623,0.7863634135131903,905.069056,715.1815680000001,83.89477957015804,75.71928828023732,494.6150211469872,711.6566725228226,709.7561319695786,183.0,503.21725901754206,602.224404522023,0.8355975866121509,846.5152987614214,715.1815680000001,83.89477957015804,78.71338232860937,429.7947803062329,596.4608282674624,594.9374536344574,197.0,421.76149638006746,529.6279132018905,0.7963354760331428,truth
1783423174343688365,1783423184343688365,1520.3451306666668,1346.224128,29.712734431097637,70.44243499293451,1047.4504855715643,1399.4400394762463,1392.974031794012,108.0,989.5535417776235,1305.6404303734976,0.7579066324520506,1721.7498058105264,1346.224128,19.537140447845022,66.15927105022058,1620.7507330522349,2503.847593277618,2490.5026920803843,95.0,1770.4876122642206,1919.9876782907183,0.9221348825740427,921.5558570666667,715.1815680000001,43.218522808869295,74.35781326040953,474.145053521788,640.0646483849201,638.2867592901722,180.0,452.5940532707602,589.2422040471394,0.7680951061586768,890.8836141176471,715.1815680000001,83.89477957015804,76.31890787102117,478.36679275158036,692.371801891959,690.5081160341612,187.0,489.58079622015305,581.2270630322433,0.842322781162366,846.7560881632653,715.1815680000001,62.00918489968203,78.29686460618186,418.4432704924098,577.9566773335116,576.4738415690213,196.0,408.6770857745714,516.4117165810336,0.7913784150372645,truth
1783423175343688365,1783423185343688365,1512.5723502385324,1346.224128,12.734029041898989,71.64509597978892,1124.5290443262115,1453.6255829005431,1447.1519838313,109.0,1027.8685069752219,1414.5226435977297,0.7266539787308863,1690.3083870315793,1346.224128,16.024845535872885,64.9812395633447,1388.0763365490347,2143.212705643061,2131.894950619436,95.0,1515.4802376853763,1644.740604705592,0.9214098766392691,943.8305106440679,715.1815680000001,83.89477957015804,74.27819216279875,558.9027816931076,730.246973051933,728.2096256259268,177.0,516.3625865859718,701.0203123702689,0.736587196510843,894.3162301935484,715.1815680000001,83.89477957015804,76.33489335984632,480.32000993770583,666.9086917014519,665.1125402690276,186.0,471.57565833434523,591.7962682599309,0.7968547346892327,870.0331465531915,715.1815680000001,83.89477957015804,77.4759687735421,448.0280031541529,575.2752746477455,573.7350435715043,188.0,406.7810477523744,564.555376216838,0.7205334762344648,truth
1783423176343688365,1783423186343688365,1540.8447306168225,1346.224128,89.13820329329292,72.07559010773329,1198.2185155764096,1584.043044543599,1576.566225950851,107.0,1120.0875784881632,1498.051110743065,0.7476965041149872,1693.0828956734692,1346.224128,22.638273852264867,65.95009710922461,1406.580230558966,2142.26823401833,2131.1971827616576,98.0,1514.8123953948912,1676.188412254906,0.9037244168494624,938.6758080000001,715.1815680000001,20.087482432291363,74.52808344127425,560.0127792269479,719.6005535836324,717.659024140347,176.0,508.83443118458007,705.5298623130797,0.7212089216413411,899.3777747027028,715.1815680000001,43.218522808869295,77.17453640942355,575.8559414415978,820.7493362482758,818.5241754308225,185.0,580.3574213155136,703.4292873837295,0.8250401735106053,893.5832614331553,715.1815680000001,21.28673511481622,76.57463844232024,478.31700899543256,612.0925017895132,610.5496197583424,187.0,432.81475872880384,603.2495457950524,0.7174721667769776,truth
1783423177343688365,1783423187343688365,1489.6428916363639,1346.224128,89.13820329329292,71.51758194430862,1143.0981754572156,1504.302330744322,1497.461616317167,110.0,1063.7023790240387,1430.949161185166,0.7433544166887385,1724.8496640000003,1367.25888,34.78564030957773,63.48064547171316,1352.561154543161,1946.5492201772577,1936.308770404679,96.0,1376.4181535007249,1646.6875498755323,0.8358708691304333,971.0228539534884,715.1815680000001,83.89477957015804,73.86428415195404,629.004354723409,825.6650447786694,823.2472795741668,172.0,583.8333521516915,787.9481359706892,0.7409540368192576,907.6952765217392,715.1815680000001,83.89477957015804,77.50828340115818,615.0381407104569,879.0290551398333,876.6240765213026,184.0,621.5674057493798,750.5803148978425,0.8281157837638974,917.6699498901099,715.1815680000001,83.89477957015804,75.80455576690473,504.9662082755573,664.5561412629696,662.7178081665677,182.0,469.912153966211,632.1178899365252,0.7433932205484609,truth
1783423178343688365,1783423188343688365,1486.5799068318586,1304.1546240000002,29.10635209576912,72.31238647721129,1160.6425714068573,1547.177157812475,1540.278858821458,113.0,1094.0194599861302,1447.668148337067,0.7557114945457823,1696.3783835151519,1346.224128,34.78564030957773,62.39167122235167,1215.1034646484554,1715.4614352376748,1706.7352275830278,99.0,1213.0144137205673,1489.0436110653154,0.8146265191338037,969.3107229767443,715.1815680000001,13.582964311358923,74.51645226383836,664.5134284293985,851.2845167923244,849.0677927069884,172.0,601.949054542966,837.8453681875917,0.7184488658630276,911.0461440000001,715.1815680000001,21.609261404434648,77.7145615595299,628.4894277093401,878.9033530461079,876.5586373534413,183.0,621.4785209464972,772.5801870912203,0.8044194393417933,911.8210473707867,715.1815680000001,89.13820329329292,76.1894318776735,507.1372799486189,660.7557259671017,658.886583405813,178.0,467.2248545391778,636.574354712621,0.7339674479191116,truth
1783423179343688365,1783423189343688365,1437.313749704348,1009.6680960000002,57.04845010770747,74.25839001615444,1145.1184992004105,1547.739590191274,1541.069971076193,115.0,1094.417159735138,1422.5745304414238,0.7693214916448288,1629.9870569411764,1346.224128,178.27640658658584,65.37480635526613,1201.2887208266266,1682.040969753197,1673.7065889398973,102.0,1189.3825759460822,1476.1008521061412,0.8057596974143321,951.8225279999999,715.1815680000001,83.89477957015804,75.65283015262543,662.0168150403537,885.5180619386565,882.9843856099103,176.0,626.1558264599932,824.9224007671564,0.759048155169122,892.0084671657753,715.1815680000001,83.89477957015804,78.04390660458004,585.3777581540887,816.683887713424,814.4855421708103,187.0,577.4827150879551,720.1326935852417,0.801911536904273,937.1100188764048,715.1815680000001,83.89477957015804,76.01615978945269,609.2964918958143,838.9004714836025,836.5273395113951,178.0,593.1922121266473,752.6924536683223,0.7880937416545967,truth
1783423180343688365,1783423190343688365,1423.2327115932208,1009.6680960000002,95.08075017951246,74.90714840753613,1133.5677644107514,1561.3599806496297,1554.685200246049,118.0,1104.0482301906497,1400.1751696587198,0.7885072197500486,1615.226244923077,1346.224128,29.10635209576912,65.61165583081889,1187.786648471816,1628.8159509488623,1620.9762955882443,104.0,1151.7468042207556,1469.1541423756248,0.7839523239939813,962.7350655260117,715.1815680000001,95.08075017951246,75.95954515720888,712.4837425914012,955.1961601406873,952.4267171226654,173.0,675.4256821988314,887.223895545663,0.7612798591086516,882.1169402553193,715.1815680000001,95.08075017951246,78.20328512852004,553.9944173691538,757.5147685128198,755.4867468672088,188.0,535.6438296643728,685.8297695664854,0.781015717650977,921.3221376000001,715.1815680000001,95.08075017951246,76.68612404420804,596.4812578500473,812.1909455744333,809.9192147402515,180.0,574.3057252339959,739.3688179213918,0.7767513469780313,truth
1783423181343688365,1783423191343688365,1480.6231629026547,1051.7376000000002,89.13820329329292,70.2746948448317,1151.117189154994,1572.2419452609302,1565.2072703987048,113.0,1111.7429411599323,1425.536875260237,0.7798766629288209,1605.1133833846156,1346.224128,17.827640658658584,67.66513764464712,1192.0516431677563,1632.1563581344717,1624.2961110432193,104.0,1154.1088287936243,1475.1239424564296,0.7823809210714596,956.2349903448276,715.1815680000001,83.89477957015804,76.65072805789644,720.7054041076904,977.1331686870687,974.3049915001075,174.0,690.937489700925,894.5027957938145,0.7724263053731003,866.5879600000002,715.1815680000001,28.524225053853733,78.35416695351353,475.8464469017043,629.9884542851627,628.3791451739577,192.0,445.4691080942698,594.6749691426409,0.7490967859913708,896.7206233043479,715.1815680000001,83.89477957015804,77.47221118938103,553.0295110358287,756.0558479545845,753.987291826605,184.0,534.612217044432,684.6737681892554,0.7808276611185375,truth
1783423182343688365,1783423192343688365,1463.4177462857147,1346.224128,44.56910164664646,70.4681516268269,1123.014893767077,1559.1102120902954,1552.145342211497,112.0,1102.457403586244,1383.6974885733864,0.7967474196422043,1646.5420723960399,1346.224128,59.425468862195274,65.51500708708515,1240.216251627011,1722.7812761970051,1714.1606461549493,101.0,1218.1903229001168,1527.834699892551,0.7973312315696124,948.8476130742857,715.1815680000001,83.89477957015804,76.88741057031618,697.4194842601364,956.9404547196941,954.1867860564374,175.0,676.6590847240341,862.4697766191958,0.7845597643739785,878.5626046984128,715.1815680000001,83.89477957015804,77.5623206693308,472.6418831096469,613.1433546452414,611.5106437369315,189.0,433.55782390911844,593.9650713657,0.7299382485778865,907.367936,715.1815680000001,83.89477957015804,77.47123275807397,590.6785966559033,806.4389703221397,804.2205598743111,183.0,570.2384645278819,731.5848931472112,0.7794563144610166,truth
1783423183343688365,1783423193343688365,1478.993938788991,1346.224128,11.142275411661615,69.03120425627722,1149.2465199934506,1535.7199568591261,1528.9112220365298,109.0,1085.9179954986005,1432.4545999647821,0.7580819633133913,1689.6486504489797,1346.224128,44.56910164664646,66.7476325399458,1299.0548146829376,1751.3457544243258,1742.2948113828659,98.0,1238.3884591557107,1615.0182151346824,0.7667953510062653,941.2160216949153,715.1815680000001,83.89477957015804,76.74506807385153,668.0689574302135,906.7403789356432,904.160742473944,177.0,641.162270721053,828.9075551988269,0.7735027467173463,876.8170307368422,715.1815680000001,83.89477957015804,77.20670029188311,439.9881764620077,585.6711263346031,584.1196769169898,190.0,414.13202497636104,549.0232452248401,0.7543069051780541,895.6733109677422,715.1815680000001,83.89477957015804,77.64807141596077,562.0974780524261,793.1233093406445,790.9768282483609,186.0,560.8228703518855,688.9455738379712,0.8140307328308374,truth
1783423184343688365,1783423194343688365,1432.9018129655174,1325.1893760000003,59.425468862195274,69.16200068678563,1061.5947710294886,1484.4026518054468,1478.0034965715724,116.0,1049.631181102925,1305.03030906663,0.8042964012488193,1629.9870569411764,1346.224128,29.712734431097637,68.79688555121987,1323.0595449260913,1856.1480821331436,1847.0115209215987,102.0,1312.4948957627505,1624.7004933643723,0.8078380606907323,943.4564334545456,715.1815680000001,44.56910164664646,76.3851342700391,666.3396600352197,926.8059922003348,924.1621856324572,176.0,655.3508019291833,820.533209734434,0.7986889429390529,870.6173143578948,715.1815680000001,44.56910164664646,76.85641285241354,409.14311080682967,553.1122140481865,551.6515042987163,190.0,391.10939731057783,508.244911345955,0.769529391400744,893.0104984216216,715.1815680000001,83.89477957015804,77.67739678757418,554.8695637021349,795.580089488774,793.5112988752539,185.0,562.5600762545124,676.4048682174409,0.8316913474278377,truth
1783423185343688365,1783423195343688365,1433.2644811034484,1346.224128,59.425468862195274,66.97837389898977,1015.5456597751768,1424.9137520922047,1418.7170221489862,116.0,1007.5661767103651,1247.0249291618138,0.8079759699652511,1658.7404434285716,1346.224128,29.712734431097637,67.15413117440171,1533.9780299583479,2171.928213184398,2160.742877443446,98.0,1535.7851677930691,1877.993384435418,0.817779860419888,879.1851424171123,715.1815680000001,83.89477957015804,78.228381561232,541.2289129088924,740.1672591441929,738.1750192791044,187.0,523.3772881531195,669.996701081301,0.7811639778351834,874.5559852698414,715.1815680000001,89.13820329329292,76.15512562295588,379.4145662029883,530.3691547932011,528.9567651189603,189.0,375.02762588645027,466.46325257729563,0.8039810720659202,884.134495828877,715.1815680000001,44.56910164664646,77.61321044474477,521.9498932055004,757.2004005219984,755.1623078155178,187.0,535.4215379262748,633.6602168329632,0.8449663142848295,truth
1783423186343688365,1783423196343688365,1411.824032542373,1346.224128,19.80848962073176,68.95444762431723,943.4892089379805,1308.687846336164,1303.1625337775035,118.0,925.38205060072,1162.831804251086,0.7958004306536027,1678.794628042105,1346.224128,17.827640658658584,67.66836279995225,1503.5232055974766,2176.3076332257333,2164.7124201931433,95.0,1538.8818854019617,1826.7690962272914,0.8424063493191971,901.0647568695653,715.1815680000001,89.13820329329292,77.3192267475873,571.1563646271773,777.9827354573979,775.8542217909832,184.0,550.1168678879859,707.9017598091011,0.7771090554095178,886.6091725347594,715.1815680000001,89.13820329329292,75.48968562839534,387.4806283705592,566.240729153713,564.7165705286055,187.0,400.3926593686057,469.17516333108966,0.8533969627161504,891.3758885161291,715.1815680000001,31.69358339317082,77.19195940700669,525.3970823282948,760.3765588921771,758.3493886685272,186.0,537.6674210479506,638.3894269252843,0.842224821356382,truth
1783423187343688365,1783423197343688365,1506.5430486486487,1346.224128,15.01275002834407,68.29443821801613,1099.4193332676741,1505.4219004088452,1498.8094450797298,111.0,1064.4940343258338,1360.4675542503132,0.7824472042719344,1753.191224589474,1346.224128,59.425468862195274,70.53199382743671,1853.613965903573,2560.4852637851786,2546.867034358181,95.0,1810.5364931507256,2287.5201141564376,0.7914844035451868,917.3941010386742,715.1815680000001,38.546250072775315,76.3330536625023,580.3985104918761,782.3188308308986,780.1596407560372,181.0,553.1829503304599,721.6087400345293,0.7665967991241207,895.4471308387098,715.1815680000001,83.89477957015804,75.34382945686383,411.9619307307328,578.8253609462006,577.2590274653146,186.0,409.2913378478094,505.63382513847046,0.8094619416248959,899.2921930322582,715.1815680000001,83.89477957015804,76.92484857636195,536.0257188946529,766.1035318278999,764.0301761133044,186.0,541.7170024464721,654.15478845856,0.8281174608886765,deceptive
1783423188343688365,1783423198343688365,1496.0967360000002,1346.224128,17.827640658658584,69.61358752324989,1077.6497725848735,1521.3772437248042,1514.617946515672,112.0,1075.7761657807077,1320.6100428489626,0.8146054708624866,1675.5561037575758,1051.7376000000002,35.65528131731717,74.96768885865876,1851.1951544276053,2565.945099954497,2552.8407649439037,99.0,1814.3971803302184,2282.066702696783,0.7950675491588802,914.264576,715.1815680000001,43.218522808869295,75.98527543450689,550.6238095078721,732.52369282012,730.5178552623037,183.0,517.9724705729184,687.1865969721881,0.7537581100317674,880.5811442526316,715.1815680000001,83.89477957015804,76.02210289022369,389.72960223248054,540.7408666809906,539.3084380278276,190.0,382.3615336948193,480.28965686119847,0.7961061168663061,866.893354445596,715.1815680000001,83.89477957015804,77.64200474905364,449.2006517588445,628.6518903887956,627.0126388623337,193.0,444.5240146996595,552.0522178732641,0.8052209561119994,deceptive
1783423189343688365,1783423199343688365,1519.133649027523,1388.2936320000001,57.04845010770747,66.58283269943688,1065.3046014262447,1494.0076250657942,1487.0895818210977,109.0,1056.422922828432,1308.3321794182,0.8074577232352498,1717.0429519175257,1346.224128,35.65528131731717,74.45688740268952,1873.9269562097534,2597.7430907583584,2584.187272126027,97.0,1836.8817552557364,2310.0080482594435,0.7951841365400434,934.4600441564247,715.1815680000001,83.89477957015804,75.07703410446004,565.6352438281777,756.3261929181108,754.1986888642053,179.0,534.8033798014011,704.8965389315111,0.758697695710155,899.2921930322582,715.1815680000001,83.89477957015804,75.19239941590251,410.07378510637733,570.5910908780494,569.0468631727592,186.0,403.4688296444983,504.90342662294546,0.7991009931208152,889.7252548085107,715.1815680000001,83.89477957015804,76.92460650110732,524.2923608146763,697.4391817903287,695.5718713931637,188.0,493.1639749091387,654.3390605360211,0.7536826160204297,deceptive
1783423190343688365,1783423200343688365,1531.0983703486238,1346.224128,178.27640658658584,66.64215400090538,1087.7679361904472,1508.0703024051313,1501.1887037254405,109.0,1066.3667373367157,1340.8613488198448,0.7952848654152611,1649.4577805940594,1346.224128,178.27640658658584,76.91278700194721,1842.7433647712546,2487.4216398560193,2474.9636156411043,101.0,1758.8727092123534,2290.1068999527006,0.7680308326430879,905.5176482594595,715.1815680000001,83.89477957015804,76.15567243699535,509.23653699203356,677.2516867108484,675.4088215623561,185.0,478.88926024326815,635.5912518490993,0.7534547696338731,892.0084671657755,715.1815680000001,83.89477957015804,75.90036472537675,421.6921955604919,557.7082964598379,556.3220176577769,187.0,394.35931835074877,527.1517614579531,0.7480944714289907,882.5692241269842,715.1815680000001,83.89477957015804,77.52149150079286,526.1275563763695,696.5576187331857,694.7026378484294,189.0,492.5406156933893,657.5121916005271,0.7490973125447892,deceptive
1783423191343688365,1783423201343688365,1566.0077984299062,1388.2936320000001,29.712734431097637,66.41139532245383,1136.1016092186464,1567.6079353335285,1560.225111804746,107.0,1108.466201316181,1402.5352306477846,0.7903303796541475,1589.4259273142861,1346.224128,25.468058083797978,78.71469876191836,1781.2691330741686,2426.6976920070238,2415.0113681079465,105.0,1715.9343939079104,2207.628598018142,0.7772749435518089,877.7027045052633,715.1815680000001,83.89477957015804,77.15561331298963,465.01977465413637,590.9834214450509,589.4180678171726,190.0,417.88838487262285,587.5129194605365,0.7112837369709835,876.595612294737,715.1815680000001,83.89477957015804,76.61936941512636,398.96487549289304,533.6417371537157,532.2385869458551,190.0,377.3416910655615,497.1444134715892,0.7590182668061417,872.0061064712044,715.1815680000001,83.89477957015804,78.09672517189813,513.5767309321509,691.8940966678266,690.0789131710112,191.0,489.24300761676085,638.6256782019988,0.7660872782224898,deceptive
1783423192343688365,1783423202343688365,1541.7694151111111,1346.224128,59.425468862195274,67.22021339338663,1138.680908037801,1568.2094488721257,1560.9117522329102,108.0,1108.8915356182983,1406.5447741812657,0.7883798340253847,1601.4727532307695,1325.1893760000003,44.56910164664646,77.50024521564282,1794.1935317266873,2466.645308227344,2454.6420968094503,104.0,1744.1816242295365,2217.4706513119345,0.7865635665561647,884.127353904762,715.1815680000001,83.89477957015804,76.80161652908949,469.2186684801087,594.4194378443702,592.8364694432714,189.0,420.31801536884973,593.2947839638302,0.708447177911603,870.3128640000001,715.1815680000001,52.82263898861803,77.1300391459686,408.6194768691315,542.1528749580451,540.7353976822833,192.0,383.3599743226161,510.3501923163025,0.7511704317826905,888.8301589787236,715.1815680000001,83.89477957015804,77.42099373310366,536.7543721295207,733.6170879174498,731.6529500699563,188.0,518.7456176607564,664.5765599832664,0.780565624634456,deceptive
1783423193343688365,1783423203343688365,1506.5430486486487,1346.224128,178.27640658658584,68.29263352667232,1073.7282538853462,1507.3571875355674,1500.794076978587,111.0,1065.8624889766822,1318.2387127070594,0.8085504383253077,1587.61322376699,1346.224128,34.78564030957773,75.32496758151285,1716.1559357818678,2383.0195071820635,2371.3121721129505,103.0,1685.0492532282617,2114.399890970513,0.7969397181792426,884.7951238095238,715.1815680000001,83.89477957015804,76.7174637925251,466.7530068806534,592.1782007796226,590.6011588298414,189.0,418.73322144212,589.9559165688694,0.7097703568724844,881.0110943492064,715.1815680000001,83.89477957015804,76.52851177599094,412.31355989870906,549.105378156281,547.6432272003705,189.0,388.2761364803098,514.417888756461,0.7547873916650086,930.2295912402235,715.1815680000001,83.89477957015804,76.76823700086989,683.9249197769458,902.0685492101516,899.5312041063878,179.0,637.8587882416091,855.6136247835681,0.7454986336887269,deceptive
1783423194343688365,1783423204343688365,1503.1001288971966,1346.224128,44.56910164664646,69.7238440447181,1077.6068458912844,1540.5347843208613,1533.3034894841771,107.0,1089.3225926470366,1314.9757310300042,0.8283974882135533,1573.0694927058823,1346.224128,35.65528131731717,76.46717568273083,1542.874615783204,2091.598145326565,2081.2273199151446,102.0,1478.98323207762,1915.000903308653,0.7723146393937981,879.6755545396826,715.1815680000001,83.89477957015804,76.9663312367845,459.3902508743641,570.5905404068321,569.0808882288239,189.0,403.46844040256775,583.6826312272639,0.6912462677777925,898.69556652973,715.1815680000001,83.89477957015804,76.35983755547326,479.1117143404347,650.6372694898523,648.8758880983585,185.0,460.0700253489738,594.3600386332831,0.7740594848989073,906.2184960000002,715.1815680000001,83.89477957015804,77.50475473714191,656.4318463386869,863.222372231251,860.8476156762534,183.0,610.3903930766556,821.8986079773453,0.7426589936425351,deceptive
1783423195343688365,1783423205343688365,1512.2281167567567,1346.224128,89.13820329329292,73.8488776519785,1167.6134046263762,1636.8651851858,1629.4337546856723,111.0,1157.4384723330531,1434.1583652819027,0.8070506719148435,1583.956513811321,1346.224128,17.827640658658584,76.13836071286416,1530.6434099457024,2066.1584706895496,2056.3585358658106,106.0,1460.994665630607,1902.231791953828,0.7680423972569527,880.5811442526318,715.1815680000001,83.89477957015804,76.35201107090947,420.7852964078999,535.4033189948685,534.0214004089762,190.0,378.58731753105576,531.4662292643702,0.7123450121281986,905.4088904347828,715.1815680000001,43.218522808869295,75.87830451456465,482.07870363349906,648.8459637052666,647.0766124846333,184.0,458.80338088151456,599.6244506687132,0.7651512215184819,886.1448714893618,715.1815680000001,43.218522808869295,78.18166257279637,634.3352934113205,830.7788193207841,828.5589059816471,188.0,587.4493368078801,795.1189642289028,0.7388194260686282,deceptive
1783423196343688365,1783423206343688365,1504.9408930909092,1346.224128,57.04845010770747,71.47991783592772,1073.6654987920683,1517.7695404594622,1510.8955680326947,110.0,1073.2251343372757,1315.1460421208778,0.816050157141889,1467.5927855575223,1346.224128,59.425468862195274,77.95786387815048,1228.4927044907965,1711.6727921018178,1704.0235773176726,113.0,1210.3354384677068,1511.9301284017113,0.8005233943893785,862.2079788865981,715.1815680000001,83.89477957015804,76.87316519100227,372.8596827813817,498.43929875200905,497.14632822452614,194.0,352.44980815741303,464.6915670125364,0.7584596605083317,904.1532319135137,715.1815680000001,83.89477957015804,75.77156087247843,474.75042654164207,638.2732578496395,636.5364566497514,185.0,451.3273488755099,590.7010640598543,0.764053725878811,894.4831438716578,715.1815680000001,83.89477957015804,78.1180510904476,659.0419289453371,874.0042587042226,871.6516184779933,187.0,618.0143381156774,823.2263766168466,0.7507222261943136,deceptive
1783423197343688365,1783423207343688365,1458.7785027368423,1346.224128,54.85427894971871,70.51556231645986,995.69554597367,1403.0416822334469,1396.8358122076193,114.0,992.1002877946514,1220.9372424586345,0.812572713235311,1427.8023835826089,1346.224128,22.28455082332323,76.9558220218592,1102.5759912135295,1530.4065197241746,1523.7509263946838,115.0,1082.1608280690677,1358.6064933958723,0.7965226379598545,845.661095634518,715.1815680000001,19.80848962073176,77.76603011197378,353.2587265225278,461.87129849380324,460.84832647707634,197.0,326.59232720040427,443.00359099622233,0.73722275358077,889.3402673548387,715.1815680000001,79.23395848292704,75.76901066755569,431.8531390330784,598.7210230369423,597.1034368290949,186.0,423.359695428369,532.3321815641489,0.7952923195145057,890.8836141176471,715.1815680000001,64.82778421330394,77.88869777861707,606.399126460857,818.5346658038089,816.3351297215645,187.0,578.7914128261377,753.6179744169739,0.7680169959771882,deceptive
1783423198343688365,1783423208343688365,1466.8971789473685,1346.224128,57.04845010770747,68.8310155133888,985.0844250267437,1380.8276266394846,1374.706007208447,114.0,976.3925784465058,1210.0047170312323,0.8069328695197999,1399.6064397983196,1346.224128,44.56910164664646,78.77693623639796,1111.1757338182335,1512.1022734133833,1505.6922334909239,119.0,1069.2177713781982,1377.6101413453296,0.7761395907945586,812.4544699317074,715.1815680000001,83.89477957015804,79.25081557493885,291.4663639061548,407.14632512937374,406.1524270375328,205.0,287.895927434163,358.41770333057167,0.8032413710564797,890.6586435080216,715.1815680000001,83.89477957015804,75.48290513125903,414.5033025228804,577.2422763577263,575.688636255043,187.0,408.1719280001073,510.21937850407704,0.7999929935958826,895.4471308387098,715.1815680000001,44.56910164664646,77.7051703435667,610.6163779669208,828.2054361179163,825.9730568030211,186.0,585.6296800945406,757.7754687102678,0.772827445960056,deceptive
1783423199343688365,1783423209343688365,1397.6424106666666,1346.224128,59.425468862195274,73.03001979843363,957.3758661822203,1297.3659971082038,1291.7650563955065,117.0,917.3762942360578,1188.4222589985313,0.7719278962421314,1414.9016943589745,1346.224128,34.78564030957773,78.8545462803185,1119.5820236343275,1552.4199749831223,1545.7174720439968,117.0,1097.7266915600162,1380.0093733770877,0.7954487213907222,807.4894117281555,715.1815680000001,83.89477957015804,79.4540963546806,279.64831394196517,397.47246503480574,396.5020472837224,206.0,281.05547536104405,341.92143668678716,0.8219884605202492,889.5337904598931,715.1815680000001,83.89477957015804,75.39528609748974,408.6842047310909,556.0369101286083,554.5403573009514,187.0,393.1774697419538,506.7063222785225,0.7759474323784635,904.0370587826088,715.1815680000001,83.89477957015804,77.3771510427464,611.3241079009649,845.4944329953239,843.1812997527276,184.0,597.8548470264685,754.1346834255139,0.7927693290949385,deceptive
1783423200343688365,1783423210343688365,1362.2174931570248,1346.224128,44.56910164664646,73.77365319132848,902.6050433320704,1295.7137876633728,1290.306733693357,121.0,916.2080057336773,1099.8514325179272,0.8330288788515475,1552.205944754717,1346.224128,83.89477957015804,74.45001413562086,1364.7886232344201,1818.3382264521827,1809.6687376999816,106.0,1285.7592904150583,1702.559101992025,0.755192162733556,819.6299917241381,715.1815680000001,28.524225053853733,78.81436667829713,297.36863994755856,417.59576026823646,416.6245964228765,203.0,295.28479388042183,365.047478144994,0.8088942166671729,905.4088904347826,715.1815680000001,75.06375014172035,74.42990957347268,423.23811094741285,592.5279376451293,590.9075066285496,184.0,418.9805227513508,520.0852409886013,0.8055997166059431,912.9779652596685,715.1815680000001,79.23395848292704,76.652406598997,609.9666196201905,842.5174455078813,840.1738597567421,181.0,595.7497989865905,752.7679872347674,0.7914122400117325,deceptive
1783423201343688365,1783423211343688365,1334.6889414193552,1346.224128,35.65528131731717,75.32578415650543,891.5956032135687,1272.7756126879676,1267.5911690913952,124.0,899.9882666605247,1088.529282691204,0.8267928855670804,1556.1784750654203,1346.224128,89.13820329329292,72.7497288110613,1346.9122365993662,1784.9833299120032,1776.5691801782436,107.0,1262.1738168857219,1682.7964149552608,0.750045463413516,842.8849354720812,715.1815680000001,64.82778421330394,77.62390101813979,328.2537151405343,458.4875461278303,457.3176986314905,197.0,324.1996529565688,403.66854660543754,0.8031333025147859,996.8205229221556,715.1815680000001,83.89477957015804,71.5364622888156,565.491888186072,722.6340793528816,720.4543610403596,167.0,510.9794578269202,713.4508729043305,0.7162083294492507,953.2511889017342,715.1815680000001,83.89477957015804,76.0948989292806,717.9736435655625,993.4543217860443,990.5621633296316,173.0,702.4782877339943,885.5701176873441,0.7932497649858693,deceptive
1783423202343688365,1783423212343688365,1353.4067262439025,1346.224128,178.27640658658584,75.7829868035711,912.946649276696,1284.2018687235575,1278.995043426546,123.0,908.067849786864,1120.1114047017038,0.8106942273556182,1554.5294390679612,1346.224128,44.56910164664646,74.18115866165206,1301.9758687544547,1745.3138698920739,1736.7844009442615,103.0,1234.123272699621,1621.3427150138314,0.7611736009120644,883.0096427807488,715.1815680000001,83.89477957015804,76.45200219573458,437.95996219807205,579.5497517439915,577.989766919277,187.0,409.80355949315646,547.4014781588035,0.7486343677250187,984.0281024378698,715.1815680000001,83.89477957015804,72.05401995391671,556.7943038676469,715.3148772836732,713.1828304315721,169.0,505.80400041090843,701.5133286139871,0.7210183752463395,946.6854281618498,715.1815680000001,83.89477957015804,75.98876457547084,698.669956905351,960.0872049687468,957.2921853409175,173.0,678.8841731638397,863.6188725809985,0.7860923316033339,deceptive
1783423203343688365,1783423213343688365,1370.362368,1346.224128,25.931113685321577,76.2054524649529,944.0385113277802,1304.0450809237261,1298.6699055348445,122.0,922.0991196941268,1165.025333831673,0.7914841788559381,1567.6843471698116,1346.224128,20.087482432291363,71.96042058449272,1246.9333111713092,1781.288240384984,1772.885634975655,106.0,1259.560994024075,1521.98502495387,0.8275777838630516,888.8879070967743,715.1815680000001,44.56910164664646,76.51061877106642,463.54845278384437,604.7774533288376,603.1530938467711,186.0,427.64223835755183,581.6488581118881,0.7352240658491742,973.0428807529412,715.1815680000001,29.10635209576912,72.4270449903111,542.4057454563041,660.8534276673615,658.9529404019426,170.0,467.2939400739649,692.2616356502018,0.6750250425694361,943.4564334545455,715.1815680000001,29.10635209576912,75.73890829215925,641.8326088185703,897.5737598184576,895.0429101574266,176.0,634.6804921827369,788.9794242608885,0.8044322483787228,deceptive
1783423204343688365,1783423214343688365,1429.2844307692308,1346.224128,178.27640658658584,75.44752015521335,1166.1843699159483,1445.2953877318478,1439.1574699189175,117.0,1021.97816948283,1482.4817974676037,0.6893697927546818,1528.26319671028,1346.224128,178.27640658658584,71.9493247983983,1233.4192237410468,1842.5544718533704,1833.867318775192,107.0,1302.8827617531158,1481.1800084902645,0.8796248628018661,898.3874725161292,715.1815680000001,83.89477957015804,76.0031300020224,466.6100776303218,604.2806834807136,602.6453223484068,186.0,427.2909690292543,586.6524891154646,0.7283544806457902,944.0681914576272,715.1815680000001,83.89477957015804,73.00390107017974,456.5694019381795,586.7929585032658,585.1360571356812,177.0,414.9252801101756,575.1780103021324,0.7213858539067263,954.857542217143,715.1815680000001,83.89477957015804,75.18427229287646,644.2580116377815,909.2196571900002,906.6032245597564,175.0,642.9153851871572,789.5990595636245,0.8142301810015672,deceptive
1783423205343688365,1783423215343688365,1481.0719131428575,1346.224128,59.425468862195274,69.80228655817191,1161.6737541620714,1431.3606645573623,1424.901732583767,112.0,1012.1248322321941,1478.7743182133904,0.6844349538440809,1529.6939093333335,1346.224128,59.425468862195274,70.68812744059117,1216.0225564433706,1866.539448037902,1857.7968680526415,108.0,1319.842701059796,1444.4477622218576,0.9137351558007238,885.0600542608696,715.1815680000001,83.89477957015804,76.78972727359138,460.91897708091767,589.699083464074,588.0856766554849,184.0,416.9802207769386,581.3401367590636,0.717274095509005,931.8153357241382,715.1815680000001,83.89477957015804,73.8923007426787,459.0256915611723,604.1467834418104,602.4030721589087,174.0,427.19628740374475,574.5962382757597,0.7434721269419886,963.6156803786982,715.1815680000001,83.89477957015804,74.98064283351137,657.7274119766021,932.8173250956758,930.0369394026355,169.0,659.6014561834486,804.7817445936598,0.8196029055262507,deceptive
1783423206343688365,1783423216343688365,1511.0600936727274,1346.224128,178.27640658658584,70.73712412479928,1207.462363760387,1527.7677638301802,1520.7717177463157,110.0,1080.2949458825283,1527.2236688664746,0.7073586979465407,1547.3564233142858,1346.224128,29.712734431097637,74.375185182041,1351.1323187684802,1955.3466517924694,1945.9266452129548,105.0,1382.638877052866,1641.7283433846096,0.8421849343250046,909.9563986740334,715.1815680000001,41.94738978507902,76.33170531809746,544.8880429240081,716.46752026599,714.4800655575227,181.0,506.6190420799917,682.256939681882,0.7425634135963709,992.6399634285715,715.1815680000001,41.94738978507902,71.71895343565245,532.9823391122467,706.956193953359,704.8526317148321,168.0,499.8935187462523,665.7278592404474,0.7508977006258963,1001.6068736766468,715.1815680000001,41.94738978507902,74.68450698518407,790.7369949774613,1144.7300431576552,1141.2796664808477,167.0,809.4463761447473,960.6915595158728,0.8425663451781097,deceptive
1783423207343688365,1783423217343688365,1532.8101688888887,1346.224128,35.65528131731717,71.57131352062532,1258.177131545334,1556.3681311112102,1549.1047052072286,108.0,1100.5184595313704,1600.140290350393,0.6877637330726688,1603.1780592941182,1346.224128,13.713569737429678,72.67942995120399,1389.4342890784137,1945.464749951082,1936.1567754941377,102.0,1375.6513172498012,1707.2923047937975,0.8057503178496133,904.3806346378378,715.1815680000001,83.89477957015804,76.12984305509725,521.3705181447143,665.8312146285301,664.0194256521505,185.0,470.81376698950925,657.891809333077,0.7156401102892375,967.1122393526013,715.1815680000001,83.89477957015804,72.80035529317779,504.09950756223606,662.9953264468459,661.0652049526859,173.0,468.80849122555344,631.1433484767053,0.742792413731437,984.178925929412,715.1815680000001,40.748892934076764,74.80136528009056,759.0922725329782,1092.265408965725,1089.0382778651588,170.0,772.3482775351619,924.2192518730591,0.8356764652650228,deceptive
1783423208343688365,1783423218343688365,1554.5872374339622,1346.224128,178.27640658658584,70.22411005981726,1261.929948453825,1570.0039623984273,1562.5592323747417,106.0,1110.1604483016774,1602.718402940035,0.6926734267636743,1759.8337778526322,1346.224128,35.65528131731717,65.79393915129681,1462.4459805077577,2074.5198474190347,2063.5053617927233,95.0,1466.907051816081,1789.2982821409962,0.8198225340387876,910.1265920000002,715.1815680000001,83.89477957015804,75.85870289929377,528.2762292057226,691.6965580918104,689.7938302903951,183.0,489.10332675011387,662.2239172429671,0.7385769586613465,985.5216942958581,715.1815680000001,83.89477957015804,72.02827673139124,518.8842069569174,683.9358426566229,681.8974651333303,169.0,483.6156722390336,649.2607960142149,0.7448712061592663,989.7535378934913,715.1815680000001,83.89477957015804,74.38047769287974,752.0169358934868,1085.6769102114397,1082.4409062616776,169.0,767.6895053881674,914.5410627192706,0.8394259554683537,deceptive
1783423209343688365,1783423219343688365,1607.1400416969695,1346.224128,29.712734431097637,68.60376151475108,1303.07377084002,1661.1265807603918,1652.68680513215,99.0,1174.5938696648961,1645.0431985742136,0.7140200759973575,1636.1737487058824,1346.224128,83.89477957015804,68.25426427771791,1303.5687556871503,1745.8804514352985,1738.112386970277,102.0,1234.5239063509305,1623.7482452435506,0.7602926808187317,933.1348740338985,715.1815680000001,89.13820329329292,74.8637334582618,550.8810456390082,735.6683539610461,733.5754098794957,177.0,520.1960817902011,686.7589614513342,0.7574652985828766,994.2768140487805,715.1815680000001,89.13820329329292,72.14299223648129,590.5016573361127,801.2028398626592,798.7634397409533,164.0,566.5359611728059,732.7365945429464,0.7731781999044142,1000.9992285090909,715.1815680000001,89.13820329329292,73.90098363282681,766.3949632637399,1101.2762870434851,1097.9136035078868,165.0,778.7199305283912,933.552416488216,0.8341469817599908,deceptive
1783423210343688365,1783423220343688365,1703.3856313469385,1367.25888,43.218522808869295,66.46486580777166,1435.0273751487546,1843.1060369080033,1833.612935422928,98.0,1303.2727771435123,1808.133614816938,0.7207834456832772,1542.5484800000002,1325.1893760000003,57.04845010770747,70.35273031592499,1193.4308330772906,1724.5894590625894,1716.5153596005046,108.0,1219.4689012659967,1450.8625386650738,0.8405130525928526,934.4600441564246,715.1815680000001,83.89477957015804,74.87118029954904,551.5735537717286,741.6678878641603,739.5816168175442,179.0,524.4383928970517,686.2572086823765,0.7642009238838902,995.6449280000002,715.1815680000001,83.89477957015804,72.49463887408167,610.5251688841811,853.2056904757069,850.6473468140623,168.0,603.3075294823229,750.6610261077124,0.8037016822500578,1006.8634624,715.1815680000001,36.56951929981248,73.23416261616677,754.8692781836754,1089.2464300428924,1085.93514328626,165.0,770.2135370665675,918.1725371360166,0.8388549057119853,deceptive
1783423211343688365,1783423221343688365,1684.904882424243,1346.224128,44.56910164664646,64.2915105275825,1409.5990449284943,1809.6646292883906,1800.4327419056715,99.0,1279.6261310432606,1776.2931676112125,0.7203912925950857,1586.2206317714285,1346.224128,29.712734431097637,68.29415261478934,1201.206095558676,1757.7804004644518,1749.3121136186985,105.0,1242.938441005219,1453.734564475371,0.8549968277419167,890.3965766808511,715.1815680000001,83.89477957015804,75.93182715928887,459.7368458270891,620.6938839002263,619.0425150361883,188.0,438.89685434686567,571.3148960462123,0.7682223190472603,939.0768943728814,715.1815680000001,41.94738978507902,74.34250454805971,540.0448814613428,773.8002629477695,771.6095352377357,177.0,547.1594132143014,658.487081308876,0.8309341652181111,911.735808,715.1815680000001,83.89477957015804,75.13702953786722,479.040589523101,662.8061677635947,660.9829252431343,183.0,468.6747358379062,590.8737333939584,0.7931893217622903,deceptive
1783423212343688365,1783423222343688365,1738.4346080000003,1346.224128,178.27640658658584,62.78294513120684,1474.0638407878075,1907.5826782302272,1897.545972596867,96.0,1348.8646474505895,1853.6478885875829,0.7276811608910141,1588.5282904615387,1346.224128,29.712734431097637,67.2811085015309,1177.2237536517728,1659.6503543084712,1651.6549545690991,104.0,1173.5500199301762,1443.2954332654424,0.8131045057594551,854.6977802448979,715.1815680000001,79.23395848292704,77.53262287388665,380.2447788743698,506.53884144075903,505.2384005261797,196.0,358.17704971713806,474.36988126397756,0.755058581634148,930.699641564246,715.1815680000001,79.23395848292704,74.32998161301566,477.8311997513924,690.5093756899147,688.5702962373301,179.0,488.26386202322806,580.8997430131908,0.8405303460637626,885.2403037460319,715.1815680000001,79.23395848292704,76.03166751487103,409.5564949090933,554.9894805046773,553.5420537619437,189.0,392.43682515205654,508.399168151101,0.7719068986269872,deceptive
1783423213343688365,1783423223343688365,1706.6933517473683,1346.224128,11.885093772439058,63.13923878326909,1355.9324171296014,1917.2679197548528,1907.044991204877,95.0,1355.713147410082,1660.7607806711874,0.8163205460946507,1659.0379646732674,1346.224128,9.321642174462006,66.74070679451548,1290.7375756773968,1731.5922733828088,1723.0736217712129,101.0,1224.4206387592142,1606.9860074752878,0.7619360922021241,850.834254367347,715.1815680000001,64.82778421330394,77.7201423681449,368.5570585189584,524.2376923627918,522.893946201827,196.0,370.69202722331727,450.51339740880906,0.8228213175355148,947.5199650909093,715.1815680000001,64.82778421330394,73.22742777214621,511.4013430831586,750.956934120126,748.8101597953382,176.0,531.0067404954005,618.1250586966542,0.859060368164095,873.1074023874346,715.1815680000001,64.82778421330394,76.30970092535937,379.2085807110958,531.5320860293,530.1337377726112,191.0,375.84994244954936,465.79685030083937,0.8068967023001616,deceptive
1783423214343688365,1783423224343688365,1698.6635441632652,1346.224128,46.00681460298989,64.10320409738911,1476.3557426268026,2130.9657477145943,2119.956524626735,98.0,1506.820330685251,1795.5497216983633,0.8391972176966446,1582.6146742857145,1304.1546240000002,178.27640658658584,72.36315739864361,1318.2286114795832,1790.864701606361,1782.2339781111982,105.0,1266.3325746934809,1635.131263654961,0.7744531603309234,837.1619891457287,715.1815680000001,50.936116167595955,78.14199549059657,345.3385818028487,500.6538038772494,499.39556494642085,199.0,354.0156997484429,419.34939409639765,0.8442022445537712,921.5778086187848,715.1815680000001,28.524225053853733,74.15504017523736,460.67124258053167,643.7869369013614,642.0482621542048,181.0,455.2261087222687,566.4102598383726,0.8037038539029454,868.7790800000001,715.1815680000001,83.89477957015804,76.46792376525347,370.3440147292371,522.0329422116984,520.6647567704296,192.0,369.133033440657,454.0702371913272,0.8129425873053181,deceptive
1783423215343688365,1783423225343688365,1760.2766147368418,1346.224128,35.65528131731717,61.74828928184696,1503.3008129668444,2181.850497468721,2170.358591701613,95.0,1542.801282295375,1824.7489608730905,0.8454868671672997,1607.9449846153848,1346.224128,35.65528131731717,70.09186996136997,1306.7273346691782,1782.8738986100445,1774.2462035270237,104.0,1260.6822237076597,1618.7689210498772,0.7787907262823066,853.4099382857142,715.1815680000001,83.89477957015804,77.05525153418225,354.7015067107799,517.3468139616425,516.0185786148268,196.0,365.81944037753266,429.7841158613581,0.8511702198308803,940.9783408813561,715.1815680000001,83.89477957015804,73.39744988242369,490.6835730667948,686.6317624451187,684.6877132933142,177.0,485.5219754030141,603.0546770033134,0.8051044024990565,867.4644080000002,715.1815680000001,83.89477957015804,76.74247656173863,383.4194119592853,541.1675103038206,539.7491620453868,192.0,382.6632162936724,469.89926833556495,0.8143515899675855,deceptive
1783423216343688365,1783423226343688365,1749.205692631579,1346.224128,29.712734431097637,63.47046412729202,1504.2431524266133,2206.3206899008533,2194.600292583015,95.0,1560.104321301075,1818.9371007743964,0.8577010830318841,1595.4050363076926,1346.224128,41.94738978507902,67.38123969166112,1210.6303165363038,1628.844082295807,1620.9179925221229,104.0,1151.7666960869442,1505.9775116269382,0.7647967431085124,857.6540635051548,715.1815680000001,50.936116167595955,76.41686328551302,328.36401731365606,492.6098159325163,491.338929955504,194.0,348.32774132493927,393.67467285114896,0.8848111533368679,950.7707904000001,715.1815680000001,50.936116167595955,72.75824370002272,493.40143802780244,696.8527545521408,694.8534760038577,175.0,492.74930823234354,604.5568771539038,0.8150586435342178,874.9561736170214,715.1815680000001,83.89477957015804,75.99435484492388,367.0413029540796,533.579250745202,532.1507033641168,188.0,377.2975065023695,445.2661360826849,0.8473527985346414,deceptive
1783423217343688365,1783423227343688365,1731.8612480000002,1346.224128,11.055901183664238,64.71592207088871,1518.4415491057084,2200.8754274805497,2189.7549581776275,96.0,1556.2539393183383,1844.008219688612,0.8439517366040455,1445.361828730435,1051.7376000000002,44.56910164664646,73.19653440908836,1126.1746504580158,1527.0228338838929,1520.3134795457215,115.0,1079.7682008659997,1397.708482791662,0.7725274720443595,855.2686792577321,715.1815680000001,83.89477957015804,76.79945290074149,339.6059649434259,493.88758568299227,492.6064224725939,194.0,349.2312609802959,411.92619002360976,0.8478005755358248,957.6283627283239,715.1815680000001,54.85427894971871,72.24318718146822,491.83888630170026,690.0026359962761,687.9974120939174,173.0,487.90554294955984,603.9743957623876,0.8078248786253334,880.0850248556151,715.1815680000001,83.89477957015804,76.08443445494808,395.36714866313116,571.1947240309768,569.6571849728061,187.0,403.89566274028226,480.691700878872,0.8402384771815702,truth
1783423218343688365,1783423228343688365,1672.156547878788,1346.224128,178.27640658658584,67.21894559643029,1537.0191797897767,2154.8889568220993,2143.877437191459,99.0,1523.7365940729117,1887.8477994861814,0.807128940419683,1379.529152,1030.7028480000001,57.04845010770747,75.4885616366016,1084.1224518525596,1507.6724791242318,1501.335011802784,120.0,1066.085433797078,1335.0557685521824,0.7985325099588966,871.4397257142857,715.1815680000001,67.9148215567946,76.12852103912708,361.6687997837193,529.6630980752193,528.2532997272052,189.0,374.52836839326295,437.57615578129054,0.8559158524635421,946.56384,715.1815680000001,89.13820329329292,72.65658867321274,456.27781690610647,648.5969644342061,646.7082303854879,172.0,458.6273118084371,557.8614405324033,0.8221168886860855,886.4318859130435,715.1815680000001,83.89477957015804,75.78974794879436,401.28232302959464,579.480627069473,577.9083921548615,184.0,409.7546809670572,487.96060933731985,0.8397290132159007,truth
1783423219343688365,1783423229343688365,1671.3066589090909,1346.224128,15.01275002834407,65.09689549647447,1437.3260166026344,2002.4110179723389,1992.1713993011329,99.0,1415.9184095308985,1769.010934047989,0.800401163316093,1387.9401067563026,1009.6680960000002,57.04845010770747,79.16205969013399,1169.6852718814255,1682.5459671585143,1675.4197256920318,119.0,1189.7396630358635,1424.2847459733266,0.8353243032332135,864.0596572849742,715.1815680000001,83.89477957015804,76.42519229010617,347.9217098321251,496.93391276587784,495.65749726223265,193.0,351.38533951831647,424.69189294218654,0.8273888561516541,942.1667449491525,715.1815680000001,83.89477957015804,73.04573889831536,477.1892647882821,683.5631594564438,681.6186200073671,177.0,483.3521454209527,581.8973626137547,0.830648455338999,891.7834965561498,715.1815680000001,83.89477957015804,75.90171037459191,427.1557892541124,607.9477344411356,606.3114325659109,187.0,429.8839656303254,522.038336363892,0.8234720243431903,truth
1783423220343688365,1783423230343688365,1597.8321230769232,1346.224128,34.78564030957773,71.92691855995506,1449.5273898896419,2005.2365202123779,1995.4801251811884,104.0,1417.9163413250878,1788.0201152621842,0.7930091665200162,1461.6360416283187,1009.6680960000002,178.27640658658584,79.24604721498606,1247.689101822282,1758.8695453173266,1750.9998434475397,113.0,1243.7085827163812,1529.7224160778292,0.8130289323374233,879.8981445079365,715.1815680000001,83.89477957015804,75.53549552708165,361.6697638381306,523.4356904546669,522.041766058936,189.0,370.1249262355576,439.44715909767797,0.8422512663309497,944.8906210909091,715.1815680000001,83.89477957015804,72.48059619466586,435.4807282829225,612.7321095114602,610.9789855164619,176.0,433.2670296862917,534.2534697173787,0.8109765387494646,879.8981445079365,715.1815680000001,83.89477957015804,76.39730942496269,413.52515244393624,589.061387949501,587.4926890654614,189.0,416.5293019542517,505.23041645798935,0.824434334089398,truth
1783423221343688365,1783423231343688365,1716.609245690722,1346.224128,44.56910164664646,69.92700313031182,1524.9788906570734,2102.5952466665585,2091.6273141776246,97.0,1486.7593570085253,1883.0545772953994,0.7895466095007897,1478.875717189189,1009.6680960000002,178.27640658658584,80.05009632346766,1273.6357750972609,1797.8995357733475,1789.719067969104,111.0,1271.3069536374799,1560.82846271834,0.8145077976239431,885.0260017021278,715.1815680000001,83.89477957015804,75.47804804137934,370.58800584764873,537.9746561562848,536.5344817081948,188.0,380.4055274746102,449.7963511297703,0.8457283535518495,929.5245157541899,715.1815680000001,83.89477957015804,73.25425142030802,428.6947362236447,597.7860061699652,596.1046543707195,179.0,422.69853866120565,527.4668960594222,0.8013745351965864,875.7099385263159,715.1815680000001,83.89477957015804,76.9127479680559,417.2143882921077,592.9553871528439,591.3848092064629,190.0,419.28277519687055,510.13397143056494,0.8219071825800562,truth
1783423222343688365,1783423232343688365,1717.7642738526317,1346.224128,43.218522808869295,69.26353757289283,1472.2235899985126,1966.0188131906577,1955.5653128886001,95.0,1390.1852347474423,1835.3683838514046,0.7574420737433792,1444.5071933793104,1030.7028480000001,44.56910164664646,81.3518368719565,1254.538137608354,1791.9650979028524,1784.1593342178608,116.0,1267.1106723767225,1531.3220266822325,0.8274619252503334,881.4668180210526,715.1815680000001,83.89477957015804,75.38619291351523,356.79543247960953,514.5674255003956,513.2045236740444,190.0,363.85411594903337,434.06341982491097,0.8382510465770231,935.6351699664805,715.1815680000001,83.89477957015804,73.06427732451077,436.3416829710198,599.2895374368335,597.603955816492,179.0,423.7616958157343,539.4452161022938,0.7855509385690378,872.2848720000001,715.1815680000001,83.89477957015804,76.82521700109565,403.73980208520305,571.8324076472795,570.3336698010058,192.0,404.3465731496215,494.23029041801635,0.8181339367274073,truth
1783423223343688365,1783423233343688365,1678.4430977319591,1346.224128,16.206946053325986,67.8086736067137,1270.245994321457,1686.4847833988529,1677.6945546821553,97.0,1192.5248267092547,1586.1878958750267,0.7518181356764129,1348.5990193548384,1009.6680960000002,89.13820329329292,84.53801375198773,1108.2648974099325,1590.247830923023,1583.829306131736,124.0,1124.475025012868,1350.6591445376778,0.8325379719675824,867.983237968912,715.1815680000001,83.89477957015804,75.89125524677839,332.87786951309346,463.0247250217353,461.8174093007814,193.0,327.40792291990556,409.8992291134355,0.798752229000408,906.7807220869565,715.1815680000001,83.89477957015804,74.61936397692598,413.6878182585035,563.5422609695134,562.0004187888629,184.0,398.484554216742,512.7184919390985,0.777199497349268,851.9613912615384,715.1815680000001,83.89477957015804,77.72836235456278,378.8746806550581,533.7935740376797,532.4160399372435,195.0,377.4490559558468,464.60537272180204,0.8124078586190974,truth
1783423224343688365,1783423234343688365,1686.1797158787886,1346.224128,158.46791696585407,69.3598965471938,1296.8318181386512,1793.066141159506,1783.9217106652636,99.0,1267.889227529882,1599.9293679504851,0.7924657506312621,1359.2212105365857,1009.6680960000002,178.27640658658584,82.685873090763,1097.701151818738,1518.661529559019,1512.4844906854405,123.0,1073.8558658783168,1353.9986806004404,0.7930996398032735,871.3453289214661,715.1815680000001,83.89477957015804,76.07742636335009,352.1528475842393,499.1208431057358,497.81986518521074,191.0,352.9317327916126,430.9789462580879,0.8189071319049135,909.4369280000002,715.1815680000001,83.89477957015804,74.73082099025522,427.1777015736282,570.31067712646,568.7553064300319,183.0,403.27054717921146,532.5861529671469,0.7571930755850643,852.3367366530613,715.1815680000001,32.41389210665197,77.73395376222409,382.6638819241674,534.0643276003092,532.7299117624689,196.0,377.64050763601244,470.6985410586628,0.8022980202714234,truth
1783423225343688365,1783423235343688365,1710.1036522886602,1346.224128,29.712734431097637,69.12625876327003,1299.921595991276,1729.2849314823243,1720.3439667574385,97.0,1222.7891016548656,1622.3395815568504,0.7537195760713901,1412.5923972413796,1346.224128,29.712734431097637,78.30792135416175,1108.2343893041962,1537.7138650107938,1531.0163519698442,116.0,1087.3279014737077,1365.732748604675,0.7961498342809715,879.4740520421054,715.1815680000001,83.89477957015804,76.0155436110862,382.847220310726,520.7597903694104,519.3803395102093,190.0,368.23277913949505,474.70653922492056,0.7757061441385007,915.3584386813187,715.1815680000001,83.89477957015804,74.82649971023027,445.56604775405054,617.8553910868021,616.146288108118,182.0,436.88973683014416,549.2011332367891,0.7955004285138252,858.0021405538464,715.1815680000001,83.89477957015804,77.20083041008337,372.7562721871081,514.8700211971438,513.5415052943041,195.0,364.06808341816185,460.02357790418955,0.7914117904060721,truth
1783423226343688365,1783423236343688365,1655.85567744,1346.224128,178.27640658658584,70.47889479288705,1278.4459565534817,1687.6170337088413,1679.1056902796186,100.0,1193.325448581448,1599.0107299639476,0.7462898317188613,1538.6531555555557,1346.224128,6.174074686981328,75.59548044463139,1390.4449289795543,1794.062429905165,1787.6590159784216,108.0,1268.5937100579572,1749.8597659385766,0.7249687859286932,905.1802518260871,715.1815680000001,29.10635209576912,76.04706685292463,516.4248081865643,652.0786769840377,650.3415721726238,184.0,461.08925436256527,653.5193300712277,0.7055479970459492,912.7455370607735,715.1815680000001,83.89477957015804,75.505098337466,480.16080083480426,665.0433060529232,663.193555363267,181.0,470.25663149274254,592.0626145815918,0.7942684099807095,841.1776077575759,715.1815680000001,83.89477957015804,78.00096617059594,349.89225241757833,486.11726843475464,484.8820866414365,198.0,343.73681696209627,431.01238605877194,0.797510299194105,truth
1783423227343688365,1783423237343688365,1556.5716480000003,1346.224128,59.425468862195274,72.66933351543577,1154.9577721695994,1554.4225571567263,1547.2383901571939,107.0,1099.142730994855,1436.5923358561101,0.765104131186835,1598.6411520000001,1346.224128,178.27640658658584,78.95037151516334,1639.9429361242433,2340.908961421072,2329.6476356857415,105.0,1655.2726007611982,2002.2142682720641,0.8267210093301948,901.7506726956522,715.1815680000001,83.89477957015804,76.4877842237142,527.2597817749248,678.0881298041604,676.2441848175674,184.0,479.4807148266257,664.1196255264233,0.7219794392411741,921.7895765333333,715.1815680000001,83.89477957015804,75.0190312016316,483.4295293729115,663.7257426893041,661.8691635485563,180.0,469.3249735036845,597.7250658641582,0.7851853641525977,855.2686792577321,715.1815680000001,83.89477957015804,77.48384857112978,361.37428987332765,490.4930890458789,489.2347651423129,194.0,346.8309893894781,448.37137192561875,0.7735350896734206,truth
1783423228343688365,1783423238343688365,1568.0812292830192,1346.224128,178.27640658658584,74.04741793771343,1187.431271687016,1648.9668711751974,1641.0958626486529,106.0,1165.9956565599462,1462.9467230224616,0.7970185367728144,1607.9449846153848,1346.224128,62.00918489968203,79.44795934517109,1654.1910041861213,2387.638540937508,2376.0276917733836,104.0,1688.315403319266,2011.8377931925897,0.8391906191602428,897.9351122580645,715.1815680000001,83.89477957015804,76.78597587928431,532.8961488113615,687.9458387176236,686.0840439273138,186.0,486.4511676462986,670.5514458889324,0.7254494351308467,938.2917465168539,715.1815680000001,83.89477957015804,74.29419625437366,509.0120042229145,699.4160334407192,697.4789539843543,178.0,494.56182011652965,629.1984932654951,0.7860187610268887,835.8935618894473,715.1815680000001,83.89477957015804,78.23963292699317,322.73515286942046,439.1366393328097,438.02635624481184,199.0,310.5164955397009,400.13211667419034,0.7760349209672178,truth
1783423229343688365,1783423239343688365,1589.9797835294114,1346.224128,89.13820329329292,69.89058730569833,1121.9194651676307,1625.7861216563174,1617.7313820644904,102.0,1149.6043913821595,1362.5752985804022,0.8436997152229853,1720.9056480000002,1346.224128,17.827640658658584,71.41707361621411,1649.1887005317071,2351.724491128604,2339.3383917656665,96.0,1662.9203351595186,2014.1982820416163,0.8255991229790753,926.2302464000002,715.1815680000001,83.89477957015804,76.27318189503991,627.0970797102331,832.7605421763035,830.4311707533421,180.0,588.8506264774501,783.0255197697978,0.7520197127809661,906.0948062608696,715.1815680000001,83.89477957015804,75.78569858885008,485.01700647587154,658.7797620113856,656.9773918450697,184.0,465.82763702671065,601.652141550819,0.7742474510703028,842.0274967272728,715.1815680000001,83.89477957015804,78.01122182771492,332.7837994961776,449.30998512859514,448.16820446548616,198.0,317.71013733925645,413.54594512600374,0.7682583787454451,truth
1783423230343688365,1783423240343688365,1717.47665814433,1388.2936320000001,34.78564030957773,63.805988670577754,1218.1405454861244,1752.9886427183435,1743.9562215905921,97.0,1239.5501566091425,1483.0679289026484,0.8358013361709672,1652.0694220800003,1346.224128,22.28455082332323,73.6009432024296,1602.7048863643408,2294.6270586308874,2283.049116131682,100.0,1622.5463534520422,1954.7372127736273,0.8300585586897223,916.5141942857142,715.1815680000001,83.89477957015804,76.51888407544159,616.9522885436893,810.6252007715807,808.382836526872,182.0,573.1985764662913,772.6460694568374,0.7418643530656207,926.6976853333334,715.1815680000001,79.23395848292704,75.22367003798247,513.1949797858854,682.5876543578918,680.6784768210537,180.0,482.6623591506845,640.512839905976,0.7535561023593795,842.4524412121211,715.1815680000001,83.89477957015804,77.93951884058424,335.712433312931,468.5528520412787,467.3621673877269,198.0,331.3168990226852,412.9409545840352,0.8023348019729074,truth
1783423231343688365,1783423241343688365,1646.1255426534658,1388.2936320000001,34.78564030957773,63.804946764948944,1148.6078419060618,1668.0150132441156,1659.6565957435914,101.0,1179.464726985883,1393.9266221269538,0.8461454916372647,1517.5617442909088,1346.224128,43.218522808869295,76.9586821749498,1527.7778585936028,2131.3533777467474,2121.5568436567105,110.0,1507.0944265095782,1879.5062024929825,0.8018565857939515,916.2830431648352,715.1815680000001,83.89477957015804,76.38345877323111,613.8106524492738,805.733586798821,803.505561026529,182.0,569.739683055206,768.9118160728726,0.7409688226214093,953.0918664827587,715.1815680000001,83.89477957015804,74.23562400794694,539.3722501715456,711.662154253193,709.6025129727878,174.0,503.2211351862596,674.7066718664926,0.7458369039010101,846.1121671836736,715.1815680000001,83.89477957015804,78.251803916142,393.90489570000835,530.304081001884,528.9427551788726,196.0,374.98161176733237,489.9148182399219,0.7654016531169624,truth
1783423232343688365,1783423242343688365,1571.2562861886795,1346.224128,35.65528131731717,67.76421510223295,1105.2286321030288,1547.7074814143352,1540.352381995289,106.0,1094.394455401229,1358.0173218461493,0.8058766539983896,1591.7644061538465,1346.224128,59.425468862195274,75.22037053186214,1582.1660329031222,2232.0540738835807,2221.2020459608566,104.0,1578.300571618139,1939.325234239924,0.8138400634160362,925.5290880000002,715.1815680000001,41.94738978507902,76.03659234149895,627.0738230660902,827.4495016248846,825.1457976895172,180.0,585.095153688385,784.3946645118303,0.7459193441257281,962.9782418497113,715.1815680000001,41.94738978507902,74.15433132328732,580.9067351032644,765.1922260813702,762.9772898830148,173.0,541.0726119733666,726.9975818823799,0.7442564122048292,841.3900800000002,715.1815680000001,64.82778421330394,78.4312410820862,389.9522646912839,531.9196193571505,530.5693990914693,198.0,376.12396989360826,483.1054927357568,0.7785545301165433,truth
1783423233343688365,1783423243343688365,1610.4859638058256,1346.224128,44.56910164664646,64.50540817563682,1087.992298184227,1506.4530287053346,1499.082948121998,103.0,1065.223152136555,1341.6796562117659,0.7939474577293762,1622.20007424,1346.224128,34.78564030957773,71.65457211019518,1573.8504623933525,2249.9239742308696,2238.533857272167,100.0,1590.936499332835,1920.5392689286075,0.8283800935871284,919.0210984309393,715.1815680000001,83.89477957015804,76.65894060580898,633.0778452967528,840.998933325896,838.6628282049865,181.0,594.6760487253943,790.4146474777241,0.7523596009044781,961.5191839075145,715.1815680000001,83.89477957015804,73.85670262671209,562.6082897556746,727.3815641161198,725.2681247870429,173.0,514.3364364965857,707.6617768748055,0.7268111028520035,840.1152465454546,715.1815680000001,83.89477957015804,78.66119030928866,396.4845132591435,539.2659846984199,537.9264501630781,198.0,381.3186346434936,491.6278958170405,0.7756244873163208,truth
1783423234343688365,1783423244343688365,1544.3832870280376,1346.224128,35.65528131731717,65.25781763255846,1030.553145276561,1412.8482283613137,1406.1823956362123,107.0,999.0345630616847,1274.7723488462163,0.7836964489902066,1642.3767749702972,1346.224128,36.56951929981248,75.00970178040428,1656.4160902565354,2324.6004416366127,2312.9850027730176,101.0,1643.740735830492,2033.835471420245,0.808197496271738,906.678272,715.1815680000001,49.17969836871333,77.16839863127139,619.9206199577922,832.8116366006922,830.5251731465662,183.0,588.8867556914162,771.4981170316139,0.7633029072801809,949.0880102400002,715.1815680000001,83.89477957015804,74.63032255967818,574.1690610723466,745.7821796018832,743.6360786885322,175.0,527.3476364845753,721.3130087087479,0.7310940328507343,828.8320191044778,715.1815680000001,83.89477957015804,79.26551124956048,389.2064607814425,529.3853417885175,528.0602618509766,201.0,374.33196503941895,482.5983093659744,0.7756595035138165,truth
1783423235343688365,1783423245343688365,1470.9434540176994,1346.224128,36.56951929981248,69.22476212934508,1001.6059100380115,1368.332582270412,1362.256866042758,113.0,967.5572478419078,1240.3004813836214,0.7800990666088802,1607.218429514563,1346.224128,44.56910164664646,75.31396482112307,1619.4788737184303,2240.1861769678067,2229.177824465918,103.0,1584.0508368543035,1997.702459820086,0.7929363199547563,889.8614650434783,715.1815680000001,43.218522808869295,77.1088693433382,538.1574605282002,754.2380782648685,752.2151052555415,184.0,533.3268597701984,661.0659081877935,0.8067680592276022,937.0025890909092,715.1815680000001,95.08075017951246,74.69488261993119,545.5881912932822,710.8544947080591,708.8323532203797,176.0,502.6500336450053,684.838974355058,0.7339682063486124,850.2354628923077,715.1815680000001,89.13820329329292,79.34558468044605,523.6250437411146,693.305741016371,691.5165959293578,195.0,490.24119090824024,654.3685202041763,0.749182113398846,truth
1783423236343688365,1783423246343688365,1450.8491553391304,1346.224128,30.344920270057166,69.51592681171618,992.099536267001,1354.0603693868984,1348.160147263455,115.0,957.4652693294373,1228.8828702265935,0.7791346860851681,1559.7170314766354,1346.224128,17.827640658658584,73.75734678501544,1262.9407847275625,1751.920003061036,1743.6858349111785,107.0,1238.7945142608155,1556.513066818007,0.7958780049262894,865.3032717473685,715.1815680000001,83.89477957015804,77.62195076362326,481.9702186875072,670.7162159872511,668.9394811681904,190.0,474.2679845763663,593.401653862123,0.7992360342941723,923.8930517333333,715.1815680000001,83.89477957015804,74.79905346155026,504.52771509645805,656.1292568161123,654.32701923057,180.0,463.9534468295627,633.6166271400946,0.7322305428184118,845.233994071066,715.1815680000001,83.89477957015804,78.86390064077808,479.9329692629625,631.1000516360763,629.4880803565396,197.0,446.25512611904986,600.915544130257,0.742625366373145,truth
1783423237343688365,1783423247343688365,1539.0426879999998,1367.25888,44.56910164664646,64.1806258175438,994.5009774633777,1385.034271082153,1378.5792502945858,108.0,979.3671252579574,1224.1259760879227,0.800054197352981,1558.5560585660376,1346.224128,178.27640658658584,71.22523575335141,1172.90389461113,1532.1307637418083,1524.8174486497967,106.0,1083.3800527063568,1471.2412863588688,0.7363714318999175,877.894834793651,715.1815680000001,83.89477957015804,76.90412443538212,488.048810996571,678.0852277516641,676.2794050309301,189.0,479.47866276562615,601.1933048584098,0.7975449142411037,921.7895765333336,715.1815680000001,83.89477957015804,74.71255627691511,498.85027253024106,650.3175942211029,648.4985204642225,180.0,459.84398079866344,626.0790249390334,0.7344823296762615,842.4524412121214,715.1815680000001,83.89477957015804,78.8074396890531,471.13262198517845,654.0545093813976,652.3923954973079,198.0,462.4863788492266,580.5041513087765,0.7966977976066618,truth
1783423238343688365,1783423248343688365,1414.9016943589743,1346.224128,89.13820329329292,71.2008029852439,961.2801240313387,1218.9424183848837,1213.840884809326,117.0,861.9224499158811,1215.1805622543977,0.7092957842551779,1592.8097356039605,1346.224128,25.021250047240116,69.08358256959639,1194.8780414981243,1552.6028325041739,1544.8561147054793,101.0,1097.8559913531426,1500.9407647318367,0.7314452489730928,864.0596572849743,715.1815680000001,83.89477957015804,77.61155297556515,470.74274406163306,647.4155180916002,645.7274878613306,193.0,457.79190308797246,581.7308216923859,0.7869479938438757,901.4243992216218,715.1815680000001,83.89477957015804,75.69462405390242,464.99633773630086,607.945065050425,606.2909621422037,185.0,429.8820780860523,583.1328216509105,0.737194104199127,838.007607316583,715.1815680000001,83.89477957015804,79.05431911896316,466.7142897339711,650.7307570116469,649.0855565473302,199.0,460.136131009591,574.2663379944296,0.8012591032526346,truth
1783423239343688365,1783423249343688365,1374.0327831864408,1346.224128,59.425468862195274,71.46661966012266,896.1033145831949,1147.6759146594213,1142.8468298546484,118.0,811.5294218601503,1129.9169436474708,0.7182204200252651,1609.777197176471,1346.224128,14.856367215548818,69.87981175009635,1227.9245343177936,1542.0486264322053,1534.8334843291054,102.0,1090.3930406696136,1555.9944834056378,0.7007692201344105,832.3901363582091,715.1815680000001,83.89477957015804,78.57127209668766,346.8349449087102,469.06375933726656,467.8896777212233,201.0,331.6781650362359,430.79433078762054,0.7699223070782507,894.7081144812835,715.1815680000001,83.89477957015804,76.06535872727245,460.6276674562586,597.9119513281343,596.3025378687211,187.0,422.7875953366047,578.7754492608796,0.7304864017237118,840.7558663718594,715.1815680000001,83.89477957015804,78.88951895808984,468.1508032295111,654.9487241017132,653.2927541722578,199.0,463.1186841417986,575.4049802775932,0.804856926887174,truth
1783423240343688365,1783423250343688365,1356.827011121951,1346.224128,158.46791696585407,72.36373225841734,876.4463291051391,1173.7706004518213,1169.057784912932,123.0,829.9811511368886,1091.7334747924926,0.7602415518995095,1655.4349823999999,1346.224128,178.27640658658584,67.49486769628373,1243.309880068658,1640.8528539185784,1632.633171423419,100.0,1160.2581799351262,1555.165391107806,0.746067387153355,818.9117665882353,715.1815680000001,83.89477957015804,79.39145009334963,336.41041260485594,458.5037118876848,457.37318597937497,204.0,324.211083874985,416.8783011434423,0.7777115838980265,874.6492166701571,715.1815680000001,83.89477957015804,77.07968766173371,433.51493975026045,563.3253872683981,561.8411708355901,191.0,398.33120135202233,544.5516807320231,0.7314846605864087,853.7507074639176,715.1815680000001,95.08075017951246,78.75037546383028,510.3105489188186,723.408944778093,721.5323944192879,194.0,511.5273704235942,624.5026719954154,0.8190955673402618,truth
1783423241343688365,1783423251343688365,1288.9448802461538,1177.946112,17.827640658658584,75.99922565034699,839.7906335642738,1150.3301206763772,1146.1033561234242,130.0,813.4062289334058,1039.0773646898178,0.7828158485352256,1865.5487829333335,1367.25888,178.27640658658584,62.37842638647202,1389.1193225658099,1753.8779196978928,1744.492839842596,90.0,1240.1789703917352,1757.9200907181296,0.7054808560070035,816.849536,715.1815680000001,83.89477957015804,79.69845537230579,340.02986426020084,459.32119210522944,458.21114555029624,204.0,324.78912968029664,422.48861262568835,0.768752387577484,858.0021405538464,715.1815680000001,83.89477957015804,77.91969308381123,416.4514515508161,557.2517223345429,555.8136932793818,195.0,394.0364716906384,518.874987339301,0.7594054084418053,853.4715785846155,715.1815680000001,83.89477957015804,79.0575126172158,520.9135014151427,727.7538310239878,725.8804179371274,195.0,514.5996689515506,640.5430057932449,0.8033803574426251,truth
1783423242343688365,1783423252343688365,1273.967346320611,1051.7376000000002,59.425468862195274,75.67735162926631,830.7123133297316,1142.3834407168902,1137.9841208602907,131.0,807.7870776461333,1026.599198143671,0.7868573042983078,1887.3249897931032,1388.2936320000001,13.713569737429678,63.030046710875816,1417.154310634982,1788.2984796066353,1777.874291972582,87.0,1264.5179817154446,1793.6414963034756,0.7050004052211637,803.1634633846154,715.1815680000001,83.89477957015804,80.42929698354116,321.79327372898115,433.5085761396598,432.46037729040387,208.0,306.5368538908782,400.14922296284817,0.7660563517309107,835.2900019200001,715.1815680000001,83.89477957015804,78.98644568324521,384.3118411168262,521.5880732214407,520.285563588658,200.0,368.8184635609062,476.8413288647447,0.7734616134028957,836.3163709748744,715.1815680000001,83.89477957015804,79.91377694078088,504.38327747371665,701.3875737196549,699.6141509734074,199.0,495.9559096171475,621.1431791850977,0.7984566622269147,truth
1783423243343688365,1783423253343688365,1280.8545910153846,1051.7376000000002,12.734029041898989,75.19164920127665,834.7774709524608,1118.0122127310024,1113.7506653194312,130.0,790.5540170714687,1039.816822842204,0.7602820032384091,1912.4301583058827,1388.2936320000001,59.425468862195274,58.80379009791899,1392.923164294737,1752.7155721585714,1742.635065049335,85.0,1239.3570665645855,1764.2184995164116,0.7024963556976104,808.5105161941749,715.1815680000001,83.89477957015804,80.11593963157479,330.67089533255677,450.88431135018396,449.7844195143713,206.0,318.8233540863417,409.710039521412,0.7781682734910857,857.5706584615385,715.1815680000001,83.89477957015804,78.02999624613992,430.04754568748956,583.820237895823,582.313642890103,195.0,412.8232492100798,533.5449986266229,0.7737365175809197,861.9911257731959,715.1815680000001,83.89477957015804,78.93860572295291,541.7947922306473,764.2244299625035,762.2420338475529,194.0,540.38827677491,664.1336077466809,0.813674041595903,truth
1783423244343688365,1783423254343688365,1300.8420646299212,1304.1546240000002,29.712734431097637,75.16925426629534,854.8482972209353,1139.1644991992919,1134.713598325902,127.0,805.5109422707967,1066.3523261399448,0.7553891172035423,1850.1232981333335,1346.224128,89.13820329329292,61.185853245752895,1404.506486163586,1811.217965442876,1801.0178093386578,90.0,1280.7245055715596,1767.809183640986,0.7244698791154455,805.6627122814072,715.1815680000001,54.85427894971871,79.9347727145096,293.7491971979809,392.27018537216475,391.2804269709551,199.0,277.37690813396176,366.2078741998025,0.7574302129359056,865.3032717473685,715.1815680000001,83.89477957015804,77.89948094599302,468.83193448066595,630.8258527678393,629.1551423481806,190.0,446.06123823992573,583.1993239431087,0.7648521181815348,856.8664260310882,715.1815680000001,41.94738978507902,77.8619123727158,394.79733193101225,515.2321031290477,513.9005594926272,193.0,364.3241140075562,495.3421409248322,0.735499938138399,truth
1783423245343688365,1783423255343688365,1466.5281482105265,1346.224128,6.602829873577254,70.1355956108547,1182.151899045516,1325.5105588841209,1321.258180782599,114.0,937.2775047213324,1534.8360382808048,0.6106694665387141,1838.904763733334,1346.224128,178.27640658658584,60.94512597886764,1391.0374624780736,1832.1240142577947,1821.8649003857543,90.0,1295.5073144564055,1740.9195395335914,0.7441511712847361,836.3163709748745,715.1815680000001,49.17969836871333,78.84154414164784,378.6149774889749,462.58007701334657,461.4104668558898,199.0,327.0935092979327,482.91150374114665,0.6773363375357973,866.1889455157896,715.1815680000001,83.89477957015804,77.67434309935106,452.4817733719367,636.222094377747,634.5423567998819,190.0,449.87695727521253,555.2340696715428,0.8102473926741277,872.0061064712044,715.1815680000001,83.89477957015804,77.74107499676292,489.06868988768724,628.1942436920659,626.5390765128496,191.0,444.2004096170143,616.2137331356353,0.7208544466490185,truth
1783423246343688365,1783423256343688365,1438.3418350344828,1346.224128,35.65528131731717,70.98148681194074,1078.5174247777393,1338.698935839283,1332.8682571652448,116.0,946.6030954991718,1370.5367418986277,0.6906805681019733,1706.2002962474228,1346.224128,29.712734431097637,65.88856998790727,1343.6192292627236,1703.4080184166792,1694.603538690005,97.0,1204.4913609499733,1698.5951687166519,0.7091103184168414,824.189248315271,715.1815680000001,83.89477957015804,79.67551232136853,374.19204703142736,447.51983233744886,446.41078421381167,203.0,316.44430816127687,479.5527875420029,0.6598737748627106,866.893354445596,715.1815680000001,83.89477957015804,78.24857797135626,484.732694294684,690.523908206673,688.7275386562482,193.0,488.2741380643755,592.2210338084192,0.8244795611604873,862.4248320000002,715.1815680000001,83.89477957015804,78.36043306500527,484.1237829273779,621.0944178375383,619.4930926730295,194.0,439.18007461003435,610.1738321368691,0.7197622242697571,truth
1783423247343688365,1783423257343688365,1466.5281482105263,1346.224128,59.425468862195274,70.93322778537772,1104.7902267181573,1377.1724613721497,1371.0781761330627,114.0,973.8079862996157,1402.487751466464,0.6943433090815846,1636.1737487058822,1346.224128,29.712734431097637,65.26720901832456,1281.0599041008484,1580.1535612724813,1572.3256838304637,102.0,1117.3372984918444,1630.3397303903328,0.6853401641781334,832.1808353432837,715.1815680000001,83.89477957015804,79.93727479529306,443.6923634277364,549.733765673561,548.3578704097737,201.0,388.7204735549915,564.0691654821885,0.6891361863800832,885.0177137777779,715.1815680000001,83.89477957015804,78.14713501161634,546.1347848487012,772.1523584100859,770.0961536265339,189.0,545.9941687409572,668.9331732646467,0.8162163136211339,862.2079788865981,715.1815680000001,83.89477957015804,78.60936239714579,494.65448859276194,647.7085632852654,646.0285296948313,194.0,457.99911733160724,620.068165955702,0.7386270453437968,truth
1783423248343688365,1783423258343688365,1599.0418139428573,1346.224128,21.94171157988749,62.76553179661569,1129.3330199750806,1399.8843504411134,1393.3286742478892,105.0,989.8677170738365,1435.5720432495148,0.6895284160265505,1599.0418139428573,1346.224128,59.425468862195274,64.89048553709412,1232.2914804415268,1538.9581960106348,1531.6697444995,105.0,1088.2077763617358,1563.645261327026,0.6959428735378262,832.3901363582091,715.1815680000001,83.89477957015804,79.94028925669276,444.3443964436845,551.4864241396148,550.1060205781489,201.0,389.95979024144214,564.667660043702,0.6906005387509913,881.4562742857144,715.1815680000001,64.82778421330394,77.90646274238762,519.1626912871478,746.1068169109243,744.121055787254,189.0,527.5771897272244,632.36931811149,0.8342865072941598,868.4031299368423,715.1815680000001,83.89477957015804,78.26722759039053,494.2205289593038,634.7610125007313,633.0796799458219,190.0,448.84381637210595,622.7178146977086,0.7207820392772802,truth
1783423249343688365,1783423259343688365,1655.7057267326736,1346.224128,25.468058083797978,61.99090548119094,1183.276639943446,1500.1479593627266,1492.643550538916,101.0,1060.7647948485453,1495.8864389640896,0.7091212054727438,1540.8447306168227,1346.224128,44.56910164664646,66.34356804829353,1189.533686819308,1512.829485676994,1505.6899780977194,107.0,1069.7319881011595,1502.6035807798548,0.7119189663756598,853.4715785846156,715.1815680000001,83.89477957015804,78.77626517255666,432.9626550740954,532.4691288884404,531.0950127166678,195.0,376.51253180951,551.3914018851005,0.6828407743071192,906.5746960879121,715.1815680000001,95.08075017951246,76.71234926179247,540.0310493125877,740.52404112279,738.4757075986238,182.0,523.6295711095905,667.9619035342527,0.7839213109894659,909.4369279999999,715.1815680000001,83.89477957015804,77.04921735119756,567.5077206411353,719.6181235377654,717.6384275626145,183.0,508.8468550182926,717.4032792255623,0.7092898370461778,truth
1783423250343688365,1783423260343688365,1588.5282904615387,1346.224128,89.13820329329292,64.97676519709684,1168.7126190682889,1414.6307524017411,1407.8416642159493,104.0,1000.2949978982991,1493.8150255398891,0.6696244051613929,1563.9236001553397,1346.224128,178.27640658658584,67.87940564720445,1294.545513538363,1789.5788246786622,1781.2914195647104,103.0,1265.4233223981337,1597.2000753850602,0.7922760222090897,864.835064,715.1815680000001,83.89477957015804,78.80929471391973,492.8470202457691,607.1493940980142,605.5579119528519,192.0,429.3194537600094,627.4063866760289,0.6842765118068447,907.3679360000002,715.1815680000001,83.89477957015804,77.08429932227149,563.2220405656714,783.3123418893829,781.1574207724705,183.0,553.885468737098,693.5730514652802,0.7985971594007717,903.4598400000002,715.1815680000001,83.89477957015804,77.51469911996797,572.2890203593035,744.5903135679173,742.5523158432068,183.0,526.5048599296921,718.6276935123154,0.7326531731005008,truth
1783423251343688365,1783423261343688365,1691.887990762887,1346.224128,178.27640658658584,62.706801668118516,1292.984761075127,1710.2879326203538,1701.481529717341,97.0,1209.3561949373732,1616.275960852077,0.7482362073242853,1588.1237760000004,1346.224128,17.827640658658584,66.74905985886531,1274.5861964219223,1814.0961103945963,1805.3422661262318,104.0,1282.7596613841588,1557.6918083438088,0.8235002935195715,859.4821464870465,715.1815680000001,83.89477957015804,78.58621959096972,441.8477388450904,552.3070938552175,550.8669164525569,193.0,390.5400913624593,560.5337341894236,0.6967289701612899,900.5147883243245,715.1815680000001,83.89477957015804,76.93081951767276,526.587099776889,752.9861336511262,750.9371879929132,185.0,532.4416012441513,642.5269783714552,0.8286680858034544,901.5220340869568,715.1815680000001,83.89477957015804,77.23616609075407,560.3552853128575,726.8479274955664,724.8592837484177,184.0,513.9590984235031,704.2152470161078,0.7298323922994343,truth
1783423252343688365,1783423262343688365,1724.4068271157896,1346.224128,178.27640658658584,64.01504912574298,1367.7510216563653,1828.1602923734688,1818.4664309097022,95.0,1292.7045398332612,1704.6827273223896,0.7583255928590076,1610.077522019418,1346.224128,25.468058083797978,66.09995225190262,1316.9204713433146,1913.7057519683804,1904.3131698293557,103.0,1353.1943144125428,1597.8083831946121,0.8469065055892403,856.3036078730158,715.1815680000001,64.82778421330394,78.42774143315859,429.91693293175354,527.5039481229607,526.101473441945,189.0,373.00161882042227,547.8065667930277,0.68090023273005,891.0458880000001,715.1815680000001,21.609261404434648,76.78963075162974,483.4529396034972,661.4348614319123,659.7164757880533,183.0,467.7050758316896,598.3974186468072,0.7815960785548504,904.494336,715.1815680000001,83.89477957015804,76.54289859425872,538.5664559790209,718.5144636437991,716.5270187497712,182.0,508.0664496231454,671.5965279803577,0.7565054738311645,truth
