window_start_ns,window_end_ns,red_Mean_NN,red_Median_NN,red_Heart_Rate,red_Mean_HR,red_SDNN,red_SDSD,red_RMSSD,red_NN_Count,red_SD1,red_SD2,red_SD1_SD2,infrared_Mean_NN,infrared_Median_NN,infrared_Heart_Rate,infrared_Mean_HR,infrared_SDNN,infrared_SDSD,infrared_RMSSD,infrared_NN_Count,infrared_SD1,infrared_SD2,infrared_SD1_SD2,ppg0_Mean_NN,ppg0_Median_NN,ppg0_Heart_Rate,ppg0_Mean_HR,ppg0_SDNN,ppg0_SDSD,ppg0_RMSSD,ppg0_NN_Count,ppg0_SD1,ppg0_SD2,ppg0_SD1_SD2,ppg1_Mean_NN,ppg1_Median_NN,ppg1_Heart_Rate,ppg1_Mean_HR,ppg1_SDNN,ppg1_SDSD,ppg1_RMSSD,ppg1_NN_Count,ppg1_SD1,ppg1_SD2,ppg1_SD1_SD2,ppg2_Mean_NN,ppg2_Median_NN,ppg2_Heart_Rate,ppg2_Mean_HR,ppg2_SDNN,ppg2_SDSD,ppg2_RMSSD,ppg2_NN_Count,ppg2_SD1,ppg2_SD2,ppg2_SD1_SD2,label
1784137690152305327,1784137700152305327,1719.6336719175256,1343.504384,95.27322837526371,59.51107875891244,1262.7808603712276,1791.244749149037,1781.9064370482527,97.0,1266.6013088880804,1545.0215418567134,0.8197952420559493,2248.759478356164,1343.504384,5.4132516122308925,61.70953257827203,2714.890109475621,3713.4913855966074,3690.2677120445583,73.0,2625.8349406331895,3360.6178070902447,0.7813548256196204,1001.7759014787879,713.736704,84.06461327229151,69.76250869962965,499.440912554647,692.68581085646,690.5844481642694,165.0,489.80283408830513,615.5721258523402,0.7956871559284934,878.342647873016,713.736704,31.06735707889034,75.80772128832105,353.55316958828706,483.7433213357452,482.4624973178811,189.0,342.0581828702085,437.6046014584555,0.7816603886937926,939.1649076363636,713.736704,84.06461327229151,73.34567465480113,465.24116094968457,651.0906531806812,649.2277290386031,176.0,460.39061603123827,571.7682362800588,0.8052049533680873,truth
1784137691152305327,1784137701152305327,1728.5112919148935,1343.504384,10.431375369554422,60.153404491112454,1277.8162641665233,1851.306423556233,1841.84689766565,94.0,1309.0713261508272,1552.02929787483,0.8434578702498197,2286.02625484058,1679.38048,19.848589244846607,58.57638133749418,2660.6540218583805,3810.6221190116244,3782.5280871995833,69.0,2694.516740892571,3244.680171386263,0.8304413990181845,983.033810556213,713.736704,84.06461327229151,70.67881545595283,472.5090558830599,649.1873384912028,647.2679808965485,169.0,459.0447693075761,584.0963667655179,0.7859058803080295,874.3827051789473,713.736704,84.06461327229151,76.04276803916802,350.43385160586024,484.5595619895838,483.292499445651,190.0,342.63535217161797,432.32889843700224,0.792534002261581,917.8602982541438,713.736704,84.06461327229151,74.43132011304121,450.62014696459767,617.2368642603963,615.5342480786977,181.0,436.4523723168467,557.5586938164354,0.7827917978094331,truth
1784137692152305327,1784137702152305327,1749.9501916595748,1385.488896,36.64354937510143,59.05951878526679,1230.7227432487307,1804.6563769237628,1794.9787944558839,94.0,1276.084761834339,1488.3416213378102,0.8573870027818733,2414.10944,1532.434688,8.506538247791402,58.64078459842964,2806.698337309413,3894.1459238834213,3866.149353716007,68.0,2753.5769897079203,3458.904160884829,0.7960836327432451,975.2755169882354,713.736704,36.64354937510143,71.21894073057004,469.6349559016583,640.4656369252008,638.5913454398275,170.0,452.8775949867707,581.8633220860414,0.7783229803232085,865.1019183157896,713.736704,64.95901934677072,76.51565295392889,341.29419658045236,470.14824284729525,468.90413032134757,190.0,332.4450106802622,421.5490655616415,0.788627084814757,909.8182160879121,713.736704,84.06461327229151,75.04607596412323,450.11712753941845,609.7960307459322,608.109178190113,182.0,431.1909084810891,558.7916044737078,0.7716488669997142,truth
1784137693152305327,1784137703152305327,1763.8108722637362,1385.488896,12.646888722380139,58.014460064932734,1240.7115047206541,1791.7997992205292,1782.208329964043,91.0,1266.9937885575305,1508.672743099277,0.8398069060058287,2282.757895314285,1679.38048,158.78871395877286,63.14746401724763,2579.91494409058,3553.706756659819,3527.941084618017,70.0,2512.8501459826102,3186.646247922946,0.7885563537592177,969.5721513918129,713.736704,84.06461327229151,71.67739489792763,487.3959996010225,671.4881842390203,669.5103060568275,171.0,474.813848562053,601.9847385615401,0.788747318904852,863.5251973333334,713.736704,84.06461327229151,76.67211202358247,345.32061237715783,470.6840377205235,469.4502635467751,192.0,332.8238748684469,427.90978584725866,0.7777898189672334,907.0500065054947,713.736704,84.06461327229151,75.04731955871058,441.17156228602687,596.9581486832765,595.3068090089404,182.0,422.1131550185121,547.8822290601751,0.7704450566732116,truth
1784137694152305327,1784137704152305327,1768.3154140215054,1343.504384,29.77288386726991,60.8555564692441,1310.0134455304658,1860.9965027443238,1850.8674153971713,93.0,1315.9232468549608,1602.0123155377282,0.8214189329832091,2517.798462060606,1679.38048,44.65932580090487,56.749680936351346,2643.193217426147,3666.286912321109,3638.008420780275,66.0,2592.4563374777454,3257.687191617837,0.7957965835848948,956.9573252413794,713.736704,84.06461327229151,72.04391065305067,458.85878658080645,626.7662835876213,624.9521950256898,174.0,443.1906893438977,568.2374314353644,0.7799392733146787,862.7490911502593,713.736704,84.06461327229151,76.84199056427472,350.11290414877936,481.0625583280108,479.8081557800838,193.0,340.1625971686855,432.7849293202249,0.7859853107708228,876.3714452210526,713.736704,84.06461327229151,76.27492342717177,395.56235247503173,533.4448573323868,532.0317558902573,190.0,377.2024760088212,491.7299008984199,0.7670928192889017,truth
1784137695152305327,1784137705152305327,1695.3951907628866,1343.504384,178.63730320361947,65.50886918042465,1362.7251875795714,1833.5637631577783,1823.9923077595495,97.0,1296.5253706667897,1695.1551124708994,0.764841731077307,2373.691514268657,1679.38048,89.31865160180973,56.13409511238599,2516.411658363492,3492.6002934882026,3466.279305656811,67.0,2469.6413514996343,3100.8210309814604,0.7964475623792943,948.5121647816093,713.736704,84.06461327229151,72.5966580204766,454.972835193472,634.8381977311788,633.0193543715461,174.0,448.89839457196285,559.6835509494,0.8020575087663189,858.8334371813472,713.736704,84.06461327229151,76.9877323427216,340.0577503842769,461.77634063465075,460.57555038433753,193.0,326.5251818542706,421.86395911519645,0.7740058727441751,885.4712238297872,713.736704,84.06461327229151,75.47599523291494,389.51128100613045,518.2236578969976,516.8361757340887,188.0,366.4394626702645,486.10609558103397,0.7538261009302217,truth
1784137696152305327,1784137706152305327,1620.6021632000002,1343.504384,35.72746064072389,63.944016075620084,1208.619596997605,1646.0148956093012,1637.6841036343897,100.0,1163.9082946194042,1498.0592115638758,0.7769441191876255,2394.3894419393946,1679.38048,29.77288386726991,50.63694305047027,2383.789545978693,3248.5945941446307,3223.545820752591,66.0,2297.1032668456287,2954.0757420482933,0.7776047290015882,931.2496842485875,713.736704,84.06461327229151,73.50492104448972,446.1916761092031,631.5325550662249,629.7358727482815,177.0,446.56095222739435,546.3201274263666,0.8173979500463895,872.1227201693125,713.736704,42.032306636145755,76.08769925726789,343.101246157617,454.5572419051202,453.3467011622874,189.0,321.4205081885643,428.6972809427673,0.7497610143029463,874.344122920635,713.736704,84.06461327229151,75.8556161191598,362.26915659997456,483.64816248673725,482.36531873665524,189.0,341.9908954027851,451.66248170300184,0.757182429927104,truth
1784137697152305327,1784137707152305327,1663.8462105600001,1343.504384,89.31865160180973,64.30123055610844,1338.1483026047144,1820.180487619302,1811.340128654549,100.0,1287.061965779045,1659.2219585246112,0.7757021049332709,2279.816514630137,1679.38048,22.329662900452433,55.549061092968884,2317.537086042118,3074.0096788076094,3052.5913120553532,73.0,2173.6530893179415,2894.74911071935,0.7508951574659212,910.3641685333332,713.736704,84.06461327229151,74.24065437487533,404.0799473837847,586.2647238534695,584.6250075179721,180.0,414.551761807247,490.5452335377628,0.8450836609246847,871.0681384421054,713.736704,84.06461327229151,75.93713418197567,332.86192386638004,443.3869235402398,442.23939043808764,190.0,313.5219003247448,415.2663358959355,0.7549899262802571,879.2182114042554,713.736704,84.06461327229151,76.2472772030605,400.4285298271711,548.1767998254617,546.7563268962779,188.0,387.61953244572464,495.5416874818688,0.7822137717927256,truth
1784137698152305327,1784137708152305327,1579.5144077669902,1343.504384,13.741331015663038,68.6672546917802,1311.3233724472852,1730.214534149385,1721.9672469313095,103.0,1223.4464300045533,1640.3436806680484,0.7458476198757878,2108.4949078441564,1637.395968,29.77288386726991,59.41715992387178,2080.3094731585174,2829.38299053685,2810.710465564472,77.0,2000.6758991824797,2579.539296355325,0.7755942706549456,936.3961384269661,713.736704,84.06461327229151,73.5352698805135,480.31308871984726,698.8045389678433,696.8277187726949,178.0,494.129428228101,582.5112706812502,0.8482744508105635,896.1210356989247,713.736704,84.06461327229151,74.93809318843377,399.6610204466084,553.0174676326762,551.5208005646474,186.0,391.0424014776774,492.95109559887806,0.7932681456009475,868.9255284607333,713.736704,84.06461327229151,76.79182648168924,399.53714134437064,551.3664827745467,549.9136041417682,191.0,389.87497888885775,493.21253536935734,0.790480677051097,truth
1784137699152305327,1784137709152305327,1603.4854006153848,1343.504384,35.72746064072389,68.59273407117816,1311.1562429792284,1712.673153348535,1704.3498952411933,104.0,1211.042800688897,1644.672932365766,0.7363426349741663,2334.938645942857,1658.388224,4.944977251311265,58.49380752450012,2454.737964799526,3126.889631414636,3108.0541533613614,70.0,2211.0448623951934,3099.5350070444674,0.7133472786627806,963.4210665411764,713.736704,95.27322837526371,72.19127335399187,496.7729412974394,699.9016119811589,697.8280017520077,170.0,494.90517599527317,609.1807152209943,0.8124111017134462,902.7817197814209,713.736704,84.06461327229151,74.59239448453447,405.8366769867012,568.2559421663998,566.6926491297655,183.0,401.8176301554119,498.67636080263554,0.8057683534641056,897.0239284301076,713.736704,64.95901934677072,75.33559502796909,434.0073970606556,591.8669117924885,590.2661946318709,186.0,418.5131068884088,537.7250515719319,0.7783031600721767,truth
1784137700152305327,1784137710152305327,1641.512096627451,1343.504384,178.63730320361947,67.69714826562188,1313.5063576497591,1691.595534114306,1683.2004672368648,102.0,1196.1386731971056,1653.851275179787,0.7232443999942351,2058.796069925926,1385.488896,29.77288386726991,66.86454602019934,2130.9408996980856,2557.542642660376,2541.5112022979297,81.0,1808.4557457989147,2728.83897358485,0.6627198465372119,1038.399545242236,713.736704,36.64354937510143,69.44964720842486,599.286771412015,842.0781382300896,839.4606058004059,161.0,595.4391618314393,735.5374708725655,0.8095293379480341,908.5996020869567,713.736704,28.0215377574305,74.07170017948545,404.5665589473027,573.2605551755861,571.7422533242469,184.0,405.35642595142195,495.167936367923,0.8186241397711004,913.5646272349728,713.736704,42.032306636145755,74.4250362466932,445.79579140466825,611.0216259883794,609.3518614210678,183.0,432.0575351880135,551.4806600524249,0.783450021886427,truth
1784137701152305327,1784137711152305327,1638.2273444752477,1343.504384,84.06461327229151,68.48210036033448,1339.5886100632365,1753.5734251383772,1744.7835785701186,101.0,1239.963660223867,1679.3571237483775,0.738356149915409,2112.143911384616,1343.504384,178.63730320361947,67.1486710063435,2170.58917414293,2660.1369173406615,2643.3360281278733,78.0,1881.00085313626,2766.556093966523,0.67990699962255,998.2702943614457,713.736704,42.032306636145755,71.62311640033167,584.0522720406792,824.5252954245725,822.0235668183595,166.0,583.0274276545567,715.7329266234818,0.8145879642634688,897.4753747956989,713.736704,43.30601289784714,74.71656954917998,394.8119851894962,564.5299427450691,563.0021644582379,186.0,399.1829506978918,481.7462955068821,0.8286165444777959,925.7702171173186,713.736704,42.032306636145755,73.80303216449504,451.425894325669,622.5542922529058,620.8037981363021,179.0,440.2123617088214,557.3842610218117,0.7897825476840921,truth
1784137702152305327,1784137712152305327,1591.8127835428572,1343.504384,43.30601289784714,68.66774690459464,1284.4014098806763,1657.470832859636,1649.4829751242764,105.0,1172.0088655339632,1616.3451280471736,0.7250981521192532,2038.29685697561,1343.504384,4.811779210871905,72.07282662219144,2341.832074996508,2776.459865038552,2761.2341707147366,82.0,1963.2535982610466,3006.8542680719374,0.6529260892713397,999.5833515688623,713.736704,84.06461327229151,71.09579283855346,556.5094206313382,792.2785564257566,789.9002724382511,167.0,560.2255398373412,680.0581907159382,0.8237905924602689,902.326593037838,713.736704,42.032306636145755,74.82061265450264,418.0413628664437,604.1829157397109,602.5513634760229,185.0,427.22183679661003,508.1908236248788,0.8406720801239101,937.8113466966294,713.736704,42.032306636145755,73.40448452250166,459.5899359635835,650.1391620135776,648.3125499843537,178.0,459.7178101747401,562.8282029021755,0.8167995274654762,truth
1784137703152305327,1784137713152305327,1610.3482535384614,1343.504384,34.85605916168185,66.88190376257491,1231.2403432848291,1620.359484142311,1612.795984377968,104.0,1145.7671791969642,1541.270369338814,0.7433914269619576,1893.3015649523809,1343.504384,19.57669076204049,77.13239814687445,2338.7215199751367,3134.5086055178044,3115.6082647441817,84.0,2216.4322906492284,2912.550539728596,0.7609935897818841,1011.6995134060606,713.736704,84.06461327229151,70.50511894766171,566.937369387167,813.3656848864965,810.8821197456077,165.0,575.1363913676822,690.9739700434179,0.8323560890890623,902.3265930378378,713.736704,84.06461327229151,74.54750777598947,407.85713196037835,585.1223872098063,583.5302144974304,185.0,413.74400782011486,497.09438558322637,0.8323248457829212,939.0773051299436,713.736704,84.06461327229151,73.1388805464134,456.146818506931,648.047539883264,646.203873160536,177.0,458.23880998271557,557.8068093711321,0.8215009252026363,truth
1784137704152305327,1784137714152305327,1644.8783562772282,1343.504384,57.163937025158226,62.452889089735066,1185.4272657496524,1544.9052884457165,1537.177923590217,101.0,1092.4130057509253,1487.8818895324011,0.7342068032659766,1901.3675549425286,1343.504384,44.65932580090487,77.79935595871979,2334.6148027009694,3099.2453858070753,3081.183730977895,87.0,2191.4974288653007,2915.393980857366,0.7516985502662045,1049.8768535345912,713.736704,84.06461327229151,69.01522720790473,609.6497975695492,877.3867363036352,874.6174546379384,159.0,620.4061109634337,742.2222578802109,0.8358764566496772,927.3912206222222,713.736704,84.06461327229151,73.44394693064041,447.00234453724977,624.461885123187,622.7151351697888,180.0,441.5612335631404,549.6671998133918,0.8033246912186999,981.9436453647058,713.736704,84.06461327229151,71.1439512071498,494.73060121832145,713.7220033892244,711.6072668790368,170.0,504.67766847856865,601.8030915783015,0.8386092985248552,truth
1784137705152305327,1784137715152305327,1644.8783562772273,1385.488896,35.72746064072389,58.66942068466542,1083.6786677311766,1471.9820928066022,1464.6036899884798,101.0,1040.8485196087142,1344.2604246965725,0.7742908297279193,1890.268201195402,1343.504384,35.72746064072389,80.03718416072248,2314.8394743835515,3091.3339268415375,3073.3308364454338,87.0,2185.9031825816896,2885.806165098109,0.7574670845944967,1056.7873685063291,713.736704,84.06461327229151,68.85576478407162,620.6214315988686,891.9386545442244,889.0993390386751,158.0,630.6958710306264,755.9452902506358,0.8343141748016148,943.346916519774,713.736704,84.06461327229151,72.827510396284,473.8825489702491,644.5970044032769,642.7695285984794,177.0,455.7989129460919,587.5823481995196,0.7757192065805909,965.1527290760235,713.736704,42.032306636145755,72.21546964291137,489.21655740577216,701.0140747371655,698.9618371399724,171.0,495.69180595386297,596.498530455029,0.8310025601835643,truth
1784137706152305327,1784137716152305327,1558.1799076226414,1343.504384,22.329662900452433,65.60608510156216,1095.8998693459057,1343.217560142057,1337.5559048267453,106.0,949.7982453852977,1396.7586383467442,0.6800016977231761,1950.5510339764708,1343.504384,30.406349481467142,79.22654586327363,2374.247557239882,3238.438642502984,3219.1635250247678,85.0,2289.9219245704176,2941.4676125711385,0.7784963923396034,1058.8223058580645,713.736704,84.06461327229151,68.5110757160541,609.1329482358869,868.449515311679,865.6254534926651,155.0,614.0865413950587,743.9991647117723,0.825386062943979,932.8067275083798,713.736704,84.06461327229151,73.39945921333668,469.42751374215624,643.9739005841533,642.1624373597791,179.0,455.35831201020636,580.5590281426105,0.7843445540189767,993.8833584761904,713.736704,84.06461327229151,70.83612470930731,513.1242933204255,748.8470949192129,746.6016712889984,168.0,529.5148588892216,621.6108814193459,0.8518429691580717,truth
1784137707152305327,1784137717152305327,1564.1211121509434,1385.488896,22.684101994110407,60.70376078660427,920.3648077414057,1183.4852221884234,1178.0413879233636,106.0,836.8504260435021,1159.302997871201,0.7218565185979763,1962.8994198588234,1343.504384,35.72746064072389,80.95250365395016,2488.225735940591,3449.754604822025,3429.1961700801276,85.0,2439.3448744991724,3067.137577224325,0.7953164190002564,1068.9902670769231,713.736704,84.06461327229151,67.94072726999545,608.1775327632397,853.9525488809053,851.2845961774168,156.0,603.8356381252248,746.6264687117075,0.8087519843317823,939.314505762712,713.736704,84.06461327229151,73.69809519313178,497.7079719010243,682.7431886705477,680.800814354386,177.0,482.77233851787076,615.5419442805297,0.7843045352208363,985.7561170778445,713.736704,84.06461327229151,71.73267258980073,527.3514370098887,748.7621388623089,746.6957308757421,167.0,529.454785885282,645.0099930112513,0.8208474157330559,truth
1784137708152305327,1784137718152305327,1511.0607546181818,1385.488896,22.329662900452433,62.112130628901255,841.0468126522272,1106.7079823715223,1101.823323045059,110.0,782.5607191281855,1052.8622144344101,0.7432698299924947,1883.029492229885,1343.504384,43.30601289784714,82.35287982701671,2467.7310738446354,3233.56733289784,3217.140979419422,87.0,2286.4773885153613,3092.798713389021,0.7392907202841822,1034.4664887088609,713.736704,89.31865160180973,69.03755655863098,566.5847325150816,796.5952274725232,794.1227345579717,158.0,563.2778872066616,695.2665166181762,0.8101611018843302,921.0792101899442,713.736704,84.06461327229151,73.91893674456371,441.3293246724113,592.6090272625607,590.9420506066054,179.0,419.03786176972034,549.3148285212621,0.7628373384671897,976.823083928994,713.736704,36.64354937510143,71.45734722546636,477.2374862050818,687.1416043144478,685.1066603345023,169.0,485.8824880461495,580.9219744369574,0.8363988787256287,truth
1784137709152305327,1784137719152305327,1535.9333973333337,1364.49664,79.39435697938643,60.96178323975794,895.4061766707058,1244.2193046951659,1238.3917962232192,108.0,879.7959076331629,1102.943345279381,0.7976800543733334,1754.3205766881722,1343.504384,44.65932580090487,81.98474954503618,2225.1003444374514,3256.8202401076396,3239.0717687897427,93.0,2302.919676885712,2692.661056749927,0.8552579133986372,1022.1414526419753,713.736704,42.032306636145755,69.0943346701699,527.4117553045745,745.7718687284681,743.4521994428418,162.0,527.3403455960636,645.9739926809877,0.8163491898604793,942.13244928,713.736704,25.98360773870829,73.09856412197594,465.36003455118066,618.1200145538544,616.3620768181072,175.0,437.0768538781579,581.0351412926225,0.7522382431220904,961.2754452716764,713.736704,84.06461327229151,72.69956534974982,486.9341316732077,704.5205795404961,702.4696115440937,173.0,498.17127927856126,591.7114038343881,0.8419159679031513,truth
1784137710152305327,1784137720152305327,1460.6190753684214,1343.504384,89.31865160180973,65.15591763392045,909.0445235875974,1265.726812996796,1260.1173117130127,114.0,895.0040125996716,1119.020911531347,0.7998099082660439,1854.4749789090909,1343.504384,8.876387736825812,77.02368839876118,2274.9806816692535,3336.012525970033,3317.3597694534833,88.0,2358.917079236674,2751.1505430600055,0.8574292981484524,978.2391296000001,713.736704,42.032306636145755,70.78247373939988,463.39321747009114,663.6437280584122,661.6773719494262,170.0,469.26698040202433,565.1201629270977,0.8303844229719357,946.0828101818181,713.736704,84.06461327229151,72.82259915365098,466.33106700571335,625.9668034719199,624.1769172675266,176.0,442.62537153266146,580.491790077311,0.7625006573714191,940.8347461818183,713.736704,84.06461327229151,73.7683689345392,475.57850716888777,682.4570545565257,680.5044260219145,176.0,482.57001114551696,579.5799557726988,0.8326202559958311,truth
1784137711152305327,1784137721152305327,1481.5615630990983,1343.504384,13.610461196466247,63.271773755051626,912.6180939977595,1266.8746893200105,1261.3470246511051,111.0,895.81568373178,1124.500200699977,0.7966345254310796,1870.433596404494,1343.504384,178.63730320361947,78.35616924094914,2476.6495955782693,3681.88249038114,3660.9347663079457,89.0,2603.4840764805176,2979.6848441256675,0.8737447792887174,989.8848335238096,713.736704,42.032306636145755,70.22020177872044,473.3197893789163,676.6070261966382,674.5902077123764,168.0,478.43341642210686,577.5932643831114,0.8283223609490832,940.5961978181821,713.736704,79.39435697938643,73.38337452629463,471.5352079802446,633.1126857091908,631.301246364747,176.0,447.67827332019624,586.9267301192449,0.7627498465255488,951.4889976685714,713.736704,84.06461327229151,73.46300939405981,502.51662939621764,730.4629520877528,728.3623348846617,175.0,516.5153068267942,609.6325898000224,0.847256717355328,truth
1784137712152305327,1784137722152305327,1493.8852724363644,1343.504384,25.98360773870829,63.97825320607035,964.0830726406427,1372.5290005321453,1366.2184889425112,110.0,970.5245636514744,1178.1143312849576,0.8237948880504092,1717.2578114782607,1343.504384,22.684101994110407,79.34826275847078,2098.3770625351117,3065.929216183101,3049.1425051130273,92.0,2167.939339401027,2540.94315235223,0.8532026139168436,983.5306686863906,713.736704,84.06461327229151,70.43138294411376,463.6585781360353,660.9492197475641,658.9791729817371,169.0,467.3616753034602,566.3436115884344,0.8252263568271605,924.597465385475,713.736704,84.06461327229151,73.87959757371718,445.7676471152687,587.5120190209766,585.8593799693491,179.0,415.43373267833243,557.7857987667303,0.7447908024852199,955.2682931494254,713.736704,42.032306636145755,73.10424683041904,505.5944661700695,735.2657750933674,733.1376497179218,174.0,519.911415542903,613.2679581045161,0.8477720198358989,truth
1784137713152305327,1784137723152305327,1419.578884376068,1343.504384,44.65932580090487,69.51560484545452,952.476035737692,1412.7025932563215,1406.6269990217284,117.0,998.931583491366,1146.9477072041664,0.8709478010347927,1789.533393204301,1343.504384,34.85605916168185,73.29979469924173,2158.1260276395305,3158.363717795627,3141.183655274438,93.0,2233.300402306843,2611.742820202327,0.8550996618165617,960.7900751907514,713.736704,84.06461327229151,71.60121954325987,448.83953474932855,632.0632326922954,630.2231611526879,173.0,446.9361979754128,550.4887586296642,0.8118897815242848,923.4260167111113,713.736704,84.06461327229151,73.94331610804565,444.8427730111063,591.4780525767586,589.8235652727485,180.0,418.2381419000393,555.2554490776498,0.7532355469807388,939.0773051299436,713.736704,84.06461327229151,74.08367194102074,500.9346871945165,722.9560902390245,720.8993119881461,177.0,511.2071539081278,609.2657421568294,0.8390544856476426,truth
1784137714152305327,1784137724152305327,1408.4547829059827,1343.504384,40.83138358939873,71.52152070572497,985.1100367446984,1474.8770491988166,1468.5062386476932,117.0,1042.8955629048885,1181.9763074727555,0.8823320368703137,1766.9226539574465,1343.504384,44.65932580090487,76.54462785144953,2245.808809741121,3246.1321716657253,3228.650859001878,94.0,2295.3620712126485,2730.012985471104,0.8407879681995541,932.2470050909092,713.736704,84.06461327229151,72.74268666927418,387.6973775256076,553.0906844832244,551.5082135804704,176.0,391.0941736091972,473.4355148961013,0.8260769657194507,922.2597802666668,713.736704,84.06461327229151,73.46449586694963,412.34045618898057,549.6244132213517,548.0942261678144,180.0,388.6431496944949,514.3224229197522,0.7556410772219695,917.1644223646408,713.736704,84.06461327229151,74.69709811002087,465.6272771925192,676.1590112523085,674.2839851793674,181.0,478.11662201689836,565.0838613931683,0.8460985256916393,truth
1784137715152305327,1784137725152305327,1426.0256662068966,1343.504384,25.519614743374213,71.66270744279842,1013.6029668458239,1489.5238075950995,1483.1370075473324,116.0,1053.252385089301,1224.7904536895942,0.8599449660278239,1849.1845063111114,1343.504384,16.23975483669268,72.3391552241535,2241.2085901877927,3189.2723235536914,3171.385285621934,90.0,2255.156087035392,2739.1910121451397,0.8232927448419576,939.0773051299436,713.736704,84.06461327229151,72.65358766222036,415.2292398314519,586.0326346624793,584.3653976150947,177.0,414.3876499664576,508.8929956284023,0.8142923041311553,908.2878852896173,713.736704,84.06461327229151,73.9526058487967,382.50305759584774,515.9615099782043,514.5420808515239,183.0,364.8398825368388,475.4609428708079,0.7673393325095327,913.278478065934,713.736704,84.06461327229151,75.168503265354,477.1471405045907,694.544474819757,692.6231862848898,182.0,491.11710798069953,578.567870269126,0.8488496047183747,truth
1784137716152305327,1784137726152305327,1488.9507291428574,1343.504384,57.163937025158226,65.89904473359049,1005.5289016512974,1508.5186641559508,1501.7082089981125,112.0,1066.6837769711449,1205.5163226126037,0.8848356152154124,1833.0161118241756,1343.504384,43.30601289784714,73.33041559266586,2244.4701769214676,3197.371014345416,3179.5796120931946,91.0,2260.8827262129535,2742.170198827146,0.8244866519153172,954.8477586285713,713.736704,42.032306636145755,71.70358874146356,425.9467903792604,608.0057855916656,606.2700017355166,175.0,429.9250139925208,520.0418998893767,0.8267122593082873,924.3590058666667,713.736704,42.032306636145755,73.34423493186314,402.1011213873238,551.0296853452408,549.502807459685,180.0,389.6368271427093,497.45572175719104,0.7832593135452801,918.1228448351648,713.736704,84.06461327229151,75.1295327342546,503.88020114739834,735.6680132642618,733.6329664521479,182.0,520.1958408811945,610.3184888086208,0.8523350519769584,truth
1784137717152305327,1784137727152305327,1547.2070162962966,1343.504384,89.31865160180973,63.69261714567688,1064.6712317623217,1570.1224669755134,1562.7682229531954,108.0,1110.2442436917365,1284.806803826661,0.8641332225086228,1954.0085820235295,1343.504384,13.741331015663038,70.26986792718093,2217.0214595316247,3084.522969696683,3066.423203291926,85.0,2181.087108598192,2729.7981274081167,0.798992089085022,955.0876701257143,713.736704,84.06461327229151,72.14784151635301,445.8124814924984,643.9031889439001,642.0502262850968,175.0,455.3083113298745,542.0744488776127,0.8399368615742894,910.5102684835166,713.736704,84.06461327229151,73.8683851457627,380.35428981693906,523.3956903409334,521.9478433339984,182.0,370.09664188388837,469.95000733847274,0.7875234303748678,929.7575730055866,713.736704,84.06461327229151,74.31200287486726,493.10818394832575,681.9193939112173,680.124924775828,179.0,482.18982765724223,608.3238012814978,0.7926532327708679,truth
1784137718152305327,1784137728152305327,1557.8676135384617,1343.504384,13.874741996397628,62.40388455619019,1063.6939205926094,1516.9312936403114,1509.9017617543473,104.0,1072.632404327146,1299.084052709845,0.8256836053753962,1872.8091245714286,1343.504384,35.72746064072389,70.14758549289247,2074.7421036060214,2832.993831401002,2815.8787949421094,84.0,2003.2291492433071,2569.561456895329,0.7795996254021135,928.5574570666665,713.736704,84.06461327229151,73.51376281283139,428.78654586314553,616.761750031299,615.0376570600512,180.0,436.1164158236139,522.1274171608662,0.8352681768658157,892.6760412406418,713.736704,84.06461327229151,74.79700454707185,363.10307433819844,487.70309923497666,486.405439114756,187.0,344.85816867474773,451.91161407608473,0.7631097717632164,918.3535289670328,713.736704,84.06461327229151,74.76328898872713,474.2628270834431,679.829829756691,677.9502377621957,182.0,480.71228267385237,578.1940063245266,0.8314030886097424,truth
1784137719152305327,1784137729152305327,1591.4129310476192,1385.488896,44.65932580090487,60.30205206087921,1084.22081057685,1485.785591875348,1478.6278380518659,105.0,1050.6090674043267,1341.335090840372,0.7832562307350805,1909.088844505747,1343.504384,20.128146839844447,70.86438581858916,2117.452103101357,2866.1142424466098,2849.568047507153,87.0,2026.6488164893422,2629.36382137731,0.7707753487791376,916.0466876483517,713.736704,84.06461327229151,73.9198746652361,407.9513329662063,580.3387542013004,578.7333880437544,182.0,410.3614684810925,498.6484861411189,0.8229473865583121,891.5534607058825,713.736704,84.06461327229151,75.06297414746327,371.38003840711457,493.7083730476912,492.37941135569645,187.0,349.1045385106002,463.58308473259694,0.7530571110289108,921.1077190718233,713.736704,84.06461327229151,74.68315540140024,478.9663459587049,688.3325801176688,686.4178821664161,181.0,486.72463511283615,583.4098781381798,0.8342756153977154,truth
1784137720152305327,1784137730152305327,1695.3951907628864,1637.395968,34.85605916168185,56.145507984982004,1170.2820809631653,1616.8785268867603,1608.4723993972193,97.0,1143.3057707165435,1444.1420481968103,0.7916851199950184,1868.798976,1343.504384,16.23975483669268,67.71123629272223,1781.2373679411191,2277.189190746826,2263.9233111922663,86.0,1610.2159188217872,2247.045942851651,0.7165923438033118,922.4994708508287,713.736704,62.13471415778068,74.53884122926829,468.1985523555228,680.5946504243376,678.7063262844658,181.0,481.2530925543369,567.994277531964,0.8472851075990888,877.4763007999999,713.736704,84.06461327229151,75.92365977961366,363.6491193996672,488.23861491696,486.9452653207286,190.0,345.2368354449099,452.64459325866136,0.7627106135511181,926.224984177778,713.736704,84.06461327229151,74.90387914760362,500.8179210448219,724.4328510749393,722.4174656220204,180.0,512.2513815093939,608.6348997142487,0.8416398431143097,truth
1784137721152305327,1784137731152305327,1644.1134899199997,1406.481152,178.63730320361947,58.2191989730478,1111.5543966554274,1478.2945003241,1470.8446326776414,100.0,1045.3120657699499,1387.359973484136,0.7534541040165758,2055.1677787654326,1679.38048,89.31865160180973,60.75013912602064,1858.7442645448937,2379.498499825472,2364.5798668660523,81.0,1682.5595250498084,2344.004523094859,0.717814111906352,933.2758282011173,713.736704,40.83138358939873,74.28332693629775,493.06184635934073,713.5718752085118,711.575934356537,179.0,504.57151182393955,599.1024648575702,0.8422123783848823,893.1250734545454,713.736704,79.39435697938643,75.10760227061499,383.1047717196716,515.784976270769,514.3966384152735,187.0,364.7150543552032,476.47664873748425,0.765441612556639,898.9224434162163,713.736704,79.39435697938643,75.7650011827993,453.08418650086077,647.1326652616859,645.3717971229675,185.0,457.59189593386225,553.0600225130363,0.8273819790022452,truth
1784137722152305327,1784137732152305327,1702.5148029387756,1385.488896,46.09994921383728,56.74263014197759,1264.5767210615475,1745.0664133645182,1736.0816443439799,98.0,1233.9482945109376,1561.0875600485463,0.7904414371686906,2112.511837974683,1679.38048,43.30601289784714,60.15409237202389,1811.7635007337155,2320.9080804358455,2306.07802008593,79.0,1641.1298421868394,2284.3643285876437,0.7184186084719255,922.731429480663,713.736704,84.06461327229151,74.85143540187678,483.3379162924272,712.7218972414981,710.739356830251,181.0,503.97048663960504,583.2992001965463,0.8639999617173983,893.1250734545454,713.736704,84.06461327229151,75.13066233166847,380.4736101846062,504.64558340502714,503.2871809857211,187.0,356.83831412153614,475.24051266833857,0.7508583645741643,907.6868953043479,713.736704,84.06461327229151,75.23118724897176,456.146354412072,654.680915969041,652.8897199558593,184.0,462.92931519512916,555.8661870030696,0.832807114408225,truth
1784137723152305327,1784137733152305327,1696.088602122449,1385.488896,19.57669076204049,56.60412896648107,1282.6065607097194,1781.1271170009175,1772.1387818282874,98.0,1259.447062586594,1580.2074950531749,0.7970137254311738,2155.573234526316,1679.38048,34.85605916168185,56.652453733263094,1785.0552240826778,2253.167213135567,2239.8648618411726,76.0,1593.2298155553547,2259.126752411746,0.7052414451090411,916.2365878453039,713.736704,79.39435697938643,75.07349713806228,474.0754249433301,695.7108054376544,693.7756230802044,181.0,491.94182826972025,573.1418985467043,0.858324665352716,902.0934490928963,713.736704,84.06461327229151,74.95605633435275,395.5882639380593,538.1348227773967,536.6543940501385,183.0,380.51878237851815,490.492484406887,0.7757892209880622,896.4260670270271,713.736704,79.39435697938643,75.89754101998884,451.08575457284087,645.8513310355676,644.0939496070828,185.0,456.68585581360753,550.1597318115847,0.8300968417114367,truth
1784137724152305327,1784137734152305327,1801.2709987096773,1385.488896,19.848589244846607,54.68308836088226,1428.1854707516252,2049.5126227696182,2038.4212326233317,93.0,1449.2242736878236,1740.4890060006362,0.8326535063946815,2162.4749947012992,1679.38048,29.77288386726991,54.23192212275492,1721.3329694387676,2151.741433404532,2137.5566389248525,77.0,1521.5109589204064,2183.6841768663166,0.6967632842876766,917.6614765714286,713.736704,84.06461327229151,75.05577829590854,478.88305541026057,704.5813401191386,702.6322870350958,182.0,498.2142434957482,578.4023213189182,0.8613628008263886,889.3082996363637,713.736704,84.06461327229151,75.8829135804117,394.83276803490213,553.8309537565432,552.3401544070407,187.0,391.6176230322649,484.87487880223813,0.8076673800871228,907.4221599116022,713.736704,84.06461327229151,75.90841832128092,488.76784735404294,698.2671410199791,696.3257852638238,181.0,493.74943049497045,596.5683256402039,0.8276494229979543,truth
1784137725152305327,1784137735152305327,1737.9838613333334,1385.488896,44.65932580090487,55.82750749147931,1387.1482547294656,1993.2317736318755,1982.741696808352,96.0,1409.4277036115886,1689.7092458006161,0.8341243957292636,2161.3626777599998,1679.38048,35.72746064072389,52.445920653560584,1633.104023982282,2051.3848544357625,2037.4972224162896,75.0,1450.5481413949065,2069.302431024072,0.7009841189221665,913.5646272349726,713.736704,84.06461327229151,74.68837874911193,427.8136942343632,627.4360454575196,625.7099457759965,183.0,443.66428250388304,517.3297943904486,0.8576043508699069,871.9005798941799,713.736704,84.06461327229151,76.80950251892521,380.3555194283845,536.3300237499906,534.9017122294597,189.0,379.2425967475604,466.2919350850452,0.8133157968481521,903.5797147826088,713.736704,84.06461327229151,75.88587975367027,477.325968807367,676.1424315347577,674.292556204621,184.0,478.10489838618815,584.2841894706286,0.8182745776834375,truth
1784137726152305327,1784137736152305327,1811.3318034285717,1385.488896,59.54576773453982,56.18356933299055,1604.9286706160026,2356.454318851993,2343.376902912457,91.0,1666.264828416571,1939.9414517766886,0.85892531802469,2349.307258434783,1679.38048,22.329662900452433,48.95007247785847,1953.8716332069905,2530.1268300928273,2511.692043218043,69.0,1789.069838820662,2456.5918004448786,0.7282731459482479,898.9224434162163,713.736704,28.0215377574305,75.49921572825524,420.2873032571016,591.9425617865217,590.344574852167,185.0,418.5665995121864,515.4452788072234,0.8120485660103025,870.6840420523561,713.736704,84.06461327229151,76.8274134252772,381.5853895331784,542.0865425262524,540.6581170064603,191.0,383.31307021028283,466.6372939589788,0.8214368529318172,889.3082996363637,713.736704,84.06461327229151,76.19655127261413,432.4522875469576,601.4357337843174,599.8167921296274,187.0,425.279285806798,532.5398825825376,0.798586734470323,truth
1784137727152305327,1784137737152305327,1808.5994780444446,1385.488896,178.63730320361947,59.88557961440654,1632.8504419644628,2390.6101960922388,2377.1448581243,90.0,1690.416680830524,1975.764878276775,0.8555758326389897,1993.505563759036,1679.38048,178.63730320361947,61.89316189792633,1810.6648399350222,2257.580795203927,2243.832650603643,83.0,1596.3506893652152,2298.44437901713,0.6945352708721423,884.5779363404256,713.736704,84.06461327229151,75.98649626074824,392.9643084572246,556.681147543358,555.1907000292894,188.0,393.6330143866174,481.00771348802925,0.8183507319086135,879.8976297989419,713.736704,84.06461327229151,76.50179109702833,403.2790086704088,565.5026380147831,563.9966363050155,189.0,399.8707501191346,495.297495721466,0.8073344880063853,875.2665896421054,713.736704,84.06461327229151,76.56028458364794,407.22186833826726,576.3462914140584,574.8195435892952,190.0,407.53837097059875,498.6136161389232,0.8173430443525049,truth
1784137728152305327,1784137738152305327,1768.3154140215054,1343.504384,89.31865160180973,64.07402200848004,1831.1179855131656,2728.719492807262,2713.8600649251835,93.0,1929.4960573199317,2201.024451507299,0.8766354485515051,2091.151655384616,1679.38048,22.329662900452433,59.50677764788685,1846.6871367670983,2368.4661530756175,2353.040285029439,78.0,1674.7584778505848,2327.680988158799,0.7194965660544929,878.9805587165778,713.736704,84.06461327229151,76.21766771340326,386.6522009843423,542.5858076910764,541.1252779686611,187.0,383.66610399394017,474.76310869224875,0.8081211386680014,872.8359073684211,713.736704,40.83138358939873,77.00872903994893,411.1082812915738,585.724088647919,584.186183259142,190.0,414.16947498725403,502.24681272001584,0.8246333565448395,864.5292444816755,713.736704,79.39435697938643,76.96499481921698,388.7062099697291,555.3607294156677,553.8975020483683,191.0,392.699337774526,474.4245465759404,0.8277382370047062,truth
1784137729152305327,1784137739152305327,1891.6885236363635,1364.49664,8.456203701946484,63.70469959470597,1963.7603517965185,2853.2193843373207,2837.3850616072295,88.0,2017.5307748778255,2382.749299608839,0.8467238979816428,2055.1677787654326,1679.38048,89.31865160180973,63.44597507862862,1884.151762836944,2389.269881642492,2374.3206677578505,81.0,1689.4689353941858,2381.7856933343405,0.7093286940644279,885.6945457021276,713.736704,42.032306636145755,75.88807408486467,394.1639534999485,552.6270811364551,551.1607035917848,188.0,390.7663565389158,484.1293956950658,0.8071527158103909,881.0083311746031,713.736704,42.032306636145755,76.61278438438805,430.72456321892673,624.9329729023417,623.2802635257424,189.0,441.8943429263147,522.888127198477,0.8451030343601227,863.5251973333334,713.736704,42.032306636145755,76.15886809084458,334.51488307856204,468.7829447349687,467.56908654899166,192.0,331.4795991266949,410.9270637029531,0.8066628567601758,truth
1784137730152305327,1784137740152305327,1760.222997787234,1343.504384,35.72746064072389,67.4934273815413,1838.4039288783508,2740.9830397417286,2726.245018665879,94.0,1938.1676945186925,2209.346284626464,0.8772584488023707,2213.2646123243244,1679.38048,5.582415725113108,61.4584126729462,2172.5122127036075,2732.2391154464813,2715.8975525088817,74.0,1931.984806355341,2751.9694734314744,0.7020371501237325,881.8992681069519,713.736704,79.39435697938643,75.86302267747531,376.03781875831135,480.98062970763505,479.68592849054386,187.0,340.1046648856445,474.31349415184144,0.7170461500232317,895.2913504864866,713.736704,40.83138358939873,75.95959898582736,442.5133591512872,636.6131408618224,634.880897998888,185.0,450.15346889586147,538.8107954330754,0.8354574049208598,867.9745428210529,713.736704,21.329827248193368,76.20692889427332,351.50343335535075,440.8298924874962,439.7968488554689,190.0,311.7138063276453,445.5632152608254,0.6995950196318902,truth
1784137731152305327,1784137741152305327,1794.1381461333337,1385.488896,29.77288386726991,63.59493699301525,1762.302388252727,2618.3931550519496,2603.6825952588,90.0,1851.4835557496726,2120.713025535705,0.8730476653162332,1954.9964528941173,1679.38048,35.72746064072389,68.41957496314613,2030.9856914263946,2644.650108609726,2628.90966555772,85.0,1870.0500256636767,2549.757284196898,0.7334227603756762,922.7262748444444,713.736704,84.06461327229151,73.71799951188609,408.33403855543276,511.7708279897896,510.3392983940876,180.0,361.8766228850344,517.6833288706915,0.6990308605735014,897.7877268756758,713.736704,84.06461327229151,75.74194315206189,436.9274658670084,625.8938020362119,624.1906864928137,185.0,442.573751722436,532.7996415174239,0.8306569998094917,888.1857191016045,713.736704,84.06461327229151,74.93465292628957,356.7355844623205,458.7764360782853,457.5415039968741,187.0,324.4039289995522,449.33461904039126,0.721965135231192,truth
1784137732152305327,1784137742152305327,1776.1273989565218,1364.49664,95.27322837526371,64.0871390637589,1741.4049474558008,2560.0034493432136,2545.8986816091438,92.0,1810.1957988915387,2103.9434324346253,0.8603823520087849,1985.4121638554213,1385.488896,178.63730320361947,70.55366858048555,2172.2924902487293,2841.6393346593804,2824.3333703048124,83.0,2009.342443224077,2723.780607778681,0.7377034837114697,928.1157205810056,713.736704,84.06461327229151,73.37733368663673,413.07997156563704,531.0385555249402,529.5448257551719,179.0,375.50096368319413,520.3553006877429,0.7216241733040909,893.1866343225809,713.736704,84.06461327229151,76.12690784877927,442.01122957713864,626.9252965227165,625.2656755934471,186.0,443.30312846859994,540.8225423274846,0.8196831562545452,898.014670183784,713.736704,84.06461327229151,74.56901926939254,375.03559428848786,479.14955964685225,477.8458033829917,185.0,338.8099028288373,473.1884601712043,0.7160147200256163,truth
1784137733152305327,1784137743152305327,1692.9238709677418,1385.488896,43.30601289784714,65.20248452529837,1611.532489877231,2300.193336642266,2287.6618167086913,93.0,1626.4823063798572,1967.5750520314202,0.8266430826618775,1794.837888,1028.620544,178.63730320361947,79.33141180405093,2118.5475931466863,2718.283426774481,2703.3090643141627,92.0,1922.1166442592416,2670.060226246972,0.7198776362288136,952.3728095632185,713.736704,25.519614743374213,72.26306190891188,441.1650517057658,563.8570409008639,562.285579744652,174.0,398.7071372407814,556.5694162004704,0.7163655163854193,881.2257197860963,713.736704,84.06461327229151,76.4926492266811,425.806788341722,602.7801422890991,601.1582597999686,187.0,426.229926177214,521.3318204476562,0.8175789573159369,899.4725342608698,713.736704,84.06461327229151,74.33957075660778,366.9971830599705,479.48550005079784,478.17363575917085,184.0,339.04744856654185,460.32301545563206,0.7365424651447191,truth
1784137734152305327,1784137744152305327,1691.8044682448979,1343.504384,20.128146839844447,66.66860014308368,1645.6291065754308,2303.63463545422,2291.7854222862657,98.0,1628.9156721058796,2022.2529958935472,0.8054954921138002,1738.1587968000003,1007.628288,59.54576773453982,81.8661034475676,2124.5882492565875,2731.5211693689293,2716.9623508983586,95.0,1931.477141815378,2676.2751134890245,0.7217035095085336,958.0768,713.736704,84.06461327229151,71.61724378387908,432.84578818685185,555.7172247324379,554.1021772160952,172.0,392.95141803047545,545.4406881010192,0.7204292356673221,895.5935304347828,713.736704,42.032306636145755,75.49196683541777,428.325879454774,601.0943299305919,599.4499215302593,184.0,425.0378768267055,525.9253936184622,0.8081714288453876,931.0124836158192,713.736704,13.482060619141093,73.3395694480374,457.75164961033346,571.5887772008267,570.3579132993937,177.0,404.17430040883124,580.8568781433847,0.6958242479639892,truth
1784137735152305327,1784137745152305327,1623.2583262040816,1343.504384,22.329662900452433,70.10198732594681,1497.2480142283669,2076.4666611706602,2065.8399678683068,98.0,1468.283657021563,1845.4199477309407,0.7956366022958132,1582.2163236571428,1007.628288,178.63730320361947,85.7029221204331,2024.9331314400158,2440.0650397009904,2430.5209922556023,105.0,1725.3865361087926,2590.7969862793548,0.6659674784424623,982.1906130823531,713.736704,95.27322837526371,70.72926126951788,457.7873239389177,589.8855626302733,588.1379595866016,170.0,417.1120814599081,576.3221526788665,0.7237481320492081,907.4587186086957,713.736704,95.27322837526371,75.0458288324475,442.6456030312492,619.1433185559555,617.4495233059085,184.0,437.80043907725894,544.0915801018025,0.8046447603459405,927.6244679111111,713.736704,43.30601289784714,73.56962569294252,457.37724127437684,622.5764381800453,620.846304536994,180.0,440.2280212440774,566.9987004634853,0.7764180427295848,truth
1784137736152305327,1784137746152305327,1632.456613647059,1343.504384,21.986129625060858,69.06777814798598,1475.9496255123695,2047.4283972380401,2037.2674419528225,102.0,1447.7505036809225,1819.0282663130952,0.7958922521942452,1486.326697142857,1007.628288,89.31865160180973,87.64609231111629,1806.1691133966788,2339.426325548669,2328.8664932680867,112.0,1654.2242188817918,2270.74103525892,0.7284953207767128,986.5118174674558,713.736704,95.27322837526371,70.22199749935146,451.2375817549414,602.7485257443954,600.9521617121138,169.0,426.20756990405624,562.498234712194,0.7577047243928299,911.040968043716,713.736704,95.27322837526371,74.75100519071684,437.82787956305765,613.0693363937991,611.3829341396379,183.0,433.50548510159194,537.9804842545716,0.8058015072837805,952.6885551542858,713.736704,95.27322837526371,72.31218844142245,479.2188539193587,652.2825847384149,650.4056876902749,175.0,461.233438918422,594.0818776189949,0.7763802537909208,truth
1784137737152305327,1784137747152305327,1582.6514572549017,1364.49664,43.30601289784714,66.94479586021738,1204.3679447930385,1619.4164795247125,1611.3901325871125,102.0,1145.10037423717,1498.4581606941722,0.7641857505762413,1482.4619723893804,1007.628288,43.30601289784714,83.30154950206925,1779.4847003342047,2271.755369382993,2261.599843164059,113.0,1606.3736268876646,2245.6432225237636,0.7153289582137378,997.959127660606,713.736704,84.06461327229151,69.41842682001757,450.4872870031743,596.5941658750259,594.7725551419479,165.0,421.85578030656274,562.9355574254758,0.7493855641947259,908.9761559781422,713.736704,35.72746064072389,74.57672549571203,417.0168352358136,590.1484743902494,588.5488701284377,183.0,417.2979881482409,510.6243984416556,0.8172308049160361,962.9587200000002,713.736704,62.13471415778068,71.86991588435951,489.01153320629965,663.8786349739551,661.9362623258529,172.0,469.4330846749523,606.6966694517379,0.773752532874742,truth
1784137738152305327,1784137748152305327,1723.529142103093,1385.488896,29.77288386726991,62.90860168977005,1280.647643836711,1753.0565826675272,1743.9583310990397,97.0,1239.5981974079239,1584.8706350426687,0.7821447189439223,1503.1211773693697,1007.628288,29.165273992427664,82.90476293153756,1880.7580598589527,2443.065411104599,2431.937640699504,111.0,1727.5081190743626,2362.701760424896,0.7311579260700668,1045.9160505157233,755.721216,42.032306636145755,67.83883044309182,510.81569492522516,663.6473532887463,661.5438698569737,159.0,469.269543826977,641.6840312662392,0.7313093687261695,914.8448360662985,713.736704,42.032306636145755,74.05957216783352,401.2398464606384,556.0620166121067,554.5294255423622,181.0,393.19522270668733,494.6570399739931,0.7948845178213977,970.5256960000002,713.736704,44.65932580090487,71.74879892060811,505.75081835010275,699.7993167983897,697.7502924595561,172.0,494.8328423778544,623.8092733967042,0.7932438062092919,truth
1784137739152305327,1784137749152305327,1595.0116035047618,1385.488896,43.30601289784714,67.26693959142769,1161.6646487046,1561.464365304476,1553.9669315776669,105.0,1104.1220412879434,1445.4711242605424,0.7638492549290997,1419.2899861694912,1007.628288,43.30601289784714,85.1365946788609,1801.2967727799348,2321.521101246966,2311.5935150853084,118.0,1641.5633133593913,2267.59235123315,0.7239234655500072,1043.5775264000001,734.72896,95.27322837526371,67.90564153424636,506.7726901008757,653.0878050459663,651.0856624719256,160.0,461.8028156582407,637.9703743820844,0.7238624773219707,912.4175094207652,713.736704,95.27322837526371,74.11717741257603,396.2018681580411,540.5757735753343,539.1391684966383,183.0,382.24479524028254,490.81187732134276,0.7788010292791274,965.1584059190751,713.736704,44.65932580090487,72.0607985586153,503.0810875364918,685.7243060925457,683.7281899553284,173.0,484.88030686247885,623.3993144704867,0.77780051342266,truth
1784137740152305327,1784137750152305327,1597.4299421538465,1364.49664,178.63730320361947,68.0571095910435,1167.5816665931802,1554.3169867998902,1546.8083533563824,104.0,1099.0680814796438,1456.8866024730078,0.7543950775674777,1399.3651330169491,1007.628288,44.65932580090487,82.36243138051944,1612.6658498500724,2016.1536746255304,2007.5191438367244,118.0,1425.6359352418885,2045.7671853411875,0.6968710542710777,1046.9722646540881,755.721216,43.30601289784714,67.73884134847073,531.4591267724592,703.081442696328,700.8658654062216,159.0,497.1536558569946,664.3167377791276,0.7483684025770979,924.8255004444444,713.736704,43.30601289784714,73.59719297425019,428.6982455289594,581.895474641146,580.2799270644161,180.0,411.4622360605191,531.8964049392088,0.773575892297196,956.7160349425287,713.736704,89.31865160180973,72.64496136608663,502.52963481553303,675.6388123137879,673.6833126700938,174.0,477.74878581990447,625.2600391512874,0.7640801521050169,truth
1784137741152305327,1784137751152305327,1519.4576570181819,1343.504384,16.23975483669268,71.6908545203472,1149.2796724666264,1520.5356379733928,1513.6983254609645,110.0,1075.1810606467993,1436.5515565071807,0.7484458568691996,1430.0069561379312,1007.628288,79.39435697938643,81.47643207238674,1617.3414066640755,2126.157856367408,2116.9087448378195,116.0,1503.4206381104477,2025.2036055350206,0.7423553039316618,1034.6558176000003,713.736704,89.31865160180973,68.51817671360831,536.2880032189713,703.1145930203238,700.9001031074267,160.0,497.17709667589054,672.0246365005146,0.7398197471820065,923.6592640000001,713.736704,89.31865160180973,73.53995244816619,412.65319074754257,589.154609960418,587.5066686291053,180.0,416.59521987032707,503.7752703923173,0.8269465461174814,955.509583448276,713.736704,89.31865160180973,72.43006264236406,492.77089228195456,677.0479890471872,675.088410644817,174.0,478.74522424398145,609.1369383746952,0.7859402280238889,truth
1784137742152305327,1784137752152305327,1638.6308065882351,1385.488896,59.54576773453982,68.46191682065495,1243.0276714065012,1699.7887733687476,1691.4389123208182,102.0,1201.932168233805,1538.803143760413,0.7810824751089424,1477.3300160000001,1007.628288,6.159907007021361,78.73499107479113,1663.557312359908,2049.042018640843,2040.9781494120766,112.0,1448.891506317112,2117.829682593316,0.6841397673409324,1049.0813504810128,713.736704,79.39435697938643,68.30721342714628,571.7876619871463,758.8322047883433,756.4117284923287,158.0,536.5753977885765,714.090807982759,0.7514105934290806,919.7159672928176,713.736704,40.83138358939873,73.24140762555172,387.7530175795915,562.0229503593821,560.4753264141822,181.0,397.41023938158946,470.88996177609465,0.8439556406822613,963.6910080000001,713.736704,79.39435697938643,72.12379031887761,504.73021757947663,691.0547307487598,689.0311838211071,172.0,488.6494862834918,624.592687159473,0.7823490353461795,truth
1784137743152305327,1784137753152305327,1607.1186756923078,1385.488896,17.863730320361945,67.96214828230146,1154.3899964905693,1624.9016459477518,1616.9978231512457,104.0,1148.978972610838,1416.0353767629058,0.8114055562915625,1632.045000784314,1343.504384,17.863730320361945,72.23513402477346,1744.4299145573596,2170.885208088093,2160.687400260058,102.0,1535.0476518166597,2215.374868262993,0.6929065025551379,1030.953016888889,713.736704,84.06461327229151,69.44765375405777,570.1780884836919,764.3458850341333,761.9684426184901,162.0,540.474158479669,710.0351732003707,0.7611934998143368,918.7881327734807,713.736704,84.06461327229151,73.20342003021679,384.80157926048264,558.1301614026479,556.5917649539776,181.0,394.6576219125546,467.1907442746341,0.8447462342716243,933.0412778547486,713.736704,84.06461327229151,73.76093945106908,486.8106709432577,654.5983545646233,652.7693207884643,179.0,462.8709354662011,605.6769000372818,0.7642208831766731,truth
1784137744152305327,1784137754152305327,1575.4188312380952,1385.488896,36.64354937510143,69.09844951916017,1100.7368781256994,1555.9908108694076,1548.5038563746982,105.0,1100.251653829713,1348.3198800189487,0.8160167851372558,1603.889097846154,1343.504384,19.848589244846607,71.46411369305895,1629.7996024144763,2157.4452352444737,2146.9689440665593,104.0,1525.5441558799737,2036.8728488275844,0.7489638623039581,1012.4628681696969,713.736704,84.06461327229151,70.12778053692993,552.7337544751617,745.8403762821763,743.5772743043423,165.0,527.3887877518531,686.9932604831231,0.7676767998873391,907.9150720000002,713.736704,84.06461327229151,74.10112316928996,390.3998968171912,555.9954669837281,554.474272704933,184.0,393.14816501317534,477.01301768728865,0.8241874968513084,898.152544344086,713.736704,84.06461327229151,75.02436263868708,402.9419593433021,532.8675793326602,531.425445215231,186.0,376.79427882058457,503.72361560966783,0.748017895417792,truth
1784137745152305327,1784137755152305327,1559.8245839238095,1637.395968,43.30601289784714,67.73645006834408,1045.2888701011616,1487.5008145657512,1480.3347914469734,105.0,1051.8219129999557,1277.5339430251092,0.8233220876380916,1730.549104,1343.504384,178.63730320361947,67.6544036924572,1716.7853705936668,2304.5876338795188,2292.7056157027882,96.0,1629.5895437548681,2137.0360260911066,0.7625465943761283,1006.6104816484847,713.736704,84.06461327229151,70.23722788494443,548.0968906343679,738.533935438855,736.2852735534606,165.0,522.2223538852022,681.5147170805806,0.7662671704614942,907.599614601093,713.736704,84.06461327229151,74.31028214941567,396.60920926115693,574.7247163584608,573.1503124937718,183.0,406.3917442525828,481.68517191542446,0.843687470462425,886.4149388387096,713.736704,84.06461327229151,75.28510429708061,373.876021950481,491.80563774247076,490.47484223676054,186.0,347.7591014734757,468.07944117448005,0.7429488904723033,truth
1784137746152305327,1784137756152305327,1609.6780377475727,1679.38048,59.54576773453982,65.67951295228765,1035.4158087267556,1440.4928720074472,1433.4293692435483,103.0,1018.5822780473515,1274.9183759545144,0.7989392083903037,1659.9682862795696,1343.504384,43.30601289784714,69.07612090104084,1666.8933963440907,2245.163223256556,2232.9279568748366,93.0,1587.5701400353576,2072.891148802834,0.765872410112916,1014.5827777177916,713.736704,42.032306636145755,70.17867030422954,557.9100368754002,748.1323104117885,745.822567478792,163.0,529.0094299169348,694.6954224853513,0.7614983671899606,915.9621034666668,713.736704,84.06461327229151,74.11230651533539,413.9987064074243,604.625454843088,602.9341915166448,180.0,427.5347591975482,501.39492683212166,0.8526906362989518,876.9849926808511,713.736704,84.06461327229151,75.89921232396243,369.81274307263163,486.47362656587666,485.17115133283755,188.0,343.9888002131436,462.9889658963478,0.7429740783285848,truth
1784137747152305327,1784137757152305327,1613.346587339806,1679.38048,44.65932580090487,66.29433158190751,1028.0130582579102,1439.5040997885712,1432.4947277417075,103.0,1017.8831105063354,1263.1621758786703,0.8058213980309251,1888.3488465454548,1343.504384,43.30601289784714,68.85802118137653,2330.888967588943,3313.1942257861388,3294.100108723819,88.0,2342.782104441492,2849.8724118826876,0.8220656106123008,1009.6763129756098,713.736704,84.06461327229151,71.05570195413605,583.8290804305268,802.7931132150189,800.3719049137096,164.0,567.6604542441996,721.5217215415926,0.7867544902616996,880.7814645106384,713.736704,64.95901934677072,75.42588991448655,352.2044563386558,501.3521313992402,500.01108090112814,188.0,354.50949187473174,430.41546000925194,0.823644884565976,870.6840420523561,713.736704,84.06461327229151,76.0656964088213,356.6006294914587,472.6976985171501,471.4521161188817,191.0,334.24774807275105,445.4966210439273,0.7502812193940147,truth
1784137748152305327,1784137758152305327,1540.0860710280374,1679.38048,89.31865160180973,67.24370454863862,1000.2340329935829,1434.2161442048273,1427.4384593102461,107.0,1014.1439612544567,1219.2999034047264,0.8317428373631458,1887.8717498181823,1364.49664,14.886441933634956,68.24457258414883,2209.1961091853873,3021.4808300631457,3004.1873634314934,88.0,2136.509584162809,2734.731850853011,0.7812501190917106,984.0275268165681,713.736704,84.06461327229151,71.4871836098053,542.5942514334675,736.61945656021,734.4361525062202,169.0,520.868612887674,673.1753021550369,0.7737488455387722,870.6840420523561,713.736704,84.06461327229151,76.20020138062044,346.14496428431755,487.53366223403066,486.26349652853776,191.0,344.73835862239486,424.511960545226,0.8120816152732819,884.5779363404256,713.736704,42.032306636145755,75.18965602892793,355.19178278796846,462.35726167806826,461.1351509574742,188.0,326.9359550634051,445.95834532339484,0.7331087275120315,truth
1784137749152305327,1784137759152305327,1558.675008,1658.388224,19.57669076204049,68.00856164641304,1062.498963556318,1574.0194984832199,1566.4491440742756,104.0,1112.9998610973335,1280.0092771988636,0.8695248393300642,2055.686106074074,1637.395968,19.57669076204049,64.33698855234167,2284.6909491934252,3211.1351098174464,3191.068042415682,81.0,2270.6154114581254,2803.886283941831,0.8098100926782205,989.8848335238096,713.736704,42.032306636145755,71.2147381511431,546.9769926351081,744.4188346439296,742.1989946031287,168.0,526.3836060197099,678.1060467221463,0.776255585043316,866.1492293333334,713.736704,84.06461327229151,76.73611335596495,353.8166283574732,497.8680786207499,496.56304864711655,192.0,352.0458945290494,434.0555921505001,0.81106176465752,894.0895270537634,713.736704,84.06461327229151,74.66083105325451,359.1370690036633,478.2766427090666,476.98225158682186,186.0,338.19265734271653,448.0755872894885,0.7547669789120204,truth
1784137750152305327,1784137760152305327,1591.3744836923074,1679.38048,84.06461327229151,65.99431777445237,1059.5768827384522,1580.5360333482477,1572.8490931045658,104.0,1117.607747090233,1273.1389565516477,0.8778364225986158,2108.3760705641025,1385.488896,57.163937025158226,63.920018170641306,2358.575745399058,3303.2049838233957,3281.6877235941884,78.0,2335.718643710723,2897.9248268857004,0.8059969748148502,979.3073745798815,713.736704,31.06735707889034,71.2674152374457,504.6163403523275,696.2873802790176,694.2498321663219,169.0,492.34952824990967,622.9536683551978,0.7903469443399764,871.0681384421055,713.736704,49.27925605617089,76.35829554274873,347.7971995304588,482.14404874377766,480.8742322673165,190.0,340.9273263754625,428.7307582477597,0.7952014634285782,919.4608128000001,713.736704,31.06735707889034,73.58788323178833,398.89545113139854,520.5415750671359,519.1300755000829,180.0,368.0784776194981,500.49403495276573,0.7354302986932414,truth
1784137751152305327,1784137761152305327,1544.0970524444444,1511.442432,46.09994921383728,68.85480204967199,1018.7712644310207,1531.2535727736338,1524.0927500431933,108.0,1082.759785024365,1220.4939174071114,0.8871488580005734,1962.40548442353,1343.504384,59.54576773453982,68.84336483038702,2304.7560830321218,3173.762655132927,3154.8171829751695,85.0,2244.1890953211146,2847.035099321404,0.7882548043949374,997.2586193734941,713.736704,27.482662031326075,70.74862179923318,528.0899881636647,752.3399269821077,750.1095139700924,166.0,531.9846641264404,645.1776730208029,0.8245552913131996,880.558142638298,713.736704,84.06461327229151,75.63630754069987,352.8054800792993,478.95438305099015,477.67203969749085,188.0,338.6718921343744,437.71461968619576,0.7737276227537783,906.7262840220995,713.736704,79.39435697938643,74.33414400527548,391.624937682566,533.610234587001,532.1259706351732,181.0,377.3194153870127,485.34030639928187,0.7774326805583667,truth
1784137752152305327,1784137762152305327,1496.6911169729726,1385.488896,178.63730320361947,70.59982467569341,974.8209725806728,1408.9897645431315,1402.5706433934952,111.0,996.3062171308852,1185.005830373602,0.8407606035294993,1950.5510339764703,1343.504384,35.72746064072389,74.18068274732128,2408.7406914931707,3347.9221622308014,3327.956007611376,85.0,2367.3384637981285,2966.8026116715205,0.7979426924072819,984.0275268165681,713.736704,42.032306636145755,71.15547018429145,508.391628315066,719.2777347490097,717.1464162503582,169.0,508.60616379752355,622.5624310503098,0.816956080917807,870.6840420523561,713.736704,42.032306636145755,76.19811991192005,347.1352204395539,470.1801102190709,468.9562075332352,191.0,332.4675443149434,430.9737677954784,0.7714333659229073,903.8078914782609,713.736704,84.06461327229151,74.67003573473193,393.48094997813905,550.7096533038685,549.2029209227077,184.0,389.410530316058,483.56409650725806,0.8052924795879942,truth
1784137753152305327,1784137763152305327,1481.183324252252,1343.504384,95.27322837526371,71.99773442609278,985.6516443839658,1419.195037987519,1412.7591209522611,111.0,1003.5224351872747,1199.7873516550892,0.8364169148832333,1813.0920236521738,1343.504384,178.63730320361947,77.29997028660625,2316.404812358164,3169.2235370344038,3151.762117446518,92.0,2240.9794541330425,2867.135862234105,0.7816090906786837,995.8122876167665,713.736704,42.032306636145755,70.56446724664015,510.7820570477702,724.0812259430772,721.909768026696,167.0,512.0027449942186,625.0785663923342,0.8191014258403752,866.1492293333334,713.736704,84.06461327229151,76.61447086125814,348.3225107555361,472.1207033973648,470.883163383124,192.0,333.83975091083937,432.35709009333414,0.7721389531018734,925.0665660782123,713.736704,84.06461327229151,73.7459600468397,417.5722627853893,585.049001518994,583.4032908003653,179.0,413.69211630049944,512.9937677504741,0.8064271776918036,truth
1784137754152305327,1784137764152305327,1468.7081965714285,1343.504384,59.54576773453982,72.46219088603293,1019.4261821120979,1485.6089683095395,1478.91587426354,112.0,1050.484175683226,1235.5974182033817,0.8501832070923884,1820.901306966292,1343.504384,178.63730320361947,77.42957461109478,2318.6046492644305,3179.1256981659476,3161.0189753711857,89.0,2247.981339417559,2867.951357327471,0.7838282660108861,1004.8293205333334,713.736704,42.032306636145755,69.99687579043973,511.5864656370033,706.6580048904556,704.5137077712473,165.0,499.6826672377976,631.3477961290288,0.7914538869090743,868.0462716649215,713.736704,84.06461327229151,76.19612434542852,334.32397655906755,451.31994290737794,450.1306919788534,191.0,319.1313921145324,415.47878392049836,0.7681051463162027,916.0046292154697,713.736704,84.06461327229151,74.16135463227798,409.632778611814,561.9861540171352,560.4229071669787,181.0,397.3842204384638,506.597391722192,0.7844182124340298,truth
1784137755152305327,1784137765152305327,1432.9496486956523,1343.504384,57.163937025158226,73.78453230482577,1009.0777020905232,1475.1975004223386,1468.726428764133,115.0,1043.1221561380805,1221.6479449495678,0.853864781953317,1869.9618603146068,1343.504384,30.406349481467142,75.32580504571087,2326.441538036309,3206.746437703639,3188.4742294924067,89.0,2267.5121516460476,2872.952276121246,0.7892620321237639,1052.0043228354432,713.736704,95.27322837526371,68.80027743222016,583.3010445428722,813.1931594475836,810.5994117071657,158.0,575.0143974598998,717.7460821812444,0.8011390263704675,864.9244544663212,713.736704,95.27322837526371,76.27416211098071,330.89559988651985,448.4981108241513,447.3288360201775,193.0,317.1360555131131,410.72637752561195,0.7721346201908769,927.3912206222222,713.736704,95.27322837526371,73.81702368710695,427.9362824052922,587.7829797573163,586.1390160577087,180.0,415.62533085243354,529.043207852276,0.7856169868236698,truth
1784137756152305327,1784137766152305327,1392.0975691851854,1343.504384,29.77288386726991,73.87589104230062,968.8739961656378,1439.318646932192,1432.6054964281996,108.0,1017.7519755339991,1165.9863202629203,0.872867852604398,1716.919573082353,1343.504384,36.64354937510143,75.93221793094017,1755.7050756657932,2339.1065011859123,2325.1459128012903,85.0,1653.9980689060976,2190.238758552297,0.7551679297280615,1034.9469773150686,713.736704,84.06461327229151,69.24211521006966,558.3083895894907,791.6776807795363,788.948347987443,146.0,559.8006565932491,683.1750348270235,0.8194102946618765,848.0394327272729,713.736704,95.27322837526371,76.95977741347855,303.35354608086465,392.76754448708334,391.6440377010619,176.0,277.7285941368056,381.4186175831842,0.7281464022301831,932.843376,713.736704,95.27322837526371,73.74479793052402,440.42971203725835,609.036280896476,607.1182813142682,160.0,430.65368421053313,543.346449908704,0.7925950087331828,truth
1784137757152305327,1784137767152305327,1394.2356693333331,1343.504384,29.77288386726991,74.37328757695244,953.1971850284702,1420.0538056020926,1412.5644902588374,96.0,1004.129675591003,1145.875885247243,0.8762988108213344,1771.1866129066666,1343.504384,36.64354937510143,75.46319665389981,1822.9770044444676,2419.9525117359053,2403.610215064215,75.0,1711.1648311978768,2276.499017724897,0.7516650865538226,1048.9567920000002,713.736704,84.06461327229151,68.62951810489592,568.9932231281672,797.0071025312886,793.8686534709645,128.0,563.5691268537162,699.0718815402537,0.8061676370275593,848.2475927643312,713.736704,95.27322837526371,76.7772513261719,301.32326229570106,407.1383932074965,405.83172145000674,157.0,287.89031871841576,374.36746519316046,0.7690046424570428,951.2490861714285,713.736704,95.27322837526371,72.86224931998196,453.4968101441461,628.589909222315,626.3250043188298,140.0,444.4801873965352,559.0504405935137,0.7950627620016801,truth
1784137758152305327,1784137768152305327,1361.2860596705882,1343.504384,29.77288386726991,76.14086014105393,894.8892981973964,1289.5578091415985,1281.9525267823042,85.0,911.8550715760917,1088.996729231515,0.8373349956887117,1690.9414325797104,1343.504384,36.64354937510143,77.35739256528004,1779.3428727362104,2431.5257920079216,2413.5886040632754,69.0,1719.3483761587922,2203.1892107157664,0.780390702621594,1064.8798952727273,713.736704,84.06461327229151,68.53211236475093,600.136652453904,841.1273684599878,837.2600957065764,110.0,594.7668660796531,737.1934554403275,0.8067988961247593,868.828744597015,713.736704,95.27322837526371,75.56694602782312,318.4248317131958,435.27354613510516,433.63455152629024,134.0,307.7848761432484,394.23721528021264,0.7807098473047088,938.8955788387099,713.736704,95.27322837526371,73.79070392447743,459.678374500723,638.4485155667517,635.8482662812181,124.0,451.4512747957352,566.3075924000195,0.7971838641302306,truth
1784137759152305327,1784137769152305327,1345.2064588108108,1343.504384,29.77288386726991,75.93405585020359,884.4621703826048,1275.1102987499244,1266.3799839142118,74.0,901.6391390068759,1076.1366517228587,0.8378481836515668,1608.706551466667,1343.504384,36.64354937510143,80.01681940978118,1813.2434659949115,2471.087931342948,2450.060733533543,60.0,1747.3230331608363,2247.0280022374636,0.7776151571858253,1081.4472101978024,713.736704,84.06461327229151,67.75819330126438,613.4893796704005,846.3384629650654,841.62396590534,91.0,598.4516663415975,757.4075781659623,0.7901316062756181,855.7538793739133,713.736704,95.27322837526371,75.8834448211574,287.75516062192753,387.952896557555,386.29833986127704,115.0,274.32412393681034,357.7418097486697,0.7668215357034611,913.0650413457945,713.736704,95.27322837526371,75.24876948159599,441.8488028618142,615.5456118228593,612.6352143751977,107.0,435.2564762495661,543.8167238346409,0.8003734662303529,truth
1784137760152305327,1784137770152305327,1329.5095466666667,1343.504384,29.77288386726991,78.0168545374846,917.1725955894555,1317.69771659695,1307.0673928391436,63.0,931.7529909597328,1117.2865890716641,0.8339426965948922,1505.9999952592595,1175.566336,36.64354937510143,82.25208411246552,1756.7934341126474,2435.093291098452,2412.019642402685,54.0,1721.870978957583,2165.693077560725,0.7950669449878696,1093.8070231578947,713.736704,84.06461327229151,67.69364130996286,641.4667290646964,887.0885597712661,881.1547904343283,76.0,627.2663361272703,791.3454370719885,0.792658056446477,849.645330474227,713.736704,95.27322837526371,76.47922037559121,289.2169420466859,371.54597304847897,369.60680690506257,97.0,262.72267706513367,364.3916527742326,0.7209898335072721,895.8217071304348,713.736704,95.27322837526371,75.81304561618168,415.3120269001924,590.6410972825289,587.3875763670782,92.0,417.6463251359395,507.69472414642524,0.8226327855545832,truth
1784137761152305327,1784137771152305327,1331.5088091428572,1343.504384,29.77288386726991,75.49220148394937,987.6776509046679,1413.568486184414,1398.8363223582414,49.0,999.5438622526017,1204.7698194716293,0.8296554628924614,1897.9469101176471,1343.504384,36.64354937510143,70.05400477325666,2095.450709536069,3077.4951473492497,3030.7643608420726,34.0,2176.1176877593475,2532.604046569634,0.859241179333524,1067.2192082580646,713.736704,84.06461327229151,68.311978214715,587.7117991948769,781.1876761729382,774.8463863959673,62.0,552.3831032012454,733.6530320762259,0.7529214479466,837.5644419240508,713.736704,95.27322837526371,77.01359209507055,273.07720603640314,377.8893453344259,375.4607068837421,79.0,267.2081186241176,336.81186378151244,0.7933453282318277,884.5115433513513,713.736704,95.27322837526371,76.43062222455968,407.3710641327574,565.1050243536677,561.3274687733339,74.0,399.5895948030675,502.0621930078687,0.7958966047794099,truth
1784137762152305327,1784137772152305327,1270.031488,1343.504384,29.77288386726991,80.35790201020352,947.2734086373933,1432.4922612491239,1414.1126194871597,40.0,1012.9249919265069,1132.0977439198239,0.8947328067445058,1554.73896,1343.504384,36.64354937510143,74.04028182422606,1188.9122911659738,1451.38175465242,1427.8119526289743,32.0,1026.281880805156,1516.706175479142,0.6766517453394978,1175.566336,734.72896,84.06461327229151,64.23576540119583,664.8688421306662,914.8385665747497,903.6131283623663,42.0,646.8885541159864,821.5039584501159,0.7874442325712389,836.8438324067797,713.736704,95.27322837526371,77.19367830564191,278.9151414156541,378.4711013720768,375.1970267732804,59.0,267.61948226333675,346.0884548469949,0.7732690256358041,866.2067738947368,713.736704,95.27322837526371,77.66270011903414,404.2328639348544,570.403315962722,565.28947648305,57.0,403.33605272853356,495.44770748751256,0.8140840024750733,truth
1784137763152305327,1784137773152305327,1498.0837236363639,1385.488896,29.77288386726991,59.05304880627537,1004.0721860977867,1282.5269563897687,1259.8685263489035,22.0,906.883507917749,1266.9266203390691,0.7158137601331943,1797.9249844705882,1343.504384,36.64354937510143,68.60695723699747,1402.3420383449898,1734.3868307172565,1680.5936566034482,17.0,1226.3966892008168,1783.5643989993182,0.6876099847523844,1190.5608045714287,713.736704,84.06461327229151,64.9019236324333,735.4251985518903,1046.1286422679434,1026.913407416824,28.0,739.7246569411386,898.9461392579824,0.8228798418910058,815.5491456,713.736704,95.27322837526371,78.39776662077045,264.3199513162341,370.5308354081232,366.3210749080651,40.0,262.00486635580046,324.664131573804,0.8070028095981413,858.4727848421053,713.736704,95.27322837526371,77.49085822081636,375.73616655759315,533.9123018672246,526.6527401235435,38.0,377.5330092092335,459.445042630238,0.8217152742533183,truth
1784137764152305327,1784137774152305327,1374.9927680000003,1364.49664,29.77288386726991,60.13109389275183,724.7926856793117,1144.4709421747664,1092.9177043660234,12.0,809.2631640827344,850.4089839940897,0.951616433168301,1343.504384,1175.566336,36.64354937510143,86.28774294193961,1123.2863262358399,1729.5747511912132,1650.360817743827,12.0,1222.9940351363425,1332.5491122008534,0.9177853363441378,1398.0842496000002,1049.6128,84.06461327229151,58.84644234418663,864.9783168007609,1185.086758742545,1117.3105112016528,10.0,837.9828834012397,1070.1716313910715,0.783035971820689,768.3165696000001,713.736704,79.39435697938643,80.59363560651397,162.3769374094487,211.99923756826252,206.3567369458796,20.0,149.9060984908963,203.70719285916948,0.7358900605661582,859.4476574117648,713.736704,95.27322837526371,78.16940866416914,416.4510302037627,536.5427899984295,519.5318299501396,17.0,379.39304520463924,524.3027558011934,0.723614440333971,truth
1784137765152305327,1784137775152305327,,,,,,,,0.0,,,,,,,,,,,0.0,,,,,,,,,,,0.0,,,,,,,,,,,0.0,,,,,,,,,,,0.0,,,,deceptive
1784137766152305327,1784137776152305327,,,,,,,,0.0,,,,,,,,,,,0.0,,,,,,,,,,,0.0,,,,,,,,,,,0.0,,,,,,,,,,,0.0,,,,truth
1784137767152305327,1784137777152305327,,,,,,,,0.0,,,,,,,,,,,0.0,,,,,,,,,,,0.0,,,,,,,,,,,0.0,,,,,,,,,,,0.0,,,,truth
1784137768152305327,1784137778152305327,,,,,,,,0.0,,,,,,,,,,,0.0,,,,,,,,,,,0.0,,,,,,,,,,,0.0,,,,,,,,,,,0.0,,,,truth
1784137769152305327,1784137779152305327,,,,,,,,0.0,,,,,,,,,,,0.0,,,,,,,,,,,0.0,,,,,,,,,,,0.0,,,,,,,,,,,0.0,,,,truth
1784137770152305327,1784137780152305327,,,,,,,,0.0,,,,,,,,,,,0.0,,,,,,,,,,,0.0,,,,,,,,,,,0.0,,,,,,,,,,,0.0,,,,truth
1784137771152305327,1784137781152305327,,,,,,,,0.0,,,,,,,,,,,0.0,,,,,,,,,,,0.0,,,,,,,,,,,0.0,,,,,,,,,,,0.0,,,,truth
1784137772152305327,1784137782152305327,,,,,,,,0.0,,,,,,,,,,,0.0,,,,,,,,,,,0.0,,,,,,,,,,,0.0,,,,,,,,,,,0.0,,,,truth
1784137773152305327,1784137783152305327,,,,,,,,0.0,,,,,,,,,,,0.0,,,,,,,,,,,0.0,,,,,,,,,,,0.0,,,,,,,,,,,0.0,,,,truth
1784137774152305327,1784137784152305327,,,,,,,,0.0,,,,,,,,,,,0.0,,,,,,,,,,,0.0,,,,,,,,,,,0.0,,,,,,,,,,,0.0,,,,truth
1784137775152305327,1784137785152305327,,,,,,,,0.0,,,,,,,,,,,0.0,,,,,,,,,,,0.0,,,,,,,,,,,0.0,,,,,,,,,,,0.0,,,,truth
1784137776152305327,1784137786152305327,,,,,,,,0.0,,,,,,,,,,,0.0,,,,,,,,,,,0.0,,,,,,,,,,,0.0,,,,,,,,,,,0.0,,,,truth
1784137777152305327,1784137787152305327,,,,,,,,0.0,,,,,,,,,,,0.0,,,,,,,,,,,0.0,,,,,,,,,,,0.0,,,,,,,,,,,0.0,,,,truth
1784137778152305327,1784137788152305327,,,,,,,,0.0,,,,,,,,,,,0.0,,,,,,,,,,,0.0,,,,,,,,,,,0.0,,,,,,,,,,,0.0,,,,truth
1784137779152305327,1784137789152305327,,,,,,,,0.0,,,,,,,,,,,0.0,,,,,,,,,,,0.0,,,,,,,,,,,0.0,,,,,,,,,,,0.0,,,,truth
1784137780152305327,1784137790152305327,,,,,,,,0.0,,,,,,,,,,,0.0,,,,,,,,,,,0.0,,,,,,,,,,,0.0,,,,,,,,,,,0.0,,,,truth
1784137781152305327,1784137791152305327,,,,,,,,0.0,,,,,,,,,,,0.0,,,,,,,,,,,0.0,,,,,,,,,,,0.0,,,,,,,,,,,0.0,,,,truth
1784137782152305327,1784137792152305327,,,,,,,,0.0,,,,,,,,,,,0.0,,,,,,,,,,,0.0,,,,,,,,,,,0.0,,,,,,,,,,,0.0,,,,truth
1784137783152305327,1784137793152305327,,,,,,,,0.0,,,,,,,,,,,0.0,,,,,,,,,,,0.0,,,,,,,,,,,0.0,,,,,,,,,,,0.0,,,,truth
1784137784152305327,1784137794152305327,,,,,,,,0.0,,,,,,,,,,,0.0,,,,,,,,,,,0.0,,,,,,,,,,,0.0,,,,,,,,,,,0.0,,,,truth
1784137785152305327,1784137795152305327,,,,,,,,0.0,,,,,,,,,,,0.0,,,,,,,,,,,0.0,,,,,,,,,,,0.0,,,,,,,,,,,0.0,,,,truth
1784137786152305327,1784137796152305327,,,,,,,,0.0,,,,,,,,,,,0.0,,,,,,,,,,,0.0,,,,,,,,,,,0.0,,,,,,,,,,,0.0,,,,truth
1784137787152305327,1784137797152305327,,,,,,,,0.0,,,,,,,,,,,0.0,,,,,,,,,,,0.0,,,,,,,,,,,0.0,,,,,,,,,,,0.0,,,,truth
1784137788152305327,1784137798152305327,,,,,,,,0.0,,,,,,,,,,,0.0,,,,,,,,,,,0.0,,,,,,,,,,,0.0,,,,,,,,,,,0.0,,,,truth
1784137789152305327,1784137799152305327,,,,,,,,0.0,,,,,,,,,,,0.0,,,,,,,,,,,0.0,,,,,,,,,,,0.0,,,,,,,,,,,0.0,,,,truth
1784137790152305327,1784137800152305327,,,,,,,,0.0,,,,,,,,,,,0.0,,,,,,,,,,,0.0,,,,,,,,,,,0.0,,,,,,,,,,,0.0,,,,truth
1784137791152305327,1784137801152305327,,,,,,,,0.0,,,,,,,,,,,0.0,,,,,,,,,,,0.0,,,,,,,,,,,0.0,,,,,,,,,,,0.0,,,,truth
1784137792152305327,1784137802152305327,,,,,,,,0.0,,,,,,,,,,,0.0,,,,,,,,,,,0.0,,,,,,,,,,,0.0,,,,,,,,,,,0.0,,,,truth
1784137793152305327,1784137803152305327,,,,,,,,0.0,,,,,,,,,,,0.0,,,,,,,,,,,0.0,,,,,,,,,,,0.0,,,,,,,,,,,0.0,,,,truth
1784137794152305327,1784137804152305327,,,,,,,,0.0,,,,,,,,,,,0.0,,,,,,,,,,,0.0,,,,,,,,,,,0.0,,,,,,,,,,,0.0,,,,truth
1784137795152305327,1784137805152305327,,,,,,,,0.0,,,,,,,,,,,0.0,,,,,,,,,,,0.0,,,,,,,,,,,0.0,,,,,,,,,,,0.0,,,,truth
1784137796152305327,1784137806152305327,,,,,,,,0.0,,,,,,,,,,,0.0,,,,,,,,,,,0.0,,,,,,,,,,,0.0,,,,,,,,,,,0.0,,,,truth
1784137797152305327,1784137807152305327,,,,,,,,0.0,,,,,,,,,,,0.0,,,,,,,,,,,0.0,,,,,,,,,,,0.0,,,,,,,,,,,0.0,,,,truth
1784137798152305327,1784137808152305327,,,,,,,,0.0,,,,,,,,,,,0.0,,,,,,,,,,,0.0,,,,,,,,,,,0.0,,,,,,,,,,,0.0,,,,truth
1784137799152305327,1784137809152305327,,,,,,,,0.0,,,,,,,,,,,0.0,,,,,,,,,,,0.0,,,,,,,,,,,0.0,,,,,,,,,,,0.0,,,,truth
1784137800152305327,1784137810152305327,,,,,,,,0.0,,,,,,,,,,,0.0,,,,,,,,,,,0.0,,,,,,,,,,,0.0,,,,,,,,,,,0.0,,,,truth
1784137801152305327,1784137811152305327,,,,,,,,0.0,,,,,,,,,,,0.0,,,,,,,,,,,0.0,,,,,,,,,,,0.0,,,,,,,,,,,0.0,,,,truth
1784137802152305327,1784137812152305327,,,,,,,,0.0,,,,,,,,,,,0.0,,,,,,,,,,,0.0,,,,,,,,,,,0.0,,,,,,,,,,,0.0,,,,truth
1784137803152305327,1784137813152305327,,,,,,,,0.0,,,,,,,,,,,0.0,,,,,,,,,,,0.0,,,,,,,,,,,0.0,,,,,,,,,,,0.0,,,,truth
1784137804152305327,1784137814152305327,,,,,,,,0.0,,,,,,,,,,,0.0,,,,,,,,,,,0.0,,,,,,,,,,,0.0,,,,,,,,,,,0.0,,,,truth
1784137805152305327,1784137815152305327,,,,,,,,0.0,,,,,,,,,,,0.0,,,,,,,,,,,0.0,,,,,,,,,,,0.0,,,,,,,,,,,0.0,,,,truth
1784137806152305327,1784137816152305327,,,,,,,,0.0,,,,,,,,,,,0.0,,,,,,,,,,,0.0,,,,,,,,,,,0.0,,,,,,,,,,,0.0,,,,deceptive
1784137807152305327,1784137817152305327,1291.023744,1007.628288,43.30601289784714,78.22712460049914,1350.0633628287762,1455.146207012522,1434.025467252626,12.0,1028.943750596438,1765.2137395679185,0.5829003749134075,5709.893632,5709.893632,5.954576773453982,25.306951287179423,6175.00689312166,0.0,8732.778496,2.0,,,,1069.205572266667,755.721216,29.165273992427664,65.87839121289117,479.45048705282863,712.5891456358565,688.1399292538911,15.0,503.87661707904243,576.8879583167594,0.8734393044868728,789.3088256,713.736704,44.65932580090487,79.54701219116832,202.31592129296942,263.5265206640584,256.65012698977466,20.0,186.34138978405252,253.97225683904904,0.7337076580854399,855.1582181052632,713.736704,84.06461327229151,76.02996671819936,290.94809954542654,461.94187641337203,448.92680993015756,19.0,326.64223332593343,340.52021814000136,0.9592447553044791,deceptive
1784137808152305327,1784137818152305327,1241.772681846154,1007.628288,57.163937025158226,79.7460448325272,1110.689807389989,1309.6386423356298,1294.7849244843505,26.0,926.0543648994673,1427.751852776015,0.6486101650639889,2568.6887796363635,1343.504384,57.163937025158226,54.7183072789182,3340.9130607155157,5405.053673085549,5127.768365543971,11.0,3821.950104916048,3875.5320739590243,0.9861742934852711,965.6437760000001,713.736704,84.06461327229151,70.31422237488687,394.25629301967797,535.0062094559227,527.2814665870919,34.0,378.3065186831933,489.2015312037951,0.7733142571166557,775.7138407619047,713.736704,84.06461327229151,80.79652423091068,197.4128334457234,303.0491386684351,299.5424694153665,42.0,214.28810098519284,234.48658491738448,0.9138608123816206,869.521340631579,713.736704,84.06461327229151,75.48903009244535,315.98378831988174,467.72915475612194,461.36519625058315,38.0,330.73445708670596,380.78716943950275,0.8685546248145084,deceptive
1784137809152305327,1784137819152305327,1290.1727065945947,1343.504384,35.72746064072389,74.58136462861553,971.7925081396421,1184.1225069911286,1172.0624047008052,37.0,837.3010544490421,1240.2519219343842,0.67510562946206,1800.2958745600001,1343.504384,44.65932580090487,71.99508646018253,2354.8882859146242,3505.9499498627997,3432.1322100341176,25.0,2479.080984048622,2831.6208106913064,0.875498927924387,1032.9939306666668,713.736704,84.06461327229151,68.16500733650548,472.04942173569066,530.8809421605903,525.42240683965,48.0,375.3895142044567,612.5378922439581,0.6128429260584399,783.0444698412699,713.736704,84.06461327229151,80.97576009844623,234.5077181637597,324.54568625359735,322.00391094127605,63.0,229.48845555476038,289.2321976203412,0.7934402097791233,922.1042820740744,713.736704,44.65932580090487,73.29494963468068,391.55984535978774,545.639263136847,540.7481153823113,54.0,385.82522304569557,481.87931437988846,0.8006677430057334,deceptive
1784137810152305327,1784137820152305327,1463.8599850666667,1343.504384,178.63730320361947,71.74299796858399,1438.9505579859187,1899.5999943489378,1881.3772116278005,45.0,1343.2200375460613,1799.732586253678,0.7463442334742114,1507.3463820487805,1007.628288,35.72746064072389,80.31676310849146,1916.4401779896673,2773.3451378329014,2738.471778231935,41.0,1961.0511535323851,2328.6530652376678,0.8421396827235128,958.9505929275363,713.736704,84.06461327229151,71.49218753161067,417.8413314581299,507.5276282629284,503.89131550140996,69.0,358.8762275842419,533.6540857023932,0.6724884849553631,834.3757448101265,713.736704,84.06461327229151,78.33929102857736,319.6290865995129,414.00985344404324,411.3899931994068,79.0,292.7491748483317,401.83885615217486,0.7285238108916692,885.0335129599999,713.736704,84.06461327229151,75.7293441562362,383.5394278202106,535.0642469741011,531.8510964210088,75.0,378.3475574058605,471.83847690477575,0.8018582119198746,deceptive
1784137811152305327,1784137821152305327,1620.9314534901962,1343.504384,25.519614743374213,68.38897647256913,1532.8217807424942,1983.1584138963221,1964.1573465168265,51.0,1402.3047626332473,1927.6555447966418,0.7274664638184534,1747.488688355556,1343.504384,8.506538247791402,74.9028718134741,2087.6918552125126,2855.159576243319,2825.5097348477443,45.0,2018.9026977313601,2584.3626899465644,0.7811994444839722,964.1792,713.736704,84.06461327229151,71.50930711559528,432.42237861216586,517.165575560391,514.1829922736761,86.0,365.6912854749962,554.1779217119977,0.6598806468963652,843.545960489796,713.736704,84.06461327229151,77.82998683838264,331.4694777979648,405.1956901552026,403.12975800787405,98.0,286.516620216307,422.7270308286699,0.6777816399737905,893.8638038709677,713.736704,84.06461327229151,75.19781114437936,385.9171115116155,534.595209508851,531.9499117470954,93.0,378.0158978335516,475.8319287390078,0.7944315524082707,deceptive
1784137812152305327,1784137822152305327,1457.726953411765,1343.504384,89.31865160180973,75.85123414115695,1392.2957612709488,1786.8566345910872,1774.859915195064,68.0,1263.4984433275306,1754.6397965282092,0.7200899271904878,2008.8676285217396,1343.504384,35.72746064072389,73.9344378646689,3208.158481191461,4603.563397891739,4552.13144000824,46.0,3255.2108962714333,3909.777831447622,0.8325820638934283,958.7809230769233,713.736704,84.06461327229151,71.74086264515807,429.4810858697882,526.888228925757,524.3700688293142,104.0,372.5662396007728,547.2706869499358,0.6807714143747938,842.8924485423731,713.736704,84.06461327229151,77.88037237934762,330.7757606544266,425.3103489939706,423.5072784769885,118.0,300.7398318824537,416.65691453843147,0.7217924901489045,896.1784925090908,713.736704,84.06461327229151,75.04541690393607,385.10680585408505,537.761835522733,535.479039277688,110.0,380.25504056144933,473.6217434768775,0.8028665191128701,deceptive
1784137813152305327,1784137823152305327,1397.1231583614458,1343.504384,34.85605916168185,74.52865447216867,1286.641370905952,1635.5588301488713,1626.1655233911974,83.0,1156.5147398278036,1625.4626611934243,0.711498804271938,1939.3898262456144,1343.504384,178.63730320361947,74.82423782389841,2957.0613788060145,4229.086271063825,4191.195104166004,57.0,2990.41558049216,3607.926180512445,0.8288461101683133,964.6028376859506,713.736704,43.30601289784714,70.97139782600088,419.68634688543904,536.3261425081677,534.0868897360061,121.0,379.23985229514807,529.4920459644953,0.7162333318989605,863.502351283582,713.736704,20.128146839844447,76.94281233930315,372.88041227215575,471.74366482393873,470.16283177869576,134.0,333.57314437880086,471.6397803272382,0.7072625302033632,921.9932119365081,713.736704,38.62428177375556,73.83413852647568,409.65872632798664,572.7250591760837,570.4581354896006,126.0,404.97777309887556,503.62391301572876,0.804127370906289,deceptive
1784137814152305327,1784137824152305327,1449.8347241739134,1343.504384,89.31865160180973,73.8001815122884,1293.1878454423727,1669.2394887863413,1660.8465460101477,92.0,1180.3305619451878,1627.2920725760482,0.7253341805301687,1897.3294908235298,1343.504384,29.77288386726991,73.7240871556406,2760.0018881112437,3947.9723821040493,3918.4119659916537,68.0,2791.638043322981,3367.283677133719,0.8290474789160812,964.7376354532375,713.736704,84.06461327229151,70.6613790851338,408.6667837056901,523.4888939708172,521.6143883541371,139.0,370.16254680261045,515.2736405843104,0.7183805218191507,880.5698964210525,713.736704,84.06461327229151,76.23985153565032,400.0239706610999,526.9371122124118,525.1982944855662,152.0,372.6008053042531,500.6222869092586,0.7442753050500719,945.8341823098594,713.736704,84.06461327229151,73.24540773336544,472.7235993239317,651.3815784939779,649.1611004780952,142.0,460.59633129308924,583.8327778698449,0.7889182463745997,deceptive
1784137815152305327,1784137825152305327,1470.7049847128708,1343.504384,22.329662900452433,71.1400258167987,1257.5248727269045,1627.5364053215408,1619.6011869446206,101.0,1150.8420288308387,1581.3029195545978,0.7277808790456125,1719.389250258824,1343.504384,29.77288386726991,77.86378463460939,2510.1407292308954,3549.361638182633,3528.180293214382,85.0,2509.7776832423333,3074.430183210703,0.8163391372320287,967.2585649230768,713.736704,84.06461327229151,70.67649847323749,414.30684959045635,550.6750874080863,548.9151563356959,156.0,389.38608853675254,517.1939367994971,0.7528821605031839,875.8164480000002,713.736704,84.06461327229151,76.41689179396919,391.60086655637,523.1024450370795,521.5776553775991,172.0,369.8892861409822,488.1530860032098,0.7577321474488231,944.3891168000002,713.736704,84.06461327229151,73.02163912748298,459.02447070532094,628.4943677794558,626.5910257955944,160.0,444.4126293944052,568.027848639462,0.7823782415930143,deceptive
1784137816152305327,1784137826152305327,1567.152649846154,1343.504384,22.329662900452433,69.55953389567115,1440.7246884933115,1802.7966642163663,1794.2135419657875,104.0,1274.7697463678799,1827.2537598650288,0.6976424262287694,1578.6991745242722,1007.628288,29.77288386726991,81.61646634589854,2312.3590510058953,3242.4738927760654,3226.5469849607603,103.0,2292.7752774022983,2839.9999164091846,0.8073152622839576,955.2682931494254,713.736704,84.06461327229151,71.33250880282321,409.4306388264068,539.319604176397,537.758837009631,174.0,381.356549339975,512.3968063496812,0.7442601995448839,875.6769645714285,713.736704,95.27322837526371,76.67732243467363,407.5515173696657,554.6301328387256,553.1530859211799,189.0,392.1827279806585,505.26511116191097,0.7761919818267138,919.9273073777778,713.736704,84.06461327229151,74.04643486837669,431.4198607803138,588.4566908152078,586.8106548893234,180.0,416.101716510029,534.4865511031259,0.7785073649678134,deceptive
1784137817152305327,1784137827152305327,1659.6734641632654,1343.504384,19.848589244846607,68.15846721922891,1473.7145626493746,1871.3132573776418,1861.722827395171,98.0,1323.2182940160176,1862.3146612536627,0.710523480025261,1447.7023092363636,1007.628288,178.63730320361947,84.40594847340498,2029.6950612713688,2820.8442903080168,2807.8900399155614,110.0,1994.6381263481528,2500.006691182633,0.7978531151068982,939.314505762712,713.736704,95.27322837526371,72.27000822360282,402.12126811036234,513.3890815311671,511.9290124085665,177.0,363.0209009378216,507.45535889821673,0.7153750464395722,889.0837835294119,713.736704,95.27322837526371,76.02656111764311,419.74552442986425,564.1513966101297,562.6332242562246,187.0,398.9152781588842,522.308252838794,0.7637544993607558,915.0767946961328,713.736704,84.06461327229151,74.3856212860551,430.77551129047936,588.6919995023812,587.0663284966823,181.0,416.2681048784014,533.3812095355628,0.7804326388641688,deceptive
1784137818152305327,1784137828152305327,1807.6157829565218,1511.442432,44.65932580090487,61.69687731889899,1553.8366863617398,2008.9805252187768,1997.9142880269326,92.0,1420.563752653909,1954.4350099428186,0.7268411307754208,1525.4372693333335,1007.628288,4.944977251311265,85.82567704270087,2318.868661509857,3079.923651865937,3066.2755601928884,102.0,2177.8348997712396,2895.310227477226,0.7521939718594007,947.5141003636364,713.736704,79.39435697938643,71.7976812742058,414.1102350540959,558.2319250406183,556.6347433537137,176.0,394.7295796710417,514.8483786703407,0.7666909249874291,896.5724820645163,713.736704,79.39435697938643,75.32104814720556,418.1006209188943,575.7041829394681,574.1461621933025,186.0,407.0843317139586,516.4856550399342,0.7881812935975603,916.2773717802199,713.736704,79.39435697938643,74.36460445227901,434.6651978854973,597.8187170067296,596.1650419049862,182.0,422.72166871570016,537.1413816722595,0.7869839918117251,deceptive
1784137819152305327,1784137829152305327,1795.8536423225805,1343.504384,59.54576773453982,68.64035205860002,1663.5172032266862,2183.043159954491,2171.160238947599,93.0,1543.6446220267296,2084.0248586104367,0.7407035552618043,1897.890781090909,1007.628288,4.357007395210231,81.87981769706197,3128.1394621080153,3298.5111882212077,3282.2819306239485,88.0,2332.3996290109126,4104.932273995483,0.5681944240070741,933.8015899325844,713.736704,84.06461327229151,72.71989300710972,408.8444759913253,565.5701504983957,563.9704312616662,178.0,399.91848865411185,504.32153663466346,0.7929831657056866,905.0759554098362,713.736704,79.39435697938643,75.28840649416603,455.2943262071971,618.0293826083243,616.329204173987,183.0,437.01276741488147,564.8856233885977,0.7736305356708476,914.8448360662984,713.736704,84.06461327229151,74.91149469771587,470.73463588349597,655.8941159216055,654.0696503125838,181.0,463.7871771085227,579.3383484765953,0.800546309989799,deceptive
1784137820152305327,1784137830152305327,1690.0908146938775,1343.504384,59.54576773453982,69.73451248780685,1520.281321399315,2032.3586631034048,2021.8554472460578,98.0,1437.0945924836435,1894.7005458695655,0.7584811202047205,1852.9921107027028,1007.628288,3.9697178489693212,84.35648769486693,3089.569967083219,3615.1446228510326,3595.0119451042933,74.0,2556.293277788049,3977.8848025015786,0.6426262711731795,935.2820950056499,713.736704,89.31865160180973,72.65405092276656,410.01436850932186,574.4627574296577,572.8284858441468,177.0,406.2065113176337,503.7079509495304,0.806432597603237,934.0374579775282,713.736704,84.06461327229151,74.40899599895114,524.2451070194996,723.9076237957248,721.8599463750953,178.0,511.8799897385971,647.0357814838219,0.7911154288325797,936.7794240000002,713.736704,84.06461327229151,74.08164879874252,494.42827149803514,690.4041991225553,688.4289568540925,176.0,488.1894909592263,608.0741252278009,0.8028453616182688,deceptive
1784137821152305327,1784137831152305327,1689.9826294949494,1343.504384,35.72746064072389,67.60655671399455,1453.4130689877234,1936.0782654430436,1926.2237728175146,99.0,1369.0140704026646,1813.2069202736873,0.7550236297333479,2169.782904888889,1007.628288,35.72746064072389,83.61051001941081,4454.700910859558,3821.2628123325385,3794.2570830361897,72.0,2702.0408472963154,6003.183158974666,0.45010135052381434,932.5721771620111,713.736704,84.06461327229151,72.86643570408657,408.29297264492396,572.5527314484949,570.9470441295728,179.0,404.855918994111,501.450042825977,0.8073703946907669,924.5922531555557,713.736704,64.95901934677072,74.97010553248981,513.1287303249063,717.9058176985611,715.8995683278097,180.0,507.6360719479259,630.678203998157,0.8049050509908051,945.6057134545456,713.736704,38.62428177375556,73.49701084325751,499.09284652766524,701.1151568064254,699.1290242765732,176.0,495.763281770493,612.6146612139238,0.8092579449341214,deceptive
1784137822152305327,1784137832152305327,1783.448472510638,1511.442432,89.31865160180973,63.4149711716068,1512.5922890239347,2037.3917470650301,2026.4084231323989,94.0,1440.6535202831901,1880.991648805799,0.765901072021149,2291.071495111111,1007.628288,35.72746064072389,83.52226389759718,4666.303863647297,4339.272030605878,4308.608009920767,72.0,3068.3286782545365,6232.291958571883,0.49232749342468834,922.4994708508289,713.736704,44.65932580090487,73.26723079486497,395.02720755939555,546.9520964925853,545.4307189495602,181.0,386.75353641410595,487.1384202256469,0.7939294466549328,917.4307924395604,713.736704,84.06461327229151,75.3430177970163,507.75166584196415,700.6690096441724,698.7406354668465,182.0,495.4478080866568,626.8087771096085,0.7904289572512145,922.4994708508289,713.736704,28.581968512579113,74.73315500636487,485.9943969317274,666.9382254101175,665.1303181505237,181.0,471.5965418200163,600.9820784098039,0.7847098254042097,deceptive
1784137823152305327,1784137833152305327,1724.863701333333,1343.504384,178.63730320361947,69.84287789495886,1571.1016289647591,2154.7244153703464,2143.3537586103103,96.0,1523.6202456965912,1943.196163675497,0.7840794841909884,2568.8062188307695,1007.628288,44.65932580090487,82.66138127307036,4962.34294223457,4345.739042367118,4311.6542883327675,65.0,3072.901546124922,6672.955342020658,0.46050084087546245,922.9595221333332,713.736704,44.65932580090487,73.05196013646113,385.3180390311011,525.4404361558325,523.9824815298948,180.0,371.54249551540636,477.4076553833615,0.778249974263725,916.7387400439561,713.736704,84.06461327229151,75.81996839814305,516.4431111308456,722.2732775405445,720.276628615066,182.0,510.7243324187524,634.8285612720365,0.8045074900149255,911.7292387322404,713.736704,84.06461327229151,74.8465160564316,464.31041554026166,645.7629938038654,643.9864760121094,183.0,456.6233919580397,571.765566396498,0.7986199568397732,deceptive
1784137824152305327,1784137834152305327,1659.64775936,1343.504384,35.72746064072389,70.51586787850525,1485.4852373321562,1959.910378697665,1950.0132803804281,100.0,1385.8659192950133,1858.230504413228,0.7457987133477971,2720.7340317377057,1007.628288,89.31865160180973,76.19530703038448,5083.171632243496,4441.612191163537,4404.4467922721615,61.0,3140.694099772577,6837.052579256421,0.459363748247516,923.4260167111113,713.736704,84.06461327229151,73.32320950493136,394.46166571011514,524.9524070456918,523.4842160114719,180.0,371.19740682220936,492.2461315377002,0.7540890279069263,894.6105205621624,713.736704,95.27322837526371,76.397021637488,484.51969070725175,682.3228785839066,680.4662142482766,185.0,482.47513440540564,594.2453480729528,0.8119123455825091,891.2063709405409,713.736704,95.27322837526371,75.40780635220342,412.2751658203331,579.4395856929249,577.8717060046641,185.0,409.72566033139077,505.96844401342776,0.8097850077000398,deceptive
1784137825152305327,1784137835152305327,1535.8994292815532,1343.504384,178.63730320361947,74.67650359894576,1304.497661583116,1747.3713126016896,1738.9842127004874,103.0,1235.5781043914933,1624.83896805985,0.7604311126701028,3079.6417042962967,1343.504384,89.31865160180973,67.90824861873205,5329.51658678843,4746.4542088772005,4701.480190708898,54.0,3356.2499576884984,7153.690460766664,0.46916343055313126,928.8193716201118,713.736704,51.039229486748425,72.93409245765838,393.6898899727168,508.5365243294491,507.1153092736456,179.0,359.58962483439115,495.30910529606723,0.7259903381332939,903.5797147826088,713.736704,51.039229486748425,75.89122446354935,489.5201096608678,679.308404024733,677.4563929008568,184.0,480.34357900289973,603.2370169179926,0.796276696441857,895.2913504864866,713.736704,51.039229486748425,75.22326652628446,416.48363264780346,592.6817800256711,591.0743666467795,185.0,419.08930574186564,509.01798537322975,0.8233290724188749,deceptive
1784137826152305327,1784137836152305327,1506.8202838899085,1343.504384,19.848589244846607,74.86491846579753,1276.184648791767,1762.4029046707033,1754.2274135441878,109.0,1246.2070450755227,1575.0487344922374,0.791218086008795,3204.5486178461533,1511.442432,44.65932580090487,67.68595481285662,5410.435848392468,4890.280933955461,4842.139959553406,52.0,3457.9508103071894,7250.304837445704,0.47693867883290714,949.8096171885716,713.736704,84.06461327229151,72.53951939381757,453.0946694931848,604.7345038387233,602.9944501605147,175.0,427.61186848184354,564.9456646554694,0.7569079563476631,898.4685568000001,713.736704,84.06461327229151,75.77415487834833,467.1138439428952,636.9684836614773,635.2353967963851,185.0,450.40473419914326,578.755971124026,0.7782290925213152,903.3515380869567,713.736704,84.06461327229151,74.82444239046961,421.1959847059681,600.4333520858846,598.790752303176,184.0,424.5704949104989,514.4726061614818,0.8252538421399164,deceptive
1784137827152305327,1784137837152305327,1415.2727805811965,1343.504384,44.65932580090487,74.49134071413512,1131.7983558330782,1582.3678834609143,1575.543211564687,117.0,1118.9030607270172,1391.3888769430257,0.8041627177481265,2802.828111448276,1511.442432,25.519614743374213,70.34699853828336,5015.720128511287,4319.228789386699,4287.024923934792,58.0,3054.155966471497,6756.54959882186,0.45202894196233684,964.4161586900584,713.736704,89.31865160180973,71.95074211739569,475.1626249040996,643.180595682982,641.2862881343061,171.0,454.79736073503966,590.0328131093466,0.77080011590941,895.2913504864866,713.736704,84.06461327229151,75.96764921923065,466.9717027236243,636.3255975815533,634.5941371692925,185.0,449.95014509249853,578.703357303914,0.7775143161234522,914.6128774364639,713.736704,89.31865160180973,74.5185995087289,446.8562373875105,624.3812165078232,622.6444523350378,181.0,441.50419223818767,549.4524710130066,0.803534819716438,deceptive
1784137828152305327,1784137838152305327,1406.4811519999994,1343.504384,34.85605916168185,77.32440710226324,1182.9984256452976,1670.6486694163207,1663.493862954001,118.0,1181.327003124563,1449.5529676430851,0.8149595285540708,2281.1584853333334,1343.504384,44.65932580090487,73.15081789730647,4297.594030590546,3320.132719548481,3324.0478388102915,72.0,2347.6883604320647,5846.606587130768,0.4015471753477767,977.1395352380953,713.736704,51.039229486748425,70.80773660210464,466.8578252526631,650.900303712442,648.9509604341791,168.0,460.25601863145107,574.4516138510318,0.8012093752265196,887.5435547526884,713.736704,84.06461327229151,76.20704821725923,454.2721219128159,616.3327329489878,614.6999447021092,186.0,435.8130549354667,563.7018822642448,0.7731268399972665,935.2411983448277,713.736704,46.09994921383728,73.62597188048953,466.6117864365394,656.2384792594931,654.3492133612547,174.0,464.03067875993514,572.5302464217889,0.8104911166877968,deceptive
1784137829152305327,1784137839152305327,1493.5035950545453,1343.504384,44.65932580090487,72.01341918330752,1329.8144543002195,1785.1849685295906,1776.9798498046628,110.0,1262.3163969195668,1655.3222111617974,0.7625804743075385,1789.147216192771,1343.504384,17.643190439863652,74.81960258637103,2353.88155641069,2457.6783803926132,2446.1333942063593,83.0,1737.8410487511883,3093.7794051707224,0.5617210606052534,985.6364007619047,713.736704,79.39435697938643,70.45628501392162,480.72032688060847,669.4799366177859,667.4725433528123,168.0,473.3938030507765,591.7205581767118,0.8000293322737687,874.305130212766,713.736704,84.06461327229151,76.34505673923063,389.1450184266622,512.3463357987796,510.9758225858198,188.0,362.283568359397,487.0759681825471,0.7437927387614817,936.7794240000002,713.736704,84.06461327229151,73.3737188580551,462.99296438488864,653.1672078810113,651.3111120737836,176.0,461.8589619413465,567.5104578569847,0.8138333938116382,deceptive
1784137830152305327,1784137840152305327,1569.9785304615384,1343.504384,29.77288386726991,72.7957408511112,1469.0143460099564,2035.7135742918806,2025.8099912773007,104.0,1439.4668729352934,1811.0698104786197,0.7948157849060931,1683.275950185567,1343.504384,43.30601289784714,77.50174115451937,2222.6781541600535,2313.8827599459,2305.6109592335856,97.0,1636.1621904283904,2922.6842110065486,0.5598149072235585,973.2550033216374,713.736704,79.39435697938643,71.18925691212874,478.38702724268796,664.2649466157638,662.3087589969114,171.0,469.70624825652664,589.4033558121141,0.7969181777211602,870.2444136544502,713.736704,44.65932580090487,76.76391568125696,407.87282621447395,566.3690998894929,564.876688600082,191.0,400.4834311863815,502.52064176604364,0.7969492154171706,924.8255004444444,713.736704,84.06461327229151,73.74608841643331,443.35563280191036,623.7864414151912,622.0426863277406,180.0,441.08362273690676,543.9219182483896,0.8109318781588053,deceptive
1784137831152305327,1784137841152305327,1649.8666151287132,1343.504384,59.54576773453982,72.51084051810612,1852.278870414658,2588.3035899382808,2575.3383164258753,101.0,1830.2070202148432,2277.5085420580435,0.8036005074918394,1595.8487946666667,1175.566336,11.164831450226217,78.00790183848648,1895.9694657385337,2113.7754439770097,2102.811108868908,96.0,1494.6649503417489,2464.221737818184,0.606546451321025,995.3094790898205,713.736704,84.06461327229151,69.75952958836477,480.25423358072146,665.9943554860567,663.9853663317641,167.0,470.9291249961548,591.946904172655,0.7955597396938112,880.111498893617,713.736704,46.09994921383728,76.2311628649431,394.7430074412387,545.9631649304307,544.5104858610307,188.0,386.054256200377,486.9549665855094,0.7927925222887849,923.1927694222223,713.736704,84.06461327229151,73.86286889919562,439.4639858404691,616.1122561588345,614.3888618566808,180.0,435.6571543020551,539.7764459980648,0.8071066411512462,deceptive
1784137832152305327,1784137842152305327,1736.3910278736846,1343.504384,89.31865160180973,68.66440470812647,1893.3078279522847,2671.0518050509736,2656.8445379295945,95.0,1888.7188442521115,2320.6894722160223,0.8138610817450631,1693.812656,1175.566336,7.766839269722585,77.93632376246198,2305.1940369760655,2016.5549507407184,2005.991318881958,96.0,1425.9196803040663,3100.1960629742107,0.4599450006836319,998.5777345149702,713.736704,84.06461327229151,69.62432919767836,484.5862312198844,677.8708741359918,675.8260574538616,167.0,479.32709187041246,595.6260575858893,0.8047450002660327,891.7779768128344,713.736704,84.06461327229151,75.49631661039793,402.7033058176668,557.1414304279658,555.6417199541667,187.0,393.9584835355877,496.7275527471016,0.7931077737823079,942.1609133559323,713.736704,84.06461327229151,72.55853262656397,444.0024231963701,625.2791068412929,623.5104828203387,177.0,442.139096581746,544.5482653038533,0.811937388754762,deceptive
1784137833152305327,1784137843152305327,1769.1558726808512,1343.504384,178.63730320361947,68.81262347727731,1906.3321100445703,2696.7094682355096,2682.193728463077,94.0,1906.8615518792974,2334.554291199116,0.8167989748912031,1714.4397116701032,1007.628288,59.54576773453982,78.61103688835729,2502.2182143606724,2328.8962088755675,2317.0544305701706,97.0,1646.778301975556,3341.594319576791,0.49281215625962593,992.3839116190478,713.736704,84.06461327229151,70.20096105919417,491.50042415507545,692.2575999432296,690.1818603381028,168.0,489.50004324778183,602.7770630336294,0.8120747673845583,877.4763008000001,713.736704,84.06461327229151,76.27455431272062,402.7603452490436,559.7413824709683,558.2586212372304,190.0,395.79692725595464,496.0888908226326,0.7978346916812223,947.2755520000002,713.736704,84.06461327229151,72.29572580543599,446.37271208065914,624.8398663127371,623.0624445314866,176.0,441.82850662543217,548.5353056522946,0.8054695879603022,deceptive
1784137834152305327,1784137844152305327,1903.7804579310346,1679.38048,25.519614743374213,62.966480220502106,1952.0181362047404,2828.8527113992477,2812.401191558756,87.0,2000.3009352083595,2370.6850681705355,0.8437649361633671,1743.4621035789476,1007.628288,44.65932580090487,78.04982901618757,2516.231757104205,2339.0697891136524,2326.6632551685966,95.0,1653.9721095508512,3360.8083315377244,0.4921352086728739,965.1584059190751,713.736704,64.95901934677072,71.31681395867388,470.42587584703057,663.102604191467,661.1960059075548,173.0,468.88434804624546,576.7796315851621,0.8129349969547498,884.1444291764706,713.736704,89.31865160180973,75.8986930586957,408.0124729103226,565.1473474989609,563.6261319374868,187.0,399.6195217861055,503.0909212105855,0.7943286291561429,950.2894401828572,713.736704,62.13471415778068,72.2169279947905,452.61914502794104,632.3205548337639,630.5232696615205,175.0,447.11815220659463,556.570624337405,0.803344863446372,deceptive
1784137835152305327,1784137845152305327,1890.2572334545453,1679.38048,43.30601289784714,62.542373455519446,1928.3056008245196,2797.2218323151387,2781.1918692087247,88.0,1977.9345261130943,2341.070798918159,0.8448845404535074,1676.411878141414,1007.628288,44.65932580090487,80.96186332336528,2473.3093154657086,2280.199730011304,2268.559528582711,99.0,1612.344691550728,3306.7643154227057,0.48758984244228515,974.7815815529412,713.736704,21.65300644892357,70.75979770756813,463.1596023286336,635.9814669276751,634.2236389692055,170.0,449.7068079735271,572.6390904309333,0.7853232786380426,885.2479019574469,713.736704,36.64354937510143,76.24516284740561,417.69140674293106,587.3389686837921,585.7912214994867,188.0,415.31136761142267,512.5333711087916,0.8103108812465358,956.4747446436782,713.736704,84.06461327229151,72.15441980886331,467.9957033095664,663.5244117273301,661.6041098734322,174.0,469.18261101520983,572.6899644597472,0.8192611013496943,deceptive
1784137836152305327,1784137846152305327,1918.59456,1679.38048,21.986129625060858,60.856029237833205,1929.161060513818,2803.0498941264887,2786.582625143708,86.0,1982.0555881410742,2340.737622538026,0.8467653824404129,1666.3652812799994,1007.628288,35.72746064072389,80.48187304723353,2458.6684357072263,2239.4254897949777,2228.1098006474385,100.0,1583.5129497960345,3291.8603133183174,0.4810389260411219,965.3982525380119,713.736704,43.30601289784714,70.70896884804323,426.15702034649814,588.0695745115343,586.3437004607232,171.0,415.8279839465936,526.0828412566476,0.7904230119980922,879.9069830736844,713.736704,84.06461327229151,76.34624450890104,413.23622436651686,589.3125283508836,587.7514328182692,190.0,416.70688503509933,504.68409945188563,0.8256786482626769,949.899584,713.736704,84.06461327229151,72.58277427781024,467.61937297640816,673.7735763113377,671.8646411024812,176.0,476.42986479405863,569.0720937911609,0.8372047583990293,deceptive
1784137837152305327,1784137847152305327,1956.4782592000001,1679.38048,30.406349481467142,61.720096736591906,1948.2093226305792,2820.019671811606,2803.4759211568744,85.0,1994.0550330174485,2367.0469771887274,0.84242309182462,1673.01919030303,1007.628288,59.54576773453982,81.73303686653625,2474.466153781861,2252.5096666749832,2240.9904233545817,99.0,1592.7648599941303,3313.2333969715946,0.48072824010827925,976.2012848654971,713.736704,84.06461327229151,70.47906563630987,440.6925483866956,609.5437842344935,607.74836418061,171.0,431.01254326232015,543.6303322869259,0.7928412335808251,888.85926742246,713.736704,84.06461327229151,75.83109796319752,417.20175203790325,592.8511592443724,591.2554978522217,187.0,419.20907493600146,510.143587191531,0.8217472207067289,940.8347461818182,713.736704,42.032306636145755,72.5124670942134,425.6178349254348,609.2898087640505,607.5601761471409,176.0,430.8329554849148,519.1267331271778,0.8299186460493214,deceptive
1784137838152305327,1784137848152305327,1911.501747494253,1679.38048,25.071902204016766,59.59997296244613,1889.8436524394901,2760.3039011378905,2744.20874087522,87.0,1951.8296066302837,2288.7111339512467,0.8528073192271458,1772.7290226382977,1007.628288,178.63730320361947,78.47216432557477,2545.06894297229,2344.891413895054,2332.3874134775115,94.0,1658.088619911304,3402.957965245015,0.4872492216611675,975.219191017544,713.736704,49.27925605617089,70.6559831978723,440.8797731809389,596.8619239124059,595.1112378001567,171.0,422.0451138305114,547.4384985969178,0.7709452567041064,906.3178351304349,713.736704,84.06461327229151,75.32658654916212,448.1710108822406,638.7919776602456,637.0442535159671,184.0,451.69413917112524,547.4492782985899,0.82508856450581,931.6339757765364,713.736704,49.27925605617089,72.71856986907778,407.24395354181127,577.36577239988,575.7486314779435,179.0,408.25925288896394,498.3547597926625,0.819214113774729,deceptive
1784137839152305327,1784137849152305327,1686.2350942040816,1679.38048,35.72746064072389,62.70755726100235,1552.984620897791,2240.791992677023,2229.254622587364,98.0,1584.4792132504394,1888.9773097839861,0.8388026711827642,1754.0687171368418,1007.628288,19.848589244846607,78.4687259973215,2523.9654896841485,2337.8134686464173,2325.413671985624,95.0,1653.083756829126,3372.6044287296636,0.4901505029013385,958.1637767356322,713.736704,84.06461327229151,71.69353932668851,433.61586346171714,585.660881607666,583.9658173899934,174.0,414.1247808604724,538.791023523902,0.768618560405732,896.3467588817205,713.736704,84.06461327229151,75.1234020757332,395.15729026207305,551.838250618225,550.3447749417433,186.0,390.20856913026836,485.9703739768329,0.8029472371681454,933.8588912090396,713.736704,95.27322837526371,73.27798286709458,453.49803493676615,650.0445132623901,648.2078508289737,177.0,459.6508834009446,552.8846788231541,0.8313684589331308,deceptive
1784137840152305327,1784137850152305327,1478.8750068037384,1637.395968,43.30601289784714,66.2379855015858,869.2389335365185,1256.5127840706316,1250.5718547219117,107.0,888.4887102639318,1056.6203447871783,0.8408779129109888,1704.9362699130434,1343.504384,44.65932580090487,76.30336205168453,2163.7210488752394,1962.4822132362629,1957.5276400789423,92.0,1387.6844809373456,2898.369100955632,0.4787811464315594,981.696677647059,713.736704,23.81830709381593,70.91681491892834,469.0804459950142,631.4320257175641,629.6517357632562,170.0,446.48986724324806,583.4349396927787,0.7652779030998001,908.0584617267759,713.736704,44.65932580090487,74.40616031860908,396.6032043201013,548.1556526338906,546.6586077979209,183.0,387.6045791231616,489.3562592583469,0.7920703409630502,971.7818625497077,713.736704,29.165273992427664,71.34209751117994,480.80806929110406,681.8768286483618,679.9142820861326,171.0,482.15972947123413,588.3143688785711,0.8195613688482807,deceptive
1784137841152305327,1784137851152305327,1496.4479634285713,1658.388224,95.27322837526371,66.64229332802402,911.85598767412,1268.3231703986082,1262.601666218696,112.0,896.8399145248769,1122.8542952546406,0.7987144176364323,1554.2501697254902,1343.504384,178.63730320361947,78.80103631651912,1624.9041077236984,1942.1954934962428,1936.6839597621183,102.0,1373.3396038411465,2082.6895795714295,0.6594067677256775,985.021243076923,713.736704,84.06461327229151,70.6468537968582,463.34929749443546,634.1103313378076,632.220330829211,169.0,448.38371530941225,573.4641792647886,0.7818861779375023,890.2063640641711,713.736704,84.06461327229151,75.05609781177327,371.05621429848543,501.70097993385525,500.3505546984837,187.0,354.75616503916507,460.911553361813,0.7696838199251722,966.3718311213875,713.736704,84.06461327229151,72.03756562851851,491.0922194645333,704.9667411121432,702.9144318342172,173.0,498.48676315137766,598.413410209559,0.8330140244965636,deceptive
1784137842152305327,1784137852152305327,1510.2868949724773,1679.38048,25.071902204016766,66.49844887020735,915.6991273407656,1223.6506986136399,1218.0400328342125,109.0,865.251706793361,1141.3498699219565,0.7580950675996707,1398.518572137931,1343.504384,25.519614743374213,81.47006203578712,1100.190864832595,1456.1822312631634,1449.9107236233945,116.0,1029.6763303695402,1375.0357106128356,0.7488360647089135,1002.569913060241,713.736704,44.65932580090487,69.98998057883502,478.2236286128697,657.0572732469285,655.0774466729091,166.0,464.6096535408454,591.1553204071224,0.7859349945812442,892.3410874810812,713.736704,84.06461327229151,75.29069076823058,390.46699562083137,533.9788944872845,532.5258879994598,185.0,377.5800973024548,483.3689940395961,0.7811425680140431,959.785472,713.736704,84.06461327229151,72.5414099496647,490.3414794227814,707.9081015658251,705.8362273359699,172.0,500.5666190740901,596.3103745696626,0.839439728740813,deceptive
1784137843152305327,1784137853152305327,1446.9925232280698,1637.395968,43.30601289784714,67.88975737379802,827.7753591827974,1117.7005839119788,1112.74904023246,114.0,790.3336622203241,1028.6449541611157,0.7683250270399273,1304.164565669291,1343.504384,43.30601289784714,83.35226734794922,949.6585912187686,1245.4653571149756,1240.5153817778041,127.0,880.6769997489243,1189.918858917636,0.7401151710041795,1005.5926752969697,713.736704,84.06461327229151,69.73731276093524,473.954115350158,660.6325399127933,658.6237449942171,165.0,467.13774884482865,583.2290876806426,0.8009507048122713,900.9463312786885,713.736704,84.06461327229151,74.85511690107988,398.22031974589646,545.7303190232732,544.2526572550191,183.0,385.8896092804544,492.64941981264644,0.7832945574709241,959.8193350289018,713.736704,84.06461327229151,72.50323548060014,489.16566345967374,709.1982275888657,707.1443847048288,173.0,501.4788759335674,593.9912129923207,0.8442530208608501,deceptive
1784137844152305327,1784137854152305327,1391.0868309333334,1385.488896,178.63730320361947,71.81326358748332,829.4837163007963,1090.269092700091,1085.6784656047002,120.0,770.9366687663389,1038.708235065117,0.7422071403121289,1281.496489353846,1343.504384,14.886441933634956,85.09043154091823,947.9595085637433,1249.5256199421763,1244.8473531257644,130.0,883.5480391274376,1186.139069009135,0.7448941378058874,1009.6763129756099,713.736704,64.95901934677072,69.34908294385868,469.40813792661123,662.4531360139713,660.4445155016632,164.0,468.4251046937734,575.305971244668,0.8142190905481843,907.14076747541,713.736704,84.06461327229151,74.72974253658217,409.5890357765724,539.6526382669009,538.1682317374027,183.0,381.5920400037366,512.5623025151751,0.7444793308662004,966.3760640000002,713.736704,64.95901934677072,72.41689250026252,501.2392626740542,718.2601362984232,716.1589432773449,172.0,507.8866130325889,611.1523468360419,0.8310311097747337,deceptive
1784137845152305327,1784137855152305327,1360.6480597333332,1364.49664,22.329662900452433,71.18491260751146,785.0526552875267,1064.263199060701,1059.8158971568691,120.0,752.5477250231102,974.3979186806913,0.7723207435028593,1273.745502523077,1175.566336,178.63730320361947,86.41499713372056,972.7080947523331,1272.966578563329,1268.0230003594077,130.0,900.123299925968,1219.5126476009261,0.7381008320797053,997.9591276606061,713.736704,84.06461327229151,70.24226689280061,478.6437424116886,666.6050975749066,664.5697067191563,165.0,471.36098486873664,589.1596347947822,0.8000564822009955,915.8160035164836,713.736704,37.60785330602515,73.96399555987566,405.0120131972794,522.9577326572303,521.51852541078,182.0,369.78695903586913,509.6059891050424,0.7256330713170777,973.7937106823532,713.736704,68.05230598233122,71.59129117707087,488.4099248909353,693.5682909313063,691.5143848699511,170.0,490.4268417334909,597.3518778053643,0.8210015904449657,deceptive
1784137846152305327,1784137856152305327,1365.8731813770494,1343.504384,35.72746064072389,71.81234336429083,819.8370533249749,1076.6897274584683,1072.2349588421216,122.0,761.3346075197786,1026.8643511708387,0.7414169229379703,1281.8194471384616,1175.566336,19.57669076204049,84.9682787032918,967.8725732947031,1269.2735892205988,1264.521322817478,130.0,897.5119621188737,1212.7616316486046,0.7400563628475064,1001.3053193253013,713.736704,44.65932580090487,69.73370280511678,472.5566601046835,645.1949122699493,643.2368048338432,166.0,456.2216976531408,585.2781179181653,0.7794955657592696,933.8015899325844,713.736704,84.06461327229151,73.47375425257955,441.47354494383876,565.4816016179672,563.8821329048662,178.0,399.8558751402943,556.6465856613637,0.7183298801073521,967.853487157895,713.736704,95.27322837526371,71.73743035053475,469.9808951983579,665.7005281347278,663.7396975775023,171.0,470.7213576835321,575.304080824381,0.8182131387092071,deceptive
1784137847152305327,1784137857152305327,1425.647994434783,1343.504384,16.23975483669268,71.0586567051,962.1690995227847,1157.7870236276738,1153.0027766360379,115.0,818.6790555769177,1231.4304909871348,0.6648195424498959,1223.1905585671645,1007.628288,44.65932580090487,88.26679682759811,939.067470190804,1233.8909985147,1229.26690497007,134.0,872.4926922947845,1176.0415290657095,0.7418893557168212,989.6349257142858,713.736704,84.06461327229151,70.34354396269806,467.75834722415186,625.7332990321224,623.8570836981049,168.0,442.4602589598435,582.8466371322172,0.759136676393781,923.6592640000001,713.736704,84.06461327229151,73.87095267612852,430.52212839372334,551.875802461532,550.3712757255347,180.0,390.2351222933168,542.7309469135542,0.7190213208082884,972.2729094736845,713.736704,79.39435697938643,71.42123350156818,469.47551489071026,667.1827265788326,665.2221146130483,171.0,471.7694302544227,574.0481865684307,0.8218289706210654,deceptive
1784137848152305327,1784137858152305327,1539.8208521481488,1364.49664,178.63730320361947,70.67684000442068,1358.3187329014295,1693.438938212902,1685.5100193080075,108.0,1197.4421567356899,1724.2754133078565,0.6944610747760488,1186.440022561151,1007.628288,89.31865160180973,91.22089541299901,909.8984912793954,1187.8765609532193,1183.6874523158226,139.0,839.9555714625766,1141.5199726021128,0.7358220544734619,992.0412236646706,713.736704,102.07845897349685,70.87234864372716,499.6552447076865,660.7120527512376,658.7189985665799,167.0,467.19397291208406,624.6403949194349,0.747940697899216,915.308753325967,713.736704,102.07845897349685,74.18571055122709,412.56106084058484,522.0996934261212,520.6474488584964,181.0,369.1802336770279,521.7913715029265,0.7075246043522537,957.6351696647398,713.736704,102.07845897349685,72.45047046736796,469.7143643915225,670.8384856132739,668.8855755406697,173.0,474.35444225806015,573.3734383335928,0.8273045288541554,deceptive
1784137849152305327,1784137859152305327,1585.2210404660195,1385.488896,178.63730320361947,70.22360686537189,1393.5290135656378,1732.7051899639089,1724.1937610494986,103.0,1225.207589620605,1770.1071731583015,0.6921657672481699,1228.37498,1007.628288,44.65932580090487,91.93847055269943,1173.9151483839053,1614.4031945317622,1608.0368901196823,128.0,1141.555446422634,1450.7167651136533,0.7868906418360729,999.7878068433735,713.736704,84.06461327229151,70.64615467691162,511.3198035433622,683.0791857018405,681.0547788424075,166.0,483.00992429715643,637.374763782245,0.7578114976359084,933.8588912090396,713.736704,84.06461327229151,73.66219450196782,461.3800061437337,620.0563582288711,618.2923251857268,177.0,438.44605562146984,574.1302537694481,0.7636700082304587,945.3671650909091,713.736704,84.06461327229151,72.10111836342598,403.8246485445132,567.4968019118784,565.877178947083,176.0,401.2808369335681,495.6163218651569,0.8096602537693365,deceptive
1784137850152305327,1784137860152305327,1659.64775936,1385.488896,35.72746064072389,68.19026161237221,1440.714019025198,1864.0000156362798,1854.5619802291117,100.0,1318.047051188244,1811.8194597305949,0.7274715171589053,1357.6139331147542,1007.628288,6.870665507831519,91.16509737908157,1801.053110049164,2065.3248741450107,2057.5986581828147,122.0,1460.40522386119,2328.3455288025884,0.6272287363689706,980.138428952381,713.736704,84.06461327229151,71.11892304110168,484.0470354698206,651.6852382722307,649.7312038365101,168.0,460.8110511814653,602.0213058096533,0.7654397722049462,922.4930275555556,713.736704,84.06461327229151,74.33570588578793,459.77660311911796,626.1800853447209,624.4285732788113,180.0,442.77618459122317,569.880403883946,0.7769633445430647,922.4930275555556,713.736704,84.06461327229151,73.64102282750869,400.92278338026597,575.6195699021556,574.00948999783,180.0,407.0245012614982,488.51170318956906,0.8331929380687746,deceptive
