window_start_ns,window_end_ns,red_Mean_NN,red_Median_NN,red_Heart_Rate,red_Mean_HR,red_SDNN,red_SDSD,red_RMSSD,red_NN_Count,red_SD1,red_SD2,red_SD1_SD2,infrared_Mean_NN,infrared_Median_NN,infrared_Heart_Rate,infrared_Mean_HR,infrared_SDNN,infrared_SDSD,infrared_RMSSD,infrared_NN_Count,infrared_SD1,infrared_SD2,infrared_SD1_SD2,ppg0_Mean_NN,ppg0_Median_NN,ppg0_Heart_Rate,ppg0_Mean_HR,ppg0_SDNN,ppg0_SDSD,ppg0_RMSSD,ppg0_NN_Count,ppg0_SD1,ppg0_SD2,ppg0_SD1_SD2,ppg1_Mean_NN,ppg1_Median_NN,ppg1_Heart_Rate,ppg1_Mean_HR,ppg1_SDNN,ppg1_SDSD,ppg1_RMSSD,ppg1_NN_Count,ppg1_SD1,ppg1_SD2,ppg1_SD1_SD2,ppg2_Mean_NN,ppg2_Median_NN,ppg2_Heart_Rate,ppg2_Mean_HR,ppg2_SDNN,ppg2_SDSD,ppg2_RMSSD,ppg2_NN_Count,ppg2_SD1,ppg2_SD2,ppg2_SD1_SD2,label
1784138273937894499,1784138283937894499,1476.1846018348624,1008.2764799999999,59.50748747010345,78.59614629246215,1665.1862045235941,2282.202705078548,2271.692346935435,109.0,1613.7610088033236,2059.9946346300094,0.7833811708413344,1495.0045405405406,1008.2764799999999,178.52246241031034,82.05276876831986,1667.9008121142192,2178.287520880618,2168.365760754576,111.0,1540.2818773887184,2092.2600476987764,0.7361808963865822,1027.638310956522,714.1958399999999,84.0105705460284,71.00359864937569,681.2052542562783,971.8980310032081,967.625931064826,115.0,687.2356883442218,831.8261544251559,0.8261770619837564,916.1116725581395,714.1958399999999,84.0105705460284,75.6447131856645,515.8207397597091,698.4454062599831,695.7117542587257,129.0,493.8754830550272,640.457316884653,0.7711294258567658,950.8047206400001,714.1958399999999,84.0105705460284,73.13381466800718,491.9213881398651,667.9118661477679,665.2133075875447,125.0,472.2850097880484,610.2841461021703,0.7738772386674143,deceptive
1784138274937894499,1784138284937894499,1474.4928169911507,1008.2764799999999,178.52246241031034,77.59548354888064,1601.5621726083925,2157.1014430735363,2147.458320683069,113.0,1525.301058104585,1991.6654153076881,0.7658420166265449,1363.2382210169492,1008.2764799999999,89.26123120515517,86.18717558424612,1568.3396435335023,2020.7430133784706,2012.0970300803212,118.0,1428.8810877952549,1974.469015565479,0.7236786581763756,1014.9098778947368,714.1958399999999,84.0105705460284,71.40341169306124,652.62133057375,902.242140295444,898.8180590994772,133.0,637.9815356751728,805.1825770025565,0.7923439402404595,888.0461431578948,714.1958399999999,84.0105705460284,77.07783545134964,487.73567303059184,655.9898517835203,653.8140917208397,152.0,463.8548725856854,606.7878559121528,0.7644432367361677,929.1451923287672,714.1958399999999,84.0105705460284,74.08250572841399,467.54747658561075,633.9250936249402,631.7354295378335,146.0,448.2527324665123,580.2896084209135,0.7724638283396105,deceptive
1784138275937894499,1784138285937894499,1452.1373217391306,1008.2764799999999,57.127187971299314,77.90587377379657,1577.6404097807324,2121.572089219129,2112.317465972688,115.0,1500.178011062957,1962.8121389241076,0.7643003532091778,1397.677375462185,1008.2764799999999,57.127187971299314,87.07598406234786,1635.092748199761,2121.758592529871,2112.748991201988,119.0,1500.3098888186964,2054.6512378472676,0.7302017301927238,1038.2024942465755,714.1958399999999,79.34331662680458,70.60180530653703,704.6467540070381,995.7446230955616,992.3051227395867,146.0,704.0977753209145,863.2365013479099,0.8156487523656535,913.1178563855423,714.1958399999999,79.34331662680458,75.81795404590788,512.5378032199357,680.6248420517388,678.5592557949266,166.0,481.27444125880737,639.9823869096292,0.7520120101785978,969.7436208917198,714.1958399999999,79.34331662680458,73.06381017252046,627.6715940282944,864.4510934928323,861.6761307703214,157.0,611.2592302129079,775.3220857423073,0.7883939351833081,deceptive
1784138276937894499,1784138286937894499,1530.3085155555557,1008.2764799999999,17.852246241031033,78.70513872975697,1731.733660044926,2383.1476122179924,2372.1537192078517,108.0,1685.1398371678713,2139.6155737094714,0.7875900034912948,1417.3360168421054,1008.2764799999999,57.127187971299314,85.06822110305797,1646.6608692568398,2138.959299877739,2129.5720192487693,114.0,1512.472625625579,2068.62208125361,0.7311498022437247,1051.8833741772153,714.1958399999999,29.146524475152706,69.90421439910632,697.7848652798948,982.3483018390066,979.2546216188341,158.0,694.625145717451,855.8944969421564,0.8115780019606734,944.3043927272728,714.1958399999999,84.0105705460284,75.18025247931627,603.6800784372855,805.7507200113715,803.4453127536938,176.0,569.751798065984,752.6956347052794,0.7569484553860503,975.462748402367,714.1958399999999,84.0105705460284,72.48114130015728,614.1899509858271,837.6541507893952,835.157448990965,169.0,592.3109303122402,760.9484034415669,0.7783851410074266,deceptive
1784138277937894499,1784138287937894499,1470.0280971428572,1008.2764799999999,43.27817270552978,77.88140073557712,1613.2957442957993,2183.9335511154495,2174.0927317168425,112.0,1544.2742236545519,2003.2610609214016,0.7708801682314245,1455.6623157894737,1008.2764799999999,89.26123120515517,85.3578043232028,1725.475547273315,2234.763406304193,2225.014125146203,114.0,1580.2163589452425,2169.3293567223054,0.7284354282342961,1053.212852658228,714.1958399999999,19.835829156701145,70.10172259931062,710.5127686038971,976.1066939149447,973.0125727712375,158.0,690.2116624288391,878.3283663994687,0.7858241733193972,961.8938191907515,714.1958399999999,64.91725905829466,74.75157105637724,648.9775650602329,870.919340866806,868.3851446341594,173.0,615.8329717934369,807.910041606768,0.7622543848677396,990.0546159036145,714.1958399999999,64.91725905829466,72.98354865610668,690.2946982620464,909.000841965929,906.2610287821027,166.0,642.7606594583896,863.9692750461022,0.743962404709463,deceptive
1784138278937894499,1784138288937894499,1514.7062574545455,1008.2764799999999,29.753743735051724,76.0303863435946,1647.047789586447,2226.197016021666,2216.0152030411446,110.0,1574.1590062861771,2046.1047269940166,0.7693442987147648,1405.011355826087,1008.2764799999999,59.50748747010345,86.8438420701599,1632.4966744565954,2188.8917800926615,2179.2702311846897,115.0,1547.780220987014,2032.8007718378065,0.761402810560576,1039.78512,714.1958399999999,84.0105705460284,69.88413416344368,669.9843629564673,926.2273825726264,923.3101615340933,160.0,654.9416631377708,826.6098246183213,0.7923226214256326,985.6548923076924,714.1958399999999,44.630615602577585,73.58122846413461,667.6049698381039,881.0748387944438,878.4529852551431,169.0,623.0139932443955,835.0566289874643,0.7460739447093809,979.8569223529413,714.1958399999999,44.630615602577585,73.21687167062353,669.4380633283363,879.1062274347155,876.5057279688591,170.0,621.6219748024107,838.5032507313032,0.7413471256793116,deceptive
1784138279937894499,1784138289937894499,1547.1550153846156,1008.2764799999999,57.127187971299314,76.32949067168143,1688.4001925191967,2281.487250235888,2270.385093250732,104.0,1613.2551058324461,2097.6401984016447,0.7690809448930807,1368.525264,1008.2764799999999,178.52246241031034,88.06115166987766,1632.6106952948317,2222.440366334504,2213.198016853079,120.0,1571.5026538178427,2023.86389594357,0.7764863323900412,1052.6963036942675,714.1958399999999,84.0105705460284,68.93013742042073,670.131812528683,952.4968856567658,949.4391410455786,157.0,673.5170069069667,819.353838722622,0.8220099486651385,997.0734080000001,714.1958399999999,44.630615602577585,72.25586934739114,613.1227364695925,808.0758167045191,805.6201742315155,165.0,571.3958897046231,767.1977245575315,0.7447830870903145,956.7390920930234,714.1958399999999,43.27817270552978,73.33159509153892,547.4254069890814,674.0173858393243,672.05378908054,172.0,476.60226416461586,696.9751023751879,0.6838153365025894,deceptive
1784138280937894499,1784138290937894499,1482.6895879245285,1029.2822399999998,16.229314764573665,77.49813616216905,1397.640164060895,1955.6130610365126,1946.3020279904933,106.0,1382.8272568358998,1717.7573883608188,0.8050189544842952,1444.7501479646019,1008.2764799999999,35.704492482062065,86.48530831725049,1843.67053810864,2522.9007476514494,2511.628678401387,113.0,1783.9602269249506,2281.881912052975,0.7817934037261148,1025.6516148148148,714.1958399999999,84.0105705460284,69.05391385886942,545.5702648808223,735.5916035285413,733.3035992191551,162.0,520.1418110389179,678.2477984106093,0.7668905262321626,978.6212894117648,714.1958399999999,84.0105705460284,72.75692632912724,584.3248863731865,768.9370697644794,766.6587326980225,170.0,543.7206163361768,731.4746006223173,0.7433212525405464,984.4119479289942,714.1958399999999,84.0105705460284,71.62792121401127,540.8870785057413,706.8375043397194,704.7484282389983,169.0,499.80959251559136,678.3898945323782,0.7367586052562233,deceptive
1784138281937894499,1784138291937894499,1474.4928169911507,1050.2879999999998,59.50748747010345,74.20892297146122,1320.8474741338787,1864.2902808346862,1855.9513214200783,113.0,1318.2522996783798,1618.7592585211755,0.8143596972428593,1324.7180903225808,1008.2764799999999,19.835829156701145,88.78317093939364,1605.9052923952406,2236.137927819574,2227.071292157581,124.0,1581.1882924296553,1976.8119304141662,0.7998678418024203,1015.7970607407408,714.1958399999999,68.00855710868964,69.53206753442484,546.920083394511,732.1418491338592,729.8646216810299,162.0,517.7024663130101,681.3481000393493,0.7598208115398158,953.468347586207,714.1958399999999,64.91725905829466,73.31947981447962,518.9844554013113,688.8151878894911,686.823052845253,174.0,487.065890340945,648.1304954479326,0.751493555328432,980.4345259171598,714.1958399999999,84.0105705460284,71.60309566513324,519.4493217695266,668.2340860110204,666.2423726661909,169.0,472.5128536383872,654.233136845648,0.7222392554381822,deceptive
1784138282937894499,1784138292937894499,1478.2803600000002,1176.3225599999998,44.630615602577585,74.4926934034817,1323.9593806399103,1891.1523851250276,1882.6168423908214,112.0,1337.2466757790203,1616.0515298800995,0.8274777450185857,1465.570016283186,1008.2764799999999,89.26123120515517,85.54640730450467,1865.3249393797967,2646.2524004087204,2634.4139946330797,113.0,1871.1830170601852,2282.1505904031083,0.8199209223654554,1027.2075970370372,714.1958399999999,79.34331662680458,69.40186561577323,576.7566659230596,789.5258958696235,787.0786108949677,162.0,558.2791148917947,713.7637692620609,0.7821623048603081,940.156105762712,714.1958399999999,79.34331662680458,73.6314235462015,483.7717615059675,653.2131250882155,651.3633351921795,177.0,461.8914303099337,601.16419368114,0.7683282457020766,988.4027669461078,714.1958399999999,79.34331662680458,71.4052305247099,533.7603713722564,686.0841805668973,684.0145871336174,167.0,485.1347765436688,672.4004702473521,0.7214967835540107,deceptive
1784138283937894499,1784138293937894499,1592.398190769231,1344.36864,29.753743735051724,71.86558245891925,1458.2919862906833,2102.0420127798416,2091.8537569328823,104.0,1486.3681615756454,1774.4255066602177,0.8376616296354154,1436.3593820689657,1008.2764799999999,10.50132131825355,84.61967366726334,1745.7348874894176,2429.276727872306,2419.037641143319,116.0,1717.7580476571748,2149.3799663274717,0.7991877074169507,1046.5888724528302,714.1958399999999,84.0105705460284,68.44735090329219,587.978612586763,820.2720285397593,817.6721106571226,159.0,580.0199137981091,723.3437270881158,0.8018593264547004,961.8938191907515,714.1958399999999,84.0105705460284,72.46830040603254,496.3652867078336,672.429956521994,670.4723687975741,173.0,475.4797821296773,616.2113956184655,0.7716179634303227,1002.455606746988,714.1958399999999,84.0105705460284,70.75795684447642,541.4960649544737,690.8184112765954,688.7218407017274,166.0,488.4823831821979,683.4679636842384,0.7147114556021478,deceptive
1784138284937894499,1784138294937894499,1510.1021592660552,1344.36864,89.26123120515517,74.79022012261387,1396.9118179151494,2040.3952251051282,2030.9269827165024,109.0,1442.7772999724882,1691.7216335449705,0.8528455694860246,1391.7206074576272,1008.2764799999999,89.26123120515517,85.60581369497093,1730.005542060324,2458.0618266676215,2447.576889625465,118.0,1738.1121862124671,2115.4955365560877,0.8216099519841199,1037.240944099379,714.1958399999999,89.26123120515517,68.87392137841258,584.1194633786425,743.5918869631272,741.7294178603748,161.0,525.798865706928,737.6712488677871,0.7127821051910985,970.9057674418606,714.1958399999999,89.26123120515517,71.71945063807,491.9410525479988,674.3233127329352,672.3839065095087,172.0,476.8185871456355,608.5507504229092,0.7835313436295541,1018.267024390244,714.1958399999999,89.26123120515517,69.56867554610201,539.1732568422383,668.954519873821,667.0907774191004,164.0,473.0222773081699,685.2303002442528,0.6903113845659764,deceptive
1784138285937894499,1784138295937894499,1593.2368822857143,1344.36864,89.26123120515517,70.91421199211395,1429.4807038643335,2090.9483508340973,2080.8959386544,105.0,1478.5237579856184,1730.2641168263826,0.854507553851084,1407.3859200000002,1008.2764799999999,44.630615602577585,85.7302415276381,1780.323074090814,2532.8717106108543,2521.2564292515312,110.0,1791.0107624485058,2176.0608265113233,0.8230517918563276,1025.8027582822087,714.1958399999999,43.27817270552978,68.6882547511847,504.3719278847458,683.2679063284467,681.1684279296051,163.0,483.14336993197935,626.1535956310845,0.7716051992722828,945.9753054545453,714.1958399999999,89.26123120515517,73.33585644624668,488.16021506225917,664.1688273771074,662.2684834896746,176.0,469.6382816910702,605.244358358169,0.7759482186088376,1038.545649689441,714.1958399999999,43.27817270552978,68.74843796531006,549.1351471888282,693.7555276480905,691.5969037268156,161.0,490.5592380856162,694.8198591869851,0.7060236284259691,deceptive
1784138286937894499,1784138296937894499,1510.1021592660552,1344.36864,57.127187971299314,71.12305606356497,1267.1326068231829,1797.1297358100712,1788.7998582768125,109.0,1270.7626228632898,1550.4293807574197,0.8196198025107687,1388.13064,1008.2764799999999,178.52246241031034,89.44988236550333,1971.4585578369251,2835.7589729190568,2823.9332837407687,120.0,2005.1843995616641,2400.607309081217,0.8352821354730887,1006.7487883636364,714.1958399999999,33.21348137866239,69.45160978490426,488.17143980251234,655.5622560063259,653.5623418417196,165.0,463.55251671202456,607.6036877790407,0.7629191955803248,920.4982203351956,714.1958399999999,33.21348137866239,74.19192486191491,439.65824493771765,566.5922054211127,565.0317363745069,179.0,400.64119062071006,553.4817638119961,0.7238561716313346,1010.5819902439025,714.1958399999999,51.00641783151723,70.34458832403138,547.9263240356773,689.4433842986396,687.42752114239,164.0,487.51009228177094,693.9837664558227,0.7024805418309517,deceptive
1784138287937894499,1784138297937894499,1499.0474181818183,1344.36864,35.704492482062065,72.14767530236409,1279.3317345851428,1742.892144861586,1734.8788051978217,110.0,1232.410854508394,1585.5475764158593,0.7772777511314211,1499.4293410909092,1008.2764799999999,59.50748747010345,86.43740439049553,2258.0606803731184,3240.8226175417403,3225.922204741708,110.0,2291.6076494865015,2751.716421236334,0.832792082716464,1012.887500487805,714.1958399999999,89.26123120515517,69.04139530459253,490.6633633873052,689.1586883476608,687.0415006954229,164.0,487.30878184425745,602.3007121943476,0.8090788736889537,938.4946332203391,714.1958399999999,89.26123120515517,73.70627245413068,473.0607748186242,617.0857196598026,615.3419904277882,177.0,436.3454969448273,593.6112338829009,0.7350694731476447,1006.251828433735,714.1958399999999,89.26123120515517,69.81230397384755,505.44796074947243,690.7855537652835,688.6907773167037,166.0,488.45914941313634,625.826742580483,0.7805022000163554,deceptive
1784138288937894499,1784138298937894499,1617.6474594174758,1344.36864,29.753743735051724,68.94827486943328,1418.0558146211442,1990.6376703698186,1981.1947615047507,103.0,1407.59339560389,1741.0068934636156,0.8084938669045578,1371.5525647058826,1008.2764799999999,178.52246241031034,87.35188576254177,2099.13421266945,2982.5013893857385,2969.8422459847134,119.0,2108.946957332955,2566.8853210022485,0.8215976538092906,1034.2711080000001,714.1958399999999,95.2119799521655,68.5042636165364,539.8610502428587,775.4465873584295,773.0188607535189,160.0,548.323540369112,657.7009614385448,0.8336973374188188,948.123621818182,714.1958399999999,89.26123120515517,73.37641626525928,486.973211838764,648.9588856253855,647.1021055043261,176.0,458.8832287369752,607.4528041659597,0.7554220271762966,1011.3318632727273,714.1958399999999,89.26123120515517,69.67146154916254,512.1137763029908,711.6460194301364,709.4864146583623,165.0,503.20972614346306,630.801890862678,0.7977302120246957,deceptive
1784138289937894499,1784138299937894499,1481.6562857142858,1344.36864,16.046962913286322,69.92266459366608,1209.985158454724,1677.1246950345687,1669.8344326533845,112.0,1185.906244754364,1491.6237316051618,0.7950438301743765,1496.6604000000002,1008.2764799999999,59.50748747010345,84.73977301134369,2239.5387202113916,3212.902418339661,3198.3985746728745,112.0,2271.865087298632,2729.538765287818,0.8323256354481829,1025.9109451851853,714.1958399999999,79.34331662680458,68.79726355871146,532.7214087130694,767.6771677798562,765.2929670583034,162.0,542.8297310992193,648.2685709795354,0.8373531517639399,957.7655195375723,714.1958399999999,95.2119799521655,72.96689703826517,498.2202543641891,640.5612003152203,638.6965761870631,173.0,452.9451685078867,627.5883849149183,0.7217233132338677,981.339681882353,714.1958399999999,95.2119799521655,71.04324925545589,484.6094533552005,680.781309492964,678.770730286073,170.0,481.38508044753263,594.833461334947,0.8092770695300003,deceptive
1784138290937894499,1784138300937894499,1605.3248123076924,1344.36864,14.723502054458585,64.59395917743905,1280.1311286873215,1824.33294632184,1815.536184186575,104.0,1289.998197486207,1563.7850678752882,0.8249203960227891,1483.4156176991153,1008.2764799999999,89.26123120515517,84.0605676583821,2139.2389832852964,3064.150037831173,3050.4416014981434,113.0,2166.6812703234386,2608.7224826780293,0.8305526113683025,1013.6890071165645,714.1958399999999,84.0105705460284,69.30592112158361,524.9136068162026,775.5169149330765,773.1196389812549,163.0,548.3732694740493,633.0181418448926,0.8662836548030819,966.2649600000001,714.1958399999999,84.0105705460284,72.70051665335417,509.9737231315742,646.3633926690496,644.459519924696,171.0,457.04793806702816,644.7480032723622,0.7088784079164592,1001.7357643113774,714.1958399999999,89.26123120515517,70.14224325790799,496.2087593703383,651.2914349324207,649.3267997315248,167.0,460.5325901694317,621.6117216137561,0.7408685746366728,deceptive
1784138291937894499,1784138301937894499,1552.444564528302,1344.36864,30.386802112393244,66.98011762433623,1259.9371828580292,1795.9138017319488,1787.3844085593896,106.0,1269.9028276311737,1539.011635330815,0.8251417978124672,1421.2647257142858,1008.2764799999999,59.50748747010345,86.36040345285558,1989.1786441393974,2782.4864143953637,2769.925989728297,112.0,1967.5150121784036,2445.0165019947844,0.8047041852573151,976.7056927810652,714.1958399999999,84.0105705460284,70.63805645405066,465.3838891601747,689.7836635962067,687.7276719481538,169.0,487.750706080578,560.5479042317867,0.8701320661416531,954.5017344000001,714.1958399999999,95.2119799521655,73.01234893578545,482.77311741070525,604.6796309642299,602.9535130827359,175.0,427.573067500186,612.1522700792196,0.6984750174084188,965.536436531792,714.1958399999999,95.2119799521655,72.0945682600219,477.47030880447255,616.1855160032355,614.3918621067917,173.0,435.70895683481973,600.8615847652713,0.7251403116493642,deceptive
1784138292937894499,1784138302937894499,1521.198946909091,1344.36864,17.63184813928991,69.99583496671129,1267.418831306271,1712.6455001981524,1704.9496797378702,110.0,1211.0232469587402,1574.6149801022034,0.7690916587622812,1560.3157054205608,1008.2764799999999,44.630615602577585,85.48676012706845,2315.99914195949,3297.4280944696716,3281.8388622034868,107.0,2331.6337660745403,2830.096472130361,0.8238707722636035,965.7792776878614,714.1958399999999,89.26123120515517,71.63688150999326,477.0728655611455,705.1348184320836,703.0820622722091,173.0,498.6056117640712,575.2332223265045,0.866788621400349,954.7418002285715,714.1958399999999,89.26123120515517,74.11616626587444,537.8669798055388,649.6864658303172,647.8169056077434,175.0,459.39770563373946,687.8071313671383,0.6679164618729749,965.7792776878614,714.1958399999999,89.26123120515517,72.09236415089298,479.06904203698576,619.7848939441943,617.9806155500337,173.0,438.254101384925,602.4790165525405,0.7274180333991865,deceptive
1784138293937894499,1784138303937894499,1462.595749380531,1344.36864,14.876871867525862,71.29387932308799,1179.4337909958983,1611.3875275999187,1604.3152269581187,113.0,1139.4230478853276,1460.4744755249124,0.7801732019149497,1540.1581766037737,861.2361599999999,29.753743735051724,84.18200637132585,2256.876512132317,3201.1359790152733,3185.8817340882033,106.0,2263.5449582619376,2761.3701839834057,0.8197180412068722,954.5017344000001,714.1958399999999,84.0105705460284,72.14740712022751,465.05081248630495,681.170092082161,679.2098863142844,175.0,481.659991252761,562.6245131537905,0.8560949265306926,943.7164040677967,714.1958399999999,84.0105705460284,74.7660910480565,529.7452175661844,639.032960190157,637.2149395498177,177.0,451.8645395521731,677.6202550220436,0.6668403670097989,945.0204981818183,714.1958399999999,95.2119799521655,73.06368387618836,462.18121520200316,598.8937191769884,597.1803358040888,176.0,423.4818100400804,580.9944316891422,0.728891340333296,deceptive
1784138294937894499,1784138304937894499,1449.7659621052633,1050.2879999999998,43.27817270552978,68.9826017321406,1134.7343205714567,1583.070625630804,1576.06018864104,114.0,1119.3999744807718,1395.9641131246015,0.801883059855462,1700.6091820408164,1008.2764799999999,57.127187971299314,80.91261824635505,2426.073019334202,3442.1910560644833,3424.403177981559,98.0,2433.9966378828794,2968.078633336752,0.8200580033644693,1008.5310952727274,714.1958399999999,43.27817270552978,69.67576074712704,516.5483253887448,730.8135811243948,728.6732722260813,165.0,516.7632389962846,632.5521498934833,0.8169496208072384,972.2310930177516,714.1958399999999,84.0105705460284,73.42145870416441,548.516357029475,655.8978360278765,653.9476268902686,169.0,463.78980762089367,702.9864116974525,0.6597422082469739,974.4201374117648,714.1958399999999,44.630615602577585,72.0596722796023,508.86612872513166,645.9882959032199,644.0811603847907,170.0,456.78270460030876,643.0896160850508,0.7102940137349344,deceptive
1784138295937894499,1784138305937894499,1532.0714862385323,1302.35712,142.81796992824826,67.52218795472837,1252.927261369783,1795.4159737428952,1787.1226345348662,109.0,1269.5508100842496,1527.6694062768888,0.8310376609415091,1582.7032246153847,1008.2764799999999,14.723502054458585,83.23141697017977,2106.8759676356294,2929.4156026061664,2915.2289647192765,104.0,2071.409637516497,2594.703016301293,0.7983224378677671,989.6605968862276,714.1958399999999,52.89554441786973,70.5095067747743,494.50513554876056,705.2038344749955,703.1006134275727,167.0,498.6544134760249,603.9391907540336,0.8256699037090838,989.2712685714287,714.1958399999999,84.0105705460284,73.04603090149678,580.2157988867276,703.9317906728402,701.8210910058544,168.0,497.7549426775546,741.2292189839519,0.6715263375071178,945.8593645714286,714.1958399999999,84.0105705460284,73.25869601415776,477.2411315510703,602.4709468955665,600.7372139574793,175.0,426.01129201773546,603.966377230539,0.7053559735745412,deceptive
1784138296937894499,1784138306937894499,1407.023751724138,1008.2764799999999,59.50748747010345,72.99285084007414,1189.8592193081772,1657.4659175263494,1650.5025764780294,116.0,1172.0053898684646,1464.4902207269818,0.8002821550332198,1611.1213980582527,672.18432,178.52246241031034,86.35580001141078,2248.431911007387,2984.914163878893,2972.5002336320163,103.0,2110.653046538539,2807.7506968107855,0.7517238082910807,979.5185942857144,714.1958399999999,68.00855710868964,71.22951083419989,495.9192442741921,701.5178512803976,699.415068609681,168.0,496.0480297637851,607.3219654900563,0.8167793327934669,965.5235802352942,714.1958399999999,84.0105705460284,74.62552369077017,592.3276731321829,710.6810086286879,708.5878845480437,170.0,502.5273604618405,758.5758173775381,0.6624616141852779,955.7620800000001,714.1958399999999,84.0105705460284,73.00511601841922,490.29494405267565,582.1108620470748,580.4062877813715,172.0,411.61453795583344,629.3369529901573,0.6540447625078055,deceptive
1784138297937894499,1784138307937894499,1458.670252972973,1008.2764799999999,59.50748747010345,70.36825809838813,1229.1794503920723,1706.7421671666825,1698.9775254188005,111.0,1206.8489601405854,1514.43786146415,0.7968956606603922,1540.834277647059,693.1900799999999,35.704492482062065,85.0412106624484,1995.6569809388704,2823.935079344348,2809.9283081953217,102.0,1996.8236442349598,2443.694178503563,0.8171332001362578,973.4740373964498,714.1958399999999,44.630615602577585,71.53582249638461,484.8475555190739,645.3740625885015,643.4613729606758,169.0,456.3483760582408,605.0019702613754,0.7542923800084276,930.6983890909091,714.1958399999999,38.59945133195899,75.48622107835048,519.5165496073539,609.1521724837638,607.428220145968,176.0,430.7356319377869,668.6017486676491,0.6442334809864496,948.6787423255814,714.1958399999999,84.0105705460284,73.97501074995147,526.9599880423142,622.6981983986068,620.8747736980998,172.0,440.314118720301,677.0785747776208,0.6503146534579349,deceptive
1784138298937894499,1784138308937894499,1398.2295630769231,1008.2764799999999,59.50748747010345,70.81788424986415,1119.6605662271716,1476.5716864421315,1470.1962321335375,117.0,1044.0938523912878,1400.7903414957073,0.7453605450166415,1538.8219611428572,714.1958399999999,34.83365120201177,86.46312764332654,2097.9911628157297,2958.8854962599603,2944.6558983168466,105.0,2092.2479991599407,2571.844278627967,0.8135204827704878,980.1040489411765,714.1958399999999,84.0105705460284,71.20450913111543,492.014124335391,659.1798067409046,657.2268651465998,170.0,466.11051136773153,612.8020012102596,0.7606217186745177,930.825074413408,714.1958399999999,84.0105705460284,75.43562344001974,520.0697960102883,631.1292210766261,629.354066254315,179.0,446.27575202826597,664.3524381080939,0.6717454869273083,957.5729213793104,714.1958399999999,84.0105705460284,73.73058162495693,535.9823645060798,632.13984945407,630.3103949668651,174.0,446.99037420721623,688.9513718733004,0.6487981481070607,deceptive
1784138299937894499,1784138309937894499,1456.030837894737,1008.2764799999999,84.0105705460284,70.52847594742104,1223.1363760456036,1629.267194267546,1622.0420269847484,114.0,1152.0658814313617,1525.9414442346188,0.7549869529949196,1686.4624457142859,1008.2764799999999,178.52246241031034,82.21489084879639,2239.7732898793092,3143.5014571412844,3127.257782284938,98.0,2222.7911970143955,2750.04880453988,0.808273363492652,984.6605368047339,714.1958399999999,84.0105705460284,70.7817761119044,477.9466868244778,640.9977400026553,639.0872101916988,169.0,453.253848681129,595.1021300758913,0.7616404408153054,905.6581770491804,714.1958399999999,84.0105705460284,75.60883736394265,449.8032774011238,584.9694258603132,583.3601534141598,183.0,413.6358478126288,564.8881919670021,0.7322437496388513,941.6786727272728,714.1958399999999,84.0105705460284,74.09802237596138,517.3363617764235,613.6741986537593,611.9195090976264,176.0,433.9331873072937,664.1722795395782,0.653344321458444,deceptive
1784138300937894499,1784138310937894499,1414.862546440678,1008.2764799999999,178.52246241031034,71.96357417333523,1185.3020584516198,1588.8154960540635,1582.10500053344,118.0,1123.4622113140965,1476.0752925965242,0.7611144343035812,1535.220973714286,672.18432,178.52246241031034,86.89278802119527,2111.14944926236,2998.5658557250995,2984.114851827605,105.0,2120.3062504176605,2581.8703872312094,0.8212287731033125,985.5202400000001,714.1958399999999,84.0105705460284,70.84122622459725,480.235800531262,625.5667565939993,623.6909899828139,168.0,442.3424956724914,602.8427709485452,0.7337609688451368,904.2807501639345,714.1958399999999,89.26123120515517,75.81905081064683,455.48600320684983,584.8443447298835,583.2354620658997,183.0,413.5474020971035,573.9549384264144,0.7205224215526522,919.3520960000001,714.1958399999999,89.26123120515517,75.07053499146498,495.78158129864244,599.9535876667331,598.2754385620334,180.0,424.23125023634486,633.7291818051451,0.6694204124038345,deceptive
1784138301937894499,1784138311937894499,1468.172499823009,1050.2879999999998,89.26123120515517,68.35650698537498,1202.1074728178762,1635.909540169803,1628.5899976822138,113.0,1156.7627292618345,1490.3270602470177,0.7761804506657111,1611.1213980582527,1008.2764799999999,89.26123120515517,84.39993750990516,2182.5680835939265,3056.6959452834167,3041.675235485841,103.0,2161.410430935328,2681.6710002473665,0.805993886176176,1021.502328888889,714.1958399999999,44.630615602577585,69.094206563093,499.80259143025734,648.7210763402078,646.7167532601686,162.0,458.7150721787969,628.0091576392832,0.7304273617651198,900.8371829508197,714.1958399999999,84.0105705460284,75.80159389711805,437.5854696234454,555.4968744689074,553.9687301903282,183.0,392.7956068648968,553.008039783294,0.7102891433889835,910.7911849723757,714.1958399999999,84.0105705460284,75.49006889921068,485.6063922110758,601.447807863629,599.7748380522405,181.0,425.28782347015584,617.4077015364508,0.6888281801665338,deceptive
1784138302937894499,1784138312937894499,1445.4135889655174,1008.2764799999999,84.0105705460284,66.69167479149226,1163.096492342173,1596.6918260768769,1589.7567345282457,116.0,1129.0316176840913,1438.134452731091,0.785066803413271,1552.0922666666668,1008.2764799999999,44.630615602577585,86.0593340449572,1913.7790202701797,2607.9640841191695,2595.750628964901,108.0,1844.1090889716286,2371.651557636301,0.7775632482916479,1070.4858461538463,714.1958399999999,25.503208915758616,66.74053927304713,523.9086801756032,700.211453744601,698.0375148144456,156.0,495.124267207298,652.982840768349,0.7582500431783128,917.7901292307694,714.1958399999999,42.0052852730142,74.66076622898734,435.7211603060033,543.5673568177272,542.081648841947,182.0,384.3601640374626,553.0275682345023,0.6950108568086446,946.3394962285715,714.1958399999999,16.046962913286322,74.39002706923003,545.9234441672751,673.0528929104615,671.3538380053009,175.0,475.9202646742105,694.8487350633478,0.684926431694262,deceptive
1784138303937894499,1784138313937894499,1465.570016283186,1008.2764799999999,12.751604457879308,65.25461546113,1160.6887719394165,1492.4828591910043,1486.0050852263205,113.0,1055.3447505386462,1462.0261896996658,0.721837103858884,1508.2135680000001,1008.2764799999999,16.229314764573665,85.97997740309182,1835.1963339602164,2454.2717507356974,2443.112215040784,110.0,1735.4321978197918,2286.9256025824757,0.7588494334315387,1070.7551507692308,714.1958399999999,44.630615602577585,67.09051564009602,544.227967656494,735.5121265016397,733.1484936556574,156.0,520.0856122942473,676.10919199586,0.7692331630028068,943.7164040677967,714.1958399999999,44.630615602577585,73.32836003933912,464.4429556575117,602.6988987749487,600.996382335784,177.0,426.17247833743085,583.6120522004636,0.7302324836003314,963.3339237209303,714.1958399999999,43.27817270552978,73.49703669131438,555.9844982020336,691.036057552555,689.0251800338674,172.0,488.636282339829,706.2965498092777,0.6918287827850442,deceptive
1784138304937894499,1784138314937894499,1522.0503897247709,1050.2879999999998,44.630615602577585,64.7474675532403,1209.2950743480396,1564.432604046541,1557.17306541583,109.0,1106.220903030638,1520.830960538975,0.7273792628725804,1537.8528880733948,1008.2764799999999,178.52246241031034,86.58873845009234,1912.1184045254815,2626.408584533912,2614.221007938964,109.0,1857.1513202904907,2363.8714162622696,0.785639738064518,1068.0621046153847,714.1958399999999,84.0105705460284,67.50044122935628,555.8736357474819,771.8818062798376,769.3885997946381,156.0,545.8028594949942,684.8654007334522,0.7969490923478834,908.0424730434784,714.1958399999999,89.26123120515517,75.20957695511947,441.60010184777116,587.2489551285596,585.6552554788989,184.0,415.247718416119,551.1859632456432,0.7533713594064414,949.317130909091,714.1958399999999,43.27817270552978,73.96991376274528,533.0603553796241,676.715295712325,674.7899855648174,176.0,478.5099745308448,673.6622203242122,0.7103114292212396,deceptive
1784138305937894499,1784138315937894499,1451.7720041739133,1008.2764799999999,44.630615602577585,66.22597209342396,1105.1672336608203,1462.279890581789,1455.8641959261317,115.0,1033.9880266231057,1381.3846709425468,0.7485156367904349,1459.3274356363638,1008.2764799999999,44.630615602577585,85.50042414880339,1732.3726243255526,2328.9969432827115,2318.290905169249,110.0,1646.8495319579465,2155.4983480787337,0.7640226370044948,1065.2730007643313,714.1958399999999,95.2119799521655,67.35897789217374,542.1788821397396,748.336097397301,745.9339225783935,157.0,529.1535290763082,669.2638880214885,0.7906500538085485,925.1870293333334,714.1958399999999,44.630615602577585,73.92880320599056,427.3279784279421,574.0446664223072,572.4528487105435,180.0,405.910876331183,531.8238265935902,0.7632431193071996,957.0900303448277,714.1958399999999,29.753743735051724,73.42293038936957,532.9391534650323,675.2619395824715,673.321675699377,174.0,477.4822965559464,673.8350026748982,0.7086041755926931,deceptive
1784138306937894499,1784138316937894499,1495.0045405405406,1050.2879999999998,178.52246241031034,64.49172361230316,1096.631168733593,1477.9528996132656,1471.7556763028995,111.0,1045.0705175908608,1363.4931782400665,0.7664655271248142,1557.174657196262,1008.2764799999999,178.52246241031034,84.39762805504539,1911.8291919798257,2607.1118466114485,2594.7869447908183,107.0,1843.5064660507373,2368.738836053276,0.7782649729010794,1084.933863896104,735.2015999999999,43.27817270552978,66.24979486030745,549.8049948910369,782.3220472006741,779.8635418666496,154.0,553.1852246473389,671.9852070025074,0.8232104202336626,943.9388379428573,714.1958399999999,43.27817270552978,72.91804108643834,440.45449395497127,588.2525875673424,586.5724921497452,175.0,415.9573937194012,549.0810921852448,0.7575518436884523,920.0050840449439,714.1958399999999,43.27817270552978,73.82123178137525,423.23878399489786,559.7173272782015,558.1503169377677,178.0,395.77991766602645,529.0947598881473,0.7480322007908297,deceptive
1784138307937894499,1784138317937894499,1525.1338040366975,1050.2879999999998,95.2119799521655,65.58626409571595,1176.496269632129,1557.0768433228716,1549.8514385663045,109.0,1101.019594742146,1470.4301652623803,0.7487738083404202,1508.595490909091,1008.2764799999999,8.068811860353009,85.89161686143122,1763.1668908037002,2315.8938789520216,2306.081079092619,110.0,1637.584266315392,2208.3192375675476,0.741552325613566,1018.5231921951221,714.1958399999999,44.630615602577585,68.42849500906956,466.38607918433587,658.9980764030099,656.9747638860448,164.0,465.98200861345885,571.3688244366841,0.815553787123183,906.5764616393443,714.1958399999999,95.2119799521655,74.57004154112471,400.5295839553671,538.7704595249215,537.2884804804031,183.0,380.96824543306434,498.27652285929065,0.7645719353722125,920.3292870329672,714.1958399999999,95.2119799521655,73.8597162686238,424.4726178451105,576.7310882109115,575.1604774677114,182.0,407.8104633950324,526.4972170613316,0.7745728755628476,deceptive
1784138308937894499,1784138318937894499,1476.4589145945947,1344.36864,35.704492482062065,66.11918204136938,1007.7806037759474,1293.5558127274542,1287.662589309748,111.0,914.6820870228587,1270.0085946692564,0.7202172417274593,1602.093156923077,1008.2764799999999,35.704492482062065,83.80543887469474,1811.483165817591,2370.9554064389245,2359.4381491843033,104.0,1676.5186457838702,2271.031733651151,0.7382189429332725,1015.7053463414635,714.1958399999999,89.26123120515517,68.87621062141906,492.24802785334236,712.0569754041508,709.8693912008782,164.0,503.5003158994577,598.2139732533694,0.8416726094865116,905.3025913043479,714.1958399999999,89.26123120515517,74.38266226424734,383.90758468085363,506.72845180957574,505.3420512585476,184.0,358.3111244947117,480.1839607719537,0.7461955287275387,920.3076066298344,714.1958399999999,42.0052852730142,73.69125106922876,417.1570155363737,578.340870743858,576.7474321013373,181.0,408.9487515403145,514.2182518437455,0.7952824507376315,deceptive
1784138309937894499,1784138319937894499,1551.2851917757012,1344.36864,43.27817270552978,63.588859288462125,1139.7834244856147,1508.315799958707,1501.187591647298,107.0,1066.5403303216137,1424.5905978080302,0.7486644457450888,1605.3248123076924,1008.2764799999999,16.229314764573665,84.66678254276286,1792.9864909014696,2352.343047478576,2341.1234644993797,104.0,1663.35772054913,2246.3796784727047,0.7404615241534028,1020.3902311656443,714.1958399999999,95.2119799521655,68.9914398367045,509.07856609839837,729.8871512642125,727.6309259239565,163.0,516.1081541598561,620.5950044324042,0.8316344000092111,936.1211010169492,714.1958399999999,95.2119799521655,72.95986266329548,419.659936411517,566.899381840658,565.3047714188133,177.0,400.85839714999116,521.4261186160576,0.7687731451081294,943.7164040677967,714.1958399999999,95.2119799521655,72.62370234501623,438.61327487745297,615.9195642956921,614.167485796502,177.0,435.52090057894765,538.4458954963808,0.8088480276694301,deceptive
1784138310937894499,1784138320937894499,1507.1159697297298,1302.35712,21.971995373576654,67.05498056927307,1161.982846280303,1496.4485739331255,1489.7485537874254,111.0,1058.1489343250516,1463.0682439629147,0.7232396292458065,1574.8201817475729,1008.2764799999999,59.50748747010345,84.56472949321622,1751.65787769019,2271.1896138465877,2260.499651734704,103.0,1605.9735773113784,2201.598300198528,0.7294580383562981,994.6919166467067,714.1958399999999,89.26123120515517,70.33361362530098,498.8862157508113,714.8654475726246,712.7204889025701,167.0,505.48620561455925,608.2900299191397,0.8309953817289325,928.0086596648046,714.1958399999999,89.26123120515517,74.04347241810258,444.0119430279353,593.2975708623111,591.6407092046798,179.0,419.5247356182464,553.4371772885385,0.7580349727743789,949.317130909091,714.1958399999999,89.26123120515517,72.26967104948493,442.4063881720978,594.3479842205546,592.6709469178024,176.0,420.2674900269093,550.576464266502,0.7633226578015916,deceptive
1784138311937894499,1784138321937894499,1513.9707022222224,1029.2822399999998,36.61999228929443,69.88913194092419,1271.9652961570112,1690.667840714187,1682.751222733971,108.0,1195.4826949030194,1587.8293335082626,0.7529037722597272,1721.1729946391754,1008.2764799999999,25.503208915758616,80.43113452862369,1854.2809466806189,2417.162620255883,2404.63202495015,97.0,1709.1920800135786,2327.2401842643944,0.7344287416358052,997.9001407228917,714.1958399999999,43.27817270552978,69.9809579300316,493.94471265302974,685.2849106471625,683.2172794771071,166.0,484.5696073634259,608.7354976716865,0.7960265324050022,955.3999117241381,714.1958399999999,43.27817270552978,73.23193005407292,514.4086295355982,716.7342678062043,714.6599443573374,174.0,506.8076610745421,633.0919945943563,0.8005276727583187,945.9753054545455,714.1958399999999,43.27817270552978,72.47347508373423,454.989099207931,636.6109283939854,634.7971057492938,176.0,450.15190444485074,559.206395044286,0.804983470207277,deceptive
1784138312937894499,1784138322937894499,1605.3248123076924,1197.3283199999998,25.503208915758616,67.86129560647184,1330.1666530081277,1785.6809446676803,1776.9914949254053,104.0,1262.6671050101168,1655.754372034806,0.7625932483321106,1591.1353351456312,1008.2764799999999,35.704492482062065,83.1493462584629,1743.7850220335024,2228.3339622430144,2217.4058855570506,103.0,1575.6700554503236,2200.04644139967,0.7161985428125244,966.9977190697675,714.1958399999999,44.630615602577585,71.26674925793617,468.8667255990635,641.2400544313148,639.375975738062,172.0,453.4251908568136,580.4091754066316,0.7812164418991935,950.4206153142858,714.1958399999999,95.2119799521655,73.52236546375693,511.0635059316548,711.5793554255124,709.5435129920174,175.0,503.16258757373237,629.1148698158089,0.7997944599863732,939.6813993220339,714.1958399999999,95.2119799521655,72.48290986618765,424.5451834018161,564.0729666852264,562.4682039265323,177.0,398.8598198271371,530.0307986929581,0.7525219681775376,deceptive
1784138313937894499,1784138323937894499,1607.4504885436895,1050.2879999999998,25.503208915758616,69.51267123982,1404.865814654551,1859.729197095978,1850.6960239376408,103.0,1315.0271264371795,1755.74706115009,0.7489843813697059,1669.003112727273,1008.2764799999999,89.26123120515517,83.9918799071568,1872.6559790321226,2332.958757103583,2321.1165972811737,99.0,1649.6509573764833,2377.6052428910357,0.6938287852068326,950.6606811428572,714.1958399999999,89.26123120515517,72.33653172996064,463.51686042788094,636.6396666137919,634.8076062208572,175.0,450.1722254349551,573.0342428906926,0.7855939344288477,936.9985078651687,714.1958399999999,89.26123120515517,73.78813347403631,485.45264001364745,665.6285936489187,663.7498673802452,178.0,470.6704923208153,600.4691292828305,0.7838379516411775,952.2611200000001,714.1958399999999,26.447772208934865,72.24233851527265,452.1696674495267,614.6561375651828,612.946567987259,174.0,434.62752297027214,560.771142678717,0.7750532969548393,deceptive
1784138314937894499,1784138324937894499,1659.45504,1344.36864,35.704492482062065,66.40173967480732,1404.0139284583563,1837.9711211788476,1828.6774834282232,100.0,1299.641843410605,1760.106747341841,0.7383880809350671,1732.0999600000002,1008.2764799999999,59.50748747010345,81.70000217280642,1881.84046570272,2300.0672562023233,2287.932348645667,96.0,1626.393154045799,2400.014527237062,0.6776597123010464,974.667264,714.1958399999999,28.563593985649657,71.58265459601432,495.9848837047809,672.91655550223,670.9791372259652,170.0,475.8238595683206,615.4655449820433,0.7731120993656975,978.3741628235296,714.1958399999999,44.630615602577585,71.96866182444931,528.8165031996224,738.1536273768464,735.9665007105415,170.0,521.9534354756161,650.4429980483712,0.8024583815057075,963.3339237209303,714.1958399999999,95.2119799521655,72.01210251780888,477.7013717118826,646.1399163038213,644.2647588242415,172.0,456.8899164137403,593.3152646026824,0.7700626356203725,deceptive
1784138315937894499,1784138325937894499,1604.1874578640777,1344.36864,44.630615602577585,69.21943192848441,1383.7534815557317,1793.716857726194,1784.9298432191545,103.0,1268.3493536268174,1739.3080101041432,0.72922642008121,1561.7680590291263,1008.2764799999999,44.630615602577585,83.88547402044338,1666.2260209998053,1883.243666532012,1873.9893418953895,103.0,1331.6543672314028,2160.0848662102267,0.6164824299555098,984.4119479289942,714.1958399999999,89.26123120515517,71.83197592255333,541.702238873748,753.8697736961926,751.6227649016407,169.0,533.0664291121458,666.9353209108624,0.7992775497091891,967.2419720930234,714.1958399999999,43.27817270552978,72.45319363095302,519.5833571867965,729.2094974551552,727.086175379612,172.0,515.6289805561747,637.9632492050811,0.8082424515811247,950.6606811428572,714.1958399999999,89.26123120515517,72.749769465163,469.4531149915684,654.7000269867883,652.8159942260346,175.0,462.9428287253737,577.5936486981554,0.8015026303852294,deceptive
1784138316937894499,1784138326937894499,1676.2172121212122,1344.36864,178.52246241031034,66.1767868568508,1425.4318566315865,1842.3049938800798,1833.038586237061,99.0,1302.7063541864454,1793.095098755633,0.7265126958913076,1653.0077275247527,1008.2764799999999,8.926123120515516,83.4719218100534,1769.5722567592188,1973.538795805303,1964.684352866293,101.0,1395.5026654486628,2299.7952298295318,0.6067943125319475,988.7711314285715,714.1958399999999,33.21348137866239,71.41813087438524,540.3795653035043,747.6619047588854,745.4533146115498,168.0,528.6768028898585,666.5362467550337,0.7931703721495562,965.7764539534885,714.1958399999999,52.89554441786973,72.82209193821669,541.1468530699077,773.6292552502696,771.369498565081,172.0,547.038492511764,660.3440595857261,0.828414346386268,977.138529882353,714.1958399999999,33.21348137866239,71.37479131700744,490.1539385569284,677.2088066346614,675.2381336126377,170.0,478.85893945061855,604.8543833187065,0.791692930822824,deceptive
1784138317937894499,1784138327937894499,1542.932522264151,1344.36864,59.50748747010345,67.08036850650893,1291.6395521595175,1722.4406036940627,1714.2308368701385,106.0,1217.9494310631223,1610.889523552806,0.7560726004207559,1596.849637647059,1008.2764799999999,89.26123120515517,82.66745005840596,1788.4709330164512,2137.3579584394715,2126.7923101401184,102.0,1511.3403062355853,2292.4183291588242,0.6592777099239796,995.9497465868264,714.1958399999999,44.630615602577585,71.41996009082722,559.2751454238188,775.0962297705917,772.7715032252041,167.0,548.0758001429117,689.4808447132675,0.7949108439275618,970.7132385882354,714.1958399999999,89.26123120515517,72.51650595256976,543.8223508823771,781.808904246348,779.4991272708384,170.0,552.822377784617,662.3286253430027,0.8346647821514956,957.5226783815029,714.1958399999999,44.630615602577585,72.09866171094166,471.1700641430928,632.5935401647004,630.758734854614,173.0,447.3111819852642,586.4800183507408,0.7627048969940396,deceptive
1784138318937894499,1784138328937894499,1555.241997669903,1344.36864,35.704492482062065,67.77419896789586,1295.6031566567492,1757.4151354456862,1748.782240780979,103.0,1242.6801596335197,1607.8084741362918,0.7729031035870628,1689.9891859793815,1008.2764799999999,19.835829156701145,82.50694201154131,1891.2233731307176,2295.193872589095,2283.211128173817,97.0,1622.9471514455618,2415.8793359684228,0.6717832001303127,977.7000482840238,714.1958399999999,84.0105705460284,72.02316461361298,511.55941084311405,686.1426248008418,684.0976685743012,169.0,485.1761028578122,636.936524507867,0.7617338371868163,962.5797389473685,714.1958399999999,84.0105705460284,73.18103748782977,550.9164112881223,796.2211272305927,793.8758463563879,171.0,563.0133583887489,669.7206608662137,0.84066894048117,933.5102155932204,714.1958399999999,84.0105705460284,73.26029691528942,456.7397955831928,600.010718616667,598.3039050027475,177.0,424.2716479184587,572.0308262017277,0.7416936788802332,deceptive
1784138319937894499,1784138329937894499,1479.8652540540543,1050.2879999999998,16.229314764573665,70.3436480286328,1249.1653092399777,1647.0438571238462,1639.7707879013533,111.0,1164.6358802839188,1562.8946134640264,0.7451787665341042,1553.6409779439255,1008.2764799999999,36.61999228929443,85.93367321860326,1785.2725938932433,2155.334572327681,2145.1543892525724,107.0,1524.0516918187107,2283.206011148552,0.6675051153408825,969.2131368421053,714.1958399999999,84.0105705460284,71.76673899694408,481.97774837900073,662.7178949286921,660.7658497608182,171.0,468.61231751775205,595.6562329064504,0.7867160479983578,950.6606811428572,714.1958399999999,84.0105705460284,73.42891864228986,528.1232647816908,764.0721357032934,761.873515441926,175.0,540.2805884714868,641.7762916061918,0.8418518968958969,919.147067403315,714.1958399999999,84.0105705460284,73.77775732569708,432.7314129799366,584.714296448773,583.0880147871732,181.0,413.4554440756486,537.6246361926962,0.7690411045959904,deceptive
1784138320937894499,1784138330937894499,1614.3844287378643,1344.36864,178.52246241031034,68.00999685883747,1418.3575240028144,1927.6623304206555,1918.4253627491855,103.0,1363.0631056783086,1759.1206941992614,0.7748547954515224,1725.09804,1008.2764799999999,178.52246241031034,83.86924281151691,1990.4195124876162,2385.145894929625,2373.1626195243252,96.0,1686.5528364239944,2549.7665454621465,0.6614538258122395,990.9184268263474,714.1958399999999,84.0105705460284,71.46821805854918,536.0151210888723,733.0947183619701,730.897462777994,167.0,518.3762466057913,663.5265281428339,0.7812441923862359,941.5954046511629,714.1958399999999,84.0105705460284,73.48758947561504,485.996772603198,681.0075243333717,679.0133545344323,172.0,481.54503849518994,597.0284029355572,0.8065697312346588,931.8487430508476,714.1958399999999,84.0105705460284,73.2200962402355,434.13435284092185,574.344018504441,572.8294595872367,177.0,406.12255021842213,542.6578201180322,0.7483952781332579,deceptive
1784138321937894499,1784138331937894499,1614.3844287378643,1344.36864,22.315307801288792,65.41880901346127,1311.276306971855,1739.0902107492211,1730.5552893956947,103.0,1229.7224811159163,1637.9201495099055,0.7507829252139494,1583.6342491428572,1008.2764799999999,57.127187971299314,83.93140481197531,1825.04902402297,2204.2155200822835,2193.6034821728617,105.0,1558.6157414468153,2333.873682406888,0.6678235215538482,980.9317036686391,714.1958399999999,43.27817270552978,72.04042837599907,534.782242967964,730.6790971694548,728.5121986530721,169.0,516.6681444797858,662.2017132472556,0.7802277374762245,945.497901818182,714.1958399999999,43.27817270552978,73.1517773837743,487.0437523715174,664.6585001758796,662.7708421674602,176.0,469.9845326476445,603.3079669490894,0.7790126409640211,919.3791752486188,714.1958399999999,84.0105705460284,74.26037407887786,448.78498623020965,624.285417390917,622.5490510134356,181.0,441.43645203299167,552.6145647189921,0.7988143639635427,deceptive
1784138322937894499,1784138332937894499,1507.0187449541286,1344.36864,21.971995373576654,66.71518053734829,1146.6357662996236,1587.4382779521704,1580.1240791460943,109.0,1122.488371055075,1414.0569612070483,0.7938070402036079,1769.4529445161293,1008.2764799999999,59.50748747010345,79.8117780528831,2038.0044854221353,2505.556341307777,2492.2259759071517,93.0,1771.695879583685,2595.6639652186454,0.6825598010081579,1014.6806751219514,714.1958399999999,46.07031288008009,71.39276027437585,650.9660069173182,904.0622109728733,901.2930393638959,164.0,639.2685199934219,801.9858876541817,0.7971069439429788,944.1911105084747,714.1958399999999,89.26123120515517,73.04128091228542,480.1356306736303,661.2091939770302,659.3281261373681,177.0,467.5455048440493,593.0944681370676,0.7883154032992883,920.0984545054946,714.1958399999999,89.26123120515517,74.68941358162331,476.0872972531665,662.6388063120153,660.8090789251985,182.0,468.5563934205852,586.127701362081,0.799410081338459,deceptive
1784138323937894499,1784138333937894499,1563.4567536448599,1344.36864,59.50748747010345,65.97981411850182,1360.974430296758,1942.9455686152783,1933.7616126765924,107.0,1373.8699870442158,1661.548503412625,0.8268611985882137,1643.391811764706,1008.2764799999999,35.704492482062065,85.81158795755022,1957.705716464372,2367.757718424656,2356.0445869032437,102.0,1674.2575389048623,2502.7293483844146,0.6689726717695802,1048.9585215189875,714.1958399999999,89.26123120515517,69.77339698200761,680.353366509147,948.4614549383332,945.436089708024,158.0,670.6635264809545,837.1777730952515,0.8011004926723592,955.9421293714287,714.1958399999999,89.26123120515517,72.5588729261667,492.86994203838293,685.5883713009006,683.6161332411261,175.0,484.78418644950744,606.9050220702433,0.7987809769572124,928.2211946666667,714.1958399999999,89.26123120515517,74.9127835901668,542.3851260812814,783.683077322421,781.4909877757323,180.0,554.1476182758254,659.4114486176519,0.8403669961107062,deceptive
1784138324937894499,1784138334937894499,1464.5068463157895,1344.36864,25.96690362331786,69.88537815905752,1320.4651342709471,1896.947876072588,1888.6130828812102,114.0,1341.3447067283455,1608.6185161548729,0.8338488543166843,1604.9208553846156,1008.2764799999999,44.630615602577585,89.54158514253868,2112.7232377213118,2656.71751341392,2643.8074937840724,104.0,1878.5829694320455,2676.3149986306144,0.7019289472252919,1039.78512,714.1958399999999,44.630615602577585,70.35453206902608,676.2837957901914,938.4852092652388,935.5401262660746,160.0,663.6092555147266,833.3852187880308,0.7962815281026885,947.0596937142858,714.1958399999999,84.0105705460284,72.73913417831135,468.72408293269956,637.1789912539653,635.3586372632651,175.0,450.55358554528266,581.2961939651293,0.7750843549688033,959.9873765517242,714.1958399999999,89.26123120515517,74.05072755664762,617.0119201824187,885.0231501040993,882.4616060750279,174.0,625.8058709456883,752.0577938159707,0.8321247064940644,deceptive
1784138325937894499,1784138335937894499,1575.0356649056605,1344.36864,44.630615602577585,68.23881802250672,1514.2501685655773,2166.4895969311565,2156.148335882989,106.0,1531.9394853601307,1847.2920322999898,0.8292892832178644,1768.953150638298,1008.2764799999999,10.424669337828341,88.72217222816288,2238.587455756935,2845.749016387171,2831.007765553953,94.0,2012.2484270423163,2828.0692580058003,0.711527280085511,1035.1534151552796,714.1958399999999,43.27817270552978,69.98535088187698,654.3480152669867,891.6248005141739,888.8440342177546,161.0,630.473942717675,810.9216694260331,0.7774782281547881,955.9421293714287,714.1958399999999,43.27817270552978,72.46862393693777,481.62828730702967,647.5405696051697,645.6917658917149,175.0,457.8803278612151,599.2532160509934,0.764084890321643,950.5106400000001,714.1958399999999,89.26123120515517,74.27220909876854,605.1263273920799,861.9395644494565,859.4733852983891,176.0,609.4833109951899,739.3380762649952,0.8243634820949456,deceptive
1784138326937894499,1784138336937894499,1551.7032711111112,1344.36864,178.52246241031034,67.6529800194482,1439.9193850157599,2056.3988054231913,2046.8241867603133,108.0,1454.0935401386544,1757.7092077337043,0.8272662700637976,1693.0209451546393,1008.2764799999999,35.704492482062065,84.89078504064662,2049.0323472689847,2556.296928566025,2542.94802829935,97.0,1807.57489291538,2600.6544606233765,0.6950461586819591,1045.299132,714.1958399999999,89.26123120515517,69.79994593139827,664.3000909421779,898.3834932026193,895.5539708430189,160.0,635.2530601496308,825.115747296606,0.769895693096347,950.2719381818183,714.1958399999999,43.27817270552978,72.52122875455483,460.470509570938,601.2785467900563,599.5737186475524,176.0,425.1681378172417,577.6523242068262,0.7360277454107704,972.3712855813955,714.1958399999999,43.27817270552978,74.213274477701,670.2111071453596,964.2649536939388,961.4515016866819,172.0,681.8382876175164,816.0356187394175,0.8355496646957589,deceptive
1784138327937894499,1784138337937894499,1519.0894474766355,1344.36864,29.753743735051724,66.2219897680186,1369.3794315078142,1938.3156290659942,1929.1926540743598,107.0,1370.5961253924334,1676.6434282228745,0.8174642874693816,1726.537950967742,1008.2764799999999,44.630615602577585,86.2310802988271,2116.625778430748,2595.351446952504,2581.231003413247,93.0,1835.190607702434,2697.451962229453,0.6803422761181047,1039.454840754717,714.1958399999999,95.2119799521655,70.21506151819385,666.3125220734807,901.8008734230832,898.9428972560538,159.0,637.6695128774136,827.4258578973627,0.7706666486080651,960.2288220689657,714.1958399999999,51.00641783151723,72.04323846303568,467.74860430577485,609.6471290878743,607.890787005294,174.0,431.08561910894645,587.0775997759825,0.7342906955970393,999.9247922891567,714.1958399999999,84.0105705460284,72.92662750506153,686.1889895181521,992.7711479436582,989.7582112324236,166.0,701.995210877314,833.8537165621696,0.8418685399298995,deceptive
1784138328937894499,1784138338937894499,1532.0462714018693,1344.36864,43.27817270552978,64.24695138225097,1357.106423107096,1932.1918568032372,1923.067949922539,107.0,1366.2659644989956,1658.3529010445536,0.8238692522191265,1665.6082424242425,1008.2764799999999,89.26123120515517,86.98789346526934,2190.2414876235916,2747.545063696021,2733.4910325870537,99.0,1942.8077461550808,2776.1600420283976,0.6998183522357634,1059.444356923077,714.1958399999999,79.34331662680458,68.97751920091862,673.6783860885212,916.9394048772328,913.9767898099357,156.0,648.3740711258486,835.1590673108421,0.7763479994458671,941.3428718644069,714.1958399999999,79.34331662680458,72.93436283209368,453.4156768498729,582.5525686928244,580.895673673483,177.0,411.92687172033817,571.2527270865363,0.721093926012781,1015.9615141463415,714.1958399999999,79.34331662680458,71.96139926918428,688.4231793250287,999.3709963338747,996.301024923517,164.0,706.662008428839,835.564091249511,0.8457304661957045,deceptive
1784138329937894499,1784138339937894499,1499.0474181818183,1344.36864,44.630615602577585,64.17098152794158,1217.7283018808032,1772.9918304636642,1764.8508749584153,110.0,1253.6945463092065,1476.4313145826613,0.849138414991953,1700.3609936842106,1008.2764799999999,11.071160459554129,86.18985421105538,2176.6846998615297,2769.471008215801,2754.7398730675686,95.0,1958.3117302089374,2749.258108815103,0.7123055212349437,1102.8719554966888,714.1958399999999,44.630615602577585,67.39772641343862,706.347113145897,938.7680994476377,935.6849898704968,151.0,663.8092890810318,881.7772407836079,0.7528083719774001,938.3368472727274,714.1958399999999,44.630615602577585,73.01516733947784,448.5740195789149,598.4170660685795,596.7157189997389,176.0,423.1447653948508,559.3849799930615,0.7564464197807017,1032.170532,714.1958399999999,84.0105705460284,71.5134936055413,709.5665932554982,1013.1395069767273,1009.9485084773783,160.0,716.3978156712393,866.2312539842728,0.82702836266428,deceptive
1784138330937894499,1784138340937894499,1539.644408888889,1344.36864,59.50748747010345,61.38050435031718,1240.8553983008014,1783.9784204670536,1775.624630791484,108.0,1261.4632386027195,1511.2244994743335,0.8347292139860812,1685.9774642424245,1008.2764799999999,89.26123120515517,84.65644545811749,2249.6698555156777,2930.279565244089,2915.29284188953,99.0,2072.020551356464,2824.074066842102,0.7336990823591998,1100.591267368421,714.1958399999999,43.27817270552978,66.74059739084288,667.8236433010851,871.644076210867,868.7644480759071,152.0,616.3454370697879,837.8758787585999,0.7356047031488334,939.8307451685395,714.1958399999999,89.26123120515517,72.52564679220427,427.0075120541108,560.2440498976827,558.6592483462891,178.0,396.15236680206584,534.9789545765739,0.740500842908135,1039.067531925466,714.1958399999999,43.27817270552978,71.03507421079101,707.9713641647224,1002.3049629848999,999.176682704134,161.0,708.7366361435543,866.7716511564482,0.8176739919884973,deceptive
1784138331937894499,1784138341937894499,1582.299267692308,1344.36864,9.917914578350572,60.07042749128251,1314.798659986304,1845.519352564675,1837.1067388964987,104.0,1304.9792490094885,1614.281763643162,0.808396203438717,1637.1499546391753,1008.2764799999999,44.630615602577585,85.78201903219781,2178.8641912646094,2850.5007369692144,2836.315659472908,97.0,2015.6084008881828,2731.951631175935,0.73779066140369,1066.446276923077,714.1958399999999,84.0105705460284,68.27970831544349,647.0400885180716,844.2310661757995,841.5033334679317,156.0,596.9615117812567,811.8745155655928,0.7352879051332005,914.3276413186815,714.1958399999999,44.630615602577585,73.62992349378868,391.6811574421676,513.6080585064468,512.1975945607471,182.0,363.1757410419656,490.79522078946707,0.7399740781048773,1026.9482666666668,714.1958399999999,44.630615602577585,70.83602273650169,673.9759026207589,949.1931095304801,946.2488085562289,162.0,671.1808844045479,826.5864412340054,0.8119911613872427,deceptive
1784138332937894499,1784138342937894499,1615.7960094117648,1344.36864,36.61999228929443,59.18275105246154,1351.274892731969,1875.814589252989,1866.5319747374533,102.0,1326.401216309447,1664.9977712123216,0.796638433541965,1717.2750185567013,1008.2764799999999,59.50748747010345,84.48777024603906,2407.6903283786005,3212.0354899330655,3195.27001580859,97.0,2271.252076343525,3002.4410797862993,0.7564684921328024,1041.360552,714.1958399999999,89.26123120515517,68.21169168772022,535.5985663864321,684.4969505238336,682.3461650128214,160.0,484.0124354169154,675.720082438946,0.7162913283114505,914.5049104972377,714.1958399999999,89.26123120515517,73.75369579337881,397.59876223729196,519.3214330180181,517.8770747176231,181.0,367.215706902556,498.74428695202243,0.7362805279369165,1025.6516148148148,714.1958399999999,89.26123120515517,69.9433555653411,606.0008856385541,834.0040260241601,831.4099579639272,162.0,589.7299023385655,748.7212217730288,0.7876495085073724,deceptive
1784138333937894499,1784138343937894499,1556.3893951401872,1344.36864,178.52246241031034,61.818353401699795,1157.7949574156733,1532.4299428230547,1525.1975534835829,107.0,1083.5916042634954,1447.0290060738776,0.7488388966047947,1689.034579591837,1008.2764799999999,89.26123120515517,80.12634105448086,2168.9591404278567,2835.405088895602,2821.2964584765864,98.0,2004.9341657689258,2720.0895207984104,0.7370838902318297,1025.3922844444446,714.1958399999999,43.27817270552978,68.69376175135196,506.4283538193138,617.6549649162472,615.751708301153,162.0,436.74801412581746,646.1926502080147,0.6758789565081322,912.7118136263737,714.1958399999999,89.26123120515517,74.11510255931752,412.7185390524383,538.5981876789211,537.1211254016749,182.0,380.8464308425499,517.8331613680255,0.7354616491466472,1000.6840366265061,714.1958399999999,89.26123120515517,71.15647118400781,591.521499176562,791.7819486766986,789.3790040808984,166.0,559.8743851303925,736.9299182511232,0.7597389809591153,deceptive
1784138334937894499,1784138344937894499,1583.2341394285716,1344.36864,178.52246241031034,59.356522716671215,1146.9771488318938,1504.7370458081014,1497.5410504789193,105.0,1064.009768993521,1437.0298415928103,0.7404228765452552,1830.501942857143,1008.2764799999999,35.704492482062065,77.97547333796521,2449.6646596587116,3359.1410147371685,3340.460389385337,91.0,2375.2713904825123,3029.976369600809,0.7839240643303921,1016.5241403680983,714.1958399999999,89.26123120515517,69.36195494085894,511.72830040921,603.5874348089638,601.7216827201632,163.0,426.8007681924115,657.7630720970744,0.6488670256779376,892.0067597837839,714.1958399999999,84.0105705460284,75.51837377304824,400.5369779375801,526.0637748218825,524.6323061145665,185.0,371.98326251314603,501.6711747706629,0.7414882122402126,956.1242482758622,714.1958399999999,89.26123120515517,72.25741639713968,488.13876065334557,642.0456359758191,640.1873234357845,174.0,453.9948230297312,611.1491222569741,0.7428544139164072,deceptive
1784138335937894499,1784138345937894499,1533.0241449056605,1344.36864,59.50748747010345,59.561729657743406,1015.920364022248,1353.4609477248187,1347.0042798376028,106.0,957.0414142073906,1267.3690219569644,0.7551402927062301,1638.0249212121214,1008.2764799999999,30.386802112393244,78.41423613188363,2244.6595859345753,3057.60898026703,3041.9849132455784,99.0,2162.0560441637012,2782.040643916541,0.7771475405621577,1047.3815426415094,714.1958399999999,43.27817270552978,68.21767707533338,539.6916170828296,663.989190656288,661.9019278693034,159.0,469.5112593476286,687.2508070361656,0.6831730927642566,898.224563478261,714.1958399999999,79.34331662680458,75.08009252736318,394.6333121420138,540.4647259637608,538.9860724228844,184.0,382.16627272110435,488.30868526126113,0.7826325524327565,972.1959981176472,714.1958399999999,79.34331662680458,71.34855626127799,495.5152301639934,651.9605153964717,650.0288238235898,170.0,461.0057015027216,620.3285889268224,0.7431637195704107,deceptive
1784138336937894499,1784138346937894499,1535.7544533333335,1344.36864,178.52246241031034,60.70113770343746,1045.0266537472523,1383.028530669452,1376.553353405963,108.0,977.9488526108365,1306.1276487858809,0.7487391094736376,1875.4131343820227,1344.36864,4.8086858561699755,75.2102012817672,2610.976463345357,3362.1014235856487,3345.3370275355996,89.0,2377.3647156543575,3287.6229541520865,0.7231257199527327,1041.09798,714.1958399999999,43.27817270552978,68.09170130520674,519.5292927240565,693.6708009068966,691.5005944513556,160.0,490.49932723237015,647.7087130717117,0.7572838180703368,886.0408340425532,714.1958399999999,43.27817270552978,75.28249918097643,359.74062586659255,497.806676898443,496.48854866437057,188.0,352.0024769548297,443.70459081083186,0.7933262000097308,962.865183815029,714.1958399999999,89.26123120515517,71.45623113543465,458.6593867132875,574.0046178133084,572.3335673452365,173.0,405.8825576881829,581.6928233377712,0.697760985530501,deceptive
1784138337937894499,1784138347937894499,1610.0297223529412,1344.36864,19.835829156701145,58.44702864264698,1086.2218461188907,1422.3331608047267,1415.5247403365827,102.0,1005.7414231115184,1361.6159123962495,0.7386381239784112,1596.0218043564357,1008.2764799999999,25.055784197938287,81.83019173003487,2289.627801838931,3085.754124188126,3070.294894202245,101.0,2181.9576662877794,2846.808970263292,0.7664573524531143,1021.6789280981596,714.1958399999999,95.2119799521655,68.86801027934995,500.59686682233644,653.5458749589937,651.5256355815116,163.0,462.12672,628.0238000869879,0.7358426861147469,887.184451764706,714.1958399999999,95.2119799521655,75.43629188344582,375.24962390116707,513.9586209131674,512.575348766443,187.0,363.42362609698677,464.312604258374,0.7827132469889919,964.5551888372094,714.1958399999999,95.2119799521655,71.49284744028395,462.25752813282696,577.1491091727036,575.4592740072388,172.0,408.1060488517937,586.5908037774129,0.6957252759909498,deceptive
1784138338937894499,1784138348937894499,1626.5048282352943,1344.36864,178.52246241031034,59.09268291867575,1109.575089123455,1489.4858292587885,1482.0985223511777,102.0,1053.2255303501574,1381.1849072140778,0.7625521571000717,1834.1952632967034,1008.2764799999999,178.52246241031034,79.52574605869164,2648.312532773673,3705.0286716104138,3684.4047152340736,91.0,2619.8508981863097,3255.04365226158,0.8048589137555979,1034.6315329192548,714.1958399999999,43.27817270552978,68.59779821806492,537.2265701315008,701.2100557644355,699.0295916466654,161.0,495.83038546722946,674.0184639416209,0.7356332385431137,890.7790203208557,714.1958399999999,43.27817270552978,75.54074361247204,398.96412162235447,558.7258641881192,557.2351183043168,187.0,395.0788473917331,490.2051538443915,0.8059459275231227,948.0199570285715,714.1958399999999,43.27817270552978,72.48087678168945,455.48304905458974,578.0178364550591,576.3674188660061,175.0,408.72033180414905,575.6765247403134,0.7099826278108561,deceptive
1784138339937894499,1784138349937894499,1670.9127272727274,1344.36864,44.630615602577585,56.66504033898811,1140.628749050818,1523.1840283775878,1514.7201089898122,88.0,1077.053755460835,1421.9864592345189,0.7574289814550221,1821.199392,1008.2764799999999,5.231427469899203,76.80243987597859,2620.8930661940553,3444.721556431411,3424.6541136573255,80.0,2435.785971852129,3282.016800461622,0.7421613355268416,1014.8497110204082,714.1958399999999,84.0105705460284,69.30214658466967,524.486382592643,704.4055841743779,701.9890913434849,147.0,498.08996527537397,652.7826010979621,0.7630257982329807,885.7016922352942,714.1958399999999,84.0105705460284,75.74381782626503,402.71207230407725,573.4737021968061,571.7747332786712,170.0,405.5071436555163,492.0731699463617,0.824078954964601,935.2129669565218,714.1958399999999,84.0105705460284,72.90948269816029,434.3552782466572,567.490348784244,565.7144055437454,161.0,401.27627388325794,544.8097755094399,0.7365438212044436,deceptive
1784138340937894499,1784138350937894499,1691.2329846153846,1344.36864,44.630615602577585,57.28589307831688,1161.8813284712242,1578.620175502743,1568.3358955023434,78.0,1116.2530310158872,1441.154408199911,0.7745547768265545,1876.9090343661976,1008.2764799999999,5.231427469899203,78.38711090748636,2766.7774505661764,3655.7595406408877,3632.828920309685,71.0,2585.0123615745897,3459.6199888392684,0.7471954636387342,1013.3687854545454,714.1958399999999,84.0105705460284,69.45253412615261,531.1301721547211,715.9612733647352,713.2236501191377,132.0,506.2610714631598,660.3395969550018,0.7666677476220747,891.7645312,714.1958399999999,84.0105705460284,75.62649785057721,417.74421014018446,593.0072436975997,591.0142054255496,150.0,419.3194433113163,510.985373999919,0.8206094824768562,935.4173404195805,714.1958399999999,84.0105705460284,73.03471835986682,444.6347229644059,588.8841387203028,586.8072378470125,143.0,416.4039678223256,555.6113223487979,0.7494519119265146,deceptive
1784138341937894499,1784138351937894499,1602.8561866666666,1344.36864,44.630615602577585,59.408142287218624,1027.585037018883,1458.8379389249633,1448.5589394285546,72.0,1031.554199266048,1256.9049222588355,0.8207098094676879,1772.185952,1008.2764799999999,5.231427469899203,80.58217754762777,2589.3884864299894,3391.080131011521,3365.0267870356447,60.0,2397.8557561852126,3245.7679143119744,0.73876377470245,1044.6614571428572,714.1958399999999,84.0105705460284,68.04706732926614,555.9316797824023,762.8931866724286,759.4490503609135,112.0,539.4469456170889,687.4725897107198,0.784681387579513,906.9928930232558,714.1958399999999,84.0105705460284,75.04675463950427,439.793988389367,623.7667521846926,621.3254723551012,129.0,441.0697003485048,538.1136164083691,0.8196590587921145,936.0166656,714.1958399999999,84.0105705460284,73.3974361109439,462.083597659621,610.534582742806,608.0678606466847,125.0,431.71314360633744,577.8013354699727,0.7471653613524276,deceptive
1784138342937894499,1784138352937894499,1594.371619672131,1344.36864,44.630615602577585,60.17084855889462,1063.4925718735656,1497.1635354877458,1484.6481242716684,61.0,1058.6544884886114,1304.4762312368748,0.8115552151416505,1772.736102857143,1008.2764799999999,5.231427469899203,83.25640962847083,2669.325432358122,3490.816710435096,3464.8542236412395,56.0,2468.380167827973,3347.2595061041384,0.7374331638543646,1043.7237000000002,714.1958399999999,84.0105705460284,68.55666162612467,578.7463582940575,795.6030804181429,791.4051121903238,96.0,562.576333296575,715.2961827694578,0.7864942479049899,910.8861381818183,714.1958399999999,84.0105705460284,74.93549047575554,451.2929892185565,640.8696803705909,637.9236032387843,110.0,453.16329684690004,551.9531116236817,0.8210177410067108,936.425001869159,714.1958399999999,84.0105705460284,73.37567145601511,468.53211799481016,628.1551812593002,625.1856662757399,107.0,444.17278830591613,583.4380500530277,0.7613024009413613,deceptive
1784138343937894499,1784138353937894499,1585.1269661538463,1344.36864,44.630615602577585,58.243102962049804,983.5037173641097,1477.7229928825109,1463.2308039628508,52.0,1044.9079489825037,1178.4068962860977,0.8867123506113778,1986.8374946341464,1008.2764799999999,5.231427469899203,80.25936757456641,3049.704233176791,3727.1048296410354,3680.230733196996,41.0,2635.4610992323082,3889.5455026171758,0.6775755926904503,1061.0601846153847,714.1958399999999,84.0105705460284,68.20912869772418,612.6119481006058,845.2732330424301,839.7665084101525,78.0,597.6984350397792,756.283735304904,0.7903097834026678,909.4801582417583,714.1958399999999,84.0105705460284,74.97740695610077,454.3538766893358,655.0310361958433,651.3818098285983,91.0,463.1768875817316,552.8186646001618,0.8378459651262579,916.8667991208793,714.1958399999999,84.0105705460284,74.13560334329149,446.21927745735064,611.2265161766977,607.8215072759731,91.0,432.2024144295719,552.1085252282783,0.7828214828794225,deceptive
1784138344937894499,1784138354937894499,1615.342944,1344.36864,44.630615602577585,58.8909231725366,1057.8209053048156,1593.5436555757717,1573.1933858459338,40.0,1126.8055249744282,1266.1456432193538,0.889949375894361,1794.8254933333333,1008.2764799999999,5.231427469899203,85.14927435791128,2784.785025264137,3474.910796432732,3439.648874582885,36.0,2457.1329881759316,3534.3038937080055,0.6952240277216335,1074.6817858064517,714.1958399999999,84.0105705460284,68.37720954363498,655.4268777743129,907.7459504550218,900.2757170530987,62.0,641.8733171613736,808.1881628532402,0.794212717611817,899.4015549295774,714.1958399999999,84.0105705460284,75.61290611443223,460.84700485979636,647.7005788664993,643.0645057208854,71.0,457.9934714949539,565.5801568394093,0.8097764144596687,938.4545171830986,714.1958399999999,84.0105705460284,73.48508759098641,484.5495905970903,677.2254995177107,672.3718452707706,71.0,478.8707431014202,595.7499619776424,0.8038116217611969,deceptive
1784138345937894499,1784138355937894499,1545.2362199999998,1344.36864,44.630615602577585,60.07999574820112,974.4928453842685,1502.4183789533909,1478.1462320231826,32.0,1062.3702239372428,1155.4035507371534,0.9194797984301201,2340.6418285714285,1008.2764799999999,5.231427469899203,84.08831715155964,3546.930473356593,4572.287846756794,4474.917156893412,21.0,3233.0957419785673,4464.860303217927,0.7241202461918912,1039.7851199999998,714.1958399999999,84.0105705460284,69.46136108246009,621.4720676992251,850.3180941611505,841.2353938604601,48.0,601.2656905469707,769.2170347478257,0.7816593541042486,871.1862568421052,714.1958399999999,84.0105705460284,77.55070559513248,460.7966906672295,631.3424900291803,625.6805609219778,57.0,446.4265559508337,570.1042407583716,0.7830612790337821,924.2534399999998,714.1958399999999,84.0105705460284,75.29447709564636,524.5943309148494,750.0370246344547,742.9170882728205,53.0,530.3562662600045,640.1246280806345,0.8285203271279187,deceptive
1784138346937894499,1784138356937894499,1664.9828715789474,1344.36864,44.630615602577585,61.41130384590116,1168.9818595273962,1845.4839722046281,1793.5852363260635,19.0,1304.9542313169784,1371.7085706855573,0.9513348966426475,1682.671932631579,672.18432,29.753743735051724,90.24642903556972,2336.2700614617124,3328.532677121359,3236.0992665475796,19.0,2353.6280273935263,2854.2132286320966,0.8246153454069444,995.5457163636362,714.1958399999999,84.0105705460284,71.841921562074,619.2679074394593,799.4616746147083,786.8753209984841,33.0,565.3047714188134,779.2308644262336,0.7254650671916864,864.5528589473685,714.1958399999999,84.0105705460284,79.17347812631532,516.7201478178672,705.9064708478935,696.3055567312562,38.0,499.1512524200094,639.8620444483366,0.7800919850627452,912.5835733333333,714.1958399999999,84.0105705460284,74.88428238382856,418.505006920474,575.0356320509007,566.7663909524741,36.0,406.61159484708435,517.3261902349109,0.7859868735090475,deceptive
1784138347937894499,1784138357937894499,1583.834304,1344.36864,44.630615602577585,55.72243804931342,1015.6501580344141,1742.8452615406216,1643.707244672886,10.0,1232.3777029942155,1141.8025598202219,1.0793264495643229,6238.71072,6238.71072,5.231427469899203,32.36945747000133,7396.951039308612,0.0,10460.86848,2.0,,,,1149.3151542857145,714.1958399999999,84.0105705460284,68.14096666345132,860.1291414150197,1114.6205388385893,1070.8976505704402,14.0,788.1557414625701,1081.225944667659,0.7289463828994862,846.8637978947369,714.1958399999999,84.0105705460284,80.81146868769292,541.5093458941016,812.5244708444555,789.6352998211486,19.0,574.5415632141257,649.1654176333254,0.8850464729140112,846.8637978947369,714.1958399999999,84.0105705460284,77.48783560711277,338.4943242322035,523.6288503488838,508.88112524593095,19.0,370.26151090661165,400.7618018791322,0.9238942163911139,deceptive
1784138348937894499,1784138358937894499,,,,,,,,0.0,,,,,,,,,,,0.0,,,,,,,,,,,0.0,,,,,,,,,,,0.0,,,,,,,,,,,0.0,,,,deceptive
1784138349937894499,1784138359937894499,,,,,,,,0.0,,,,,,,,,,,0.0,,,,,,,,,,,0.0,,,,,,,,,,,0.0,,,,,,,,,,,0.0,,,,deceptive
1784138350937894499,1784138360937894499,,,,,,,,0.0,,,,,,,,,,,0.0,,,,,,,,,,,0.0,,,,,,,,,,,0.0,,,,,,,,,,,0.0,,,,deceptive
1784138351937894499,1784138361937894499,,,,,,,,0.0,,,,,,,,,,,0.0,,,,,,,,,,,0.0,,,,,,,,,,,0.0,,,,,,,,,,,0.0,,,,deceptive
1784138352937894499,1784138362937894499,,,,,,,,0.0,,,,,,,,,,,0.0,,,,,,,,,,,0.0,,,,,,,,,,,0.0,,,,,,,,,,,0.0,,,,deceptive
1784138353937894499,1784138363937894499,,,,,,,,0.0,,,,,,,,,,,0.0,,,,,,,,,,,0.0,,,,,,,,,,,0.0,,,,,,,,,,,0.0,,,,deceptive
1784138354937894499,1784138364937894499,,,,,,,,0.0,,,,,,,,,,,0.0,,,,,,,,,,,0.0,,,,,,,,,,,0.0,,,,,,,,,,,0.0,,,,deceptive
1784138355937894499,1784138365937894499,,,,,,,,0.0,,,,,,,,,,,0.0,,,,,,,,,,,0.0,,,,,,,,,,,0.0,,,,,,,,,,,0.0,,,,deceptive
1784138356937894499,1784138366937894499,,,,,,,,0.0,,,,,,,,,,,0.0,,,,,,,,,,,0.0,,,,,,,,,,,0.0,,,,,,,,,,,0.0,,,,deceptive
1784138357937894499,1784138367937894499,,,,,,,,0.0,,,,,,,,,,,0.0,,,,,,,,,,,0.0,,,,,,,,,,,0.0,,,,,,,,,,,0.0,,,,deceptive
1784138358937894499,1784138368937894499,,,,,,,,0.0,,,,,,,,,,,0.0,,,,,,,,,,,0.0,,,,,,,,,,,0.0,,,,,,,,,,,0.0,,,,deceptive
1784138359937894499,1784138369937894499,,,,,,,,0.0,,,,,,,,,,,0.0,,,,,,,,,,,0.0,,,,,,,,,,,0.0,,,,,,,,,,,0.0,,,,deceptive
1784138360937894499,1784138370937894499,,,,,,,,0.0,,,,,,,,,,,0.0,,,,,,,,,,,0.0,,,,,,,,,,,0.0,,,,,,,,,,,0.0,,,,deceptive
1784138361937894499,1784138371937894499,,,,,,,,0.0,,,,,,,,,,,0.0,,,,,,,,,,,0.0,,,,,,,,,,,0.0,,,,,,,,,,,0.0,,,,deceptive
1784138362937894499,1784138372937894499,,,,,,,,0.0,,,,,,,,,,,0.0,,,,,,,,,,,0.0,,,,,,,,,,,0.0,,,,,,,,,,,0.0,,,,deceptive
1784138363937894499,1784138373937894499,,,,,,,,0.0,,,,,,,,,,,0.0,,,,,,,,,,,0.0,,,,,,,,,,,0.0,,,,,,,,,,,0.0,,,,deceptive
1784138364937894499,1784138374937894499,,,,,,,,0.0,,,,,,,,,,,0.0,,,,,,,,,,,0.0,,,,,,,,,,,0.0,,,,,,,,,,,0.0,,,,deceptive
1784138365937894499,1784138375937894499,,,,,,,,0.0,,,,,,,,,,,0.0,,,,,,,,,,,0.0,,,,,,,,,,,0.0,,,,,,,,,,,0.0,,,,deceptive
1784138366937894499,1784138376937894499,,,,,,,,0.0,,,,,,,,,,,0.0,,,,,,,,,,,0.0,,,,,,,,,,,0.0,,,,,,,,,,,0.0,,,,deceptive
1784138367937894499,1784138377937894499,,,,,,,,0.0,,,,,,,,,,,0.0,,,,,,,,,,,0.0,,,,,,,,,,,0.0,,,,,,,,,,,0.0,,,,deceptive
1784138368937894499,1784138378937894499,,,,,,,,0.0,,,,,,,,,,,0.0,,,,,,,,,,,0.0,,,,,,,,,,,0.0,,,,,,,,,,,0.0,,,,deceptive
1784138369937894499,1784138379937894499,,,,,,,,0.0,,,,,,,,,,,0.0,,,,,,,,,,,0.0,,,,,,,,,,,0.0,,,,,,,,,,,0.0,,,,deceptive
1784138370937894499,1784138380937894499,,,,,,,,0.0,,,,,,,,,,,0.0,,,,,,,,,,,0.0,,,,,,,,,,,0.0,,,,,,,,,,,0.0,,,,deceptive
1784138371937894499,1784138381937894499,,,,,,,,0.0,,,,,,,,,,,0.0,,,,,,,,,,,0.0,,,,,,,,,,,0.0,,,,,,,,,,,0.0,,,,deceptive
1784138372937894499,1784138382937894499,,,,,,,,0.0,,,,,,,,,,,0.0,,,,,,,,,,,0.0,,,,,,,,,,,0.0,,,,,,,,,,,0.0,,,,deceptive
1784138373937894499,1784138383937894499,,,,,,,,0.0,,,,,,,,,,,0.0,,,,,,,,,,,0.0,,,,,,,,,,,0.0,,,,,,,,,,,0.0,,,,deceptive
1784138374937894499,1784138384937894499,,,,,,,,0.0,,,,,,,,,,,0.0,,,,,,,,,,,0.0,,,,,,,,,,,0.0,,,,,,,,,,,0.0,,,,deceptive
1784138375937894499,1784138385937894499,,,,,,,,0.0,,,,,,,,,,,0.0,,,,,,,,,,,0.0,,,,,,,,,,,0.0,,,,,,,,,,,0.0,,,,deceptive
1784138376937894499,1784138386937894499,,,,,,,,0.0,,,,,,,,,,,0.0,,,,,,,,,,,0.0,,,,,,,,,,,0.0,,,,,,,,,,,0.0,,,,deceptive
1784138377937894499,1784138387937894499,,,,,,,,0.0,,,,,,,,,,,0.0,,,,,,,,,,,0.0,,,,,,,,,,,0.0,,,,,,,,,,,0.0,,,,deceptive
1784138378937894499,1784138388937894499,,,,,,,,0.0,,,,,,,,,,,0.0,,,,,,,,,,,0.0,,,,,,,,,,,0.0,,,,,,,,,,,0.0,,,,deceptive
1784138379937894499,1784138389937894499,,,,,,,,0.0,,,,,,,,,,,0.0,,,,,,,,,,,0.0,,,,,,,,,,,0.0,,,,,,,,,,,0.0,,,,deceptive
1784138380937894499,1784138390937894499,,,,,,,,0.0,,,,,,,,,,,0.0,,,,,,,,,,,0.0,,,,,,,,,,,0.0,,,,,,,,,,,0.0,,,,deceptive
1784138381937894499,1784138391937894499,,,,,,,,0.0,,,,,,,,,,,0.0,,,,,,,,,,,0.0,,,,,,,,,,,0.0,,,,,,,,,,,0.0,,,,deceptive
1784138382937894499,1784138392937894499,,,,,,,,0.0,,,,,,,,,,,0.0,,,,,,,,,,,0.0,,,,,,,,,,,0.0,,,,,,,,,,,0.0,,,,deceptive
1784138383937894499,1784138393937894499,,,,,,,,0.0,,,,,,,,,,,0.0,,,,,,,,,,,0.0,,,,,,,,,,,0.0,,,,,,,,,,,0.0,,,,deceptive
1784138384937894499,1784138394937894499,,,,,,,,0.0,,,,,,,,,,,0.0,,,,,,,,,,,0.0,,,,,,,,,,,0.0,,,,,,,,,,,0.0,,,,deceptive
1784138385937894499,1784138395937894499,,,,,,,,0.0,,,,,,,,,,,0.0,,,,,,,,,,,0.0,,,,,,,,,,,0.0,,,,,,,,,,,0.0,,,,deceptive
1784138386937894499,1784138396937894499,,,,,,,,0.0,,,,,,,,,,,0.0,,,,,,,,,,,0.0,,,,,,,,,,,0.0,,,,,,,,,,,0.0,,,,deceptive
1784138387937894499,1784138397937894499,,,,,,,,0.0,,,,,,,,,,,0.0,,,,,,,,,,,0.0,,,,,,,,,,,0.0,,,,,,,,,,,0.0,,,,deceptive
1784138388937894499,1784138398937894499,,,,,,,,0.0,,,,,,,,,,,0.0,,,,,,,,,,,0.0,,,,,,,,,,,0.0,,,,,,,,,,,0.0,,,,deceptive
1784138389937894499,1784138399937894499,,,,,,,,0.0,,,,,,,,,,,0.0,,,,,,,,,,,0.0,,,,,,,,,,,0.0,,,,,,,,,,,0.0,,,,deceptive
1784138390937894499,1784138400937894499,,,,,,,,0.0,,,,,,,,,,,0.0,,,,,,,,,,,0.0,,,,,,,,,,,0.0,,,,,,,,,,,0.0,,,,deceptive
1784138391937894499,1784138401937894499,,,,,,,,0.0,,,,,,,,,,,0.0,,,,,,,,,,,0.0,,,,,,,,,,,0.0,,,,,,,,,,,0.0,,,,deceptive
1784138392937894499,1784138402937894499,,,,,,,,0.0,,,,,,,,,,,0.0,,,,,,,,,,,0.0,,,,,,,,,,,0.0,,,,,,,,,,,0.0,,,,deceptive
1784138393937894499,1784138403937894499,,,,,,,,0.0,,,,,,,,,,,0.0,,,,,,,,,,,0.0,,,,,,,,,,,0.0,,,,,,,,,,,0.0,,,,deceptive
1784138394937894499,1784138404937894499,,,,,,,,0.0,,,,,,,,,,,0.0,,,,,,,,,,,0.0,,,,,,,,,,,0.0,,,,,,,,,,,0.0,,,,deceptive
1784138395937894499,1784138405937894499,,,,,,,,0.0,,,,,,,,,,,0.0,,,,,,,,,,,0.0,,,,,,,,,,,0.0,,,,,,,,,,,0.0,,,,deceptive
1784138396937894499,1784138406937894499,,,,,,,,0.0,,,,,,,,,,,0.0,,,,,,,,,,,0.0,,,,,,,,,,,0.0,,,,,,,,,,,0.0,,,,deceptive
1784138397937894499,1784138407937894499,,,,,,,,0.0,,,,,,,,,,,0.0,,,,,,,,,,,0.0,,,,,,,,,,,0.0,,,,,,,,,,,0.0,,,,deceptive
1784138398937894499,1784138408937894499,,,,,,,,0.0,,,,,,,,,,,0.0,,,,,,,,,,,0.0,,,,,,,,,,,0.0,,,,,,,,,,,0.0,,,,deceptive
1784138399937894499,1784138409937894499,,,,,,,,0.0,,,,,,,,,,,0.0,,,,,,,,,,,0.0,,,,,,,,,,,0.0,,,,,,,,,,,0.0,,,,deceptive
1784138400937894499,1784138410937894499,,,,,,,,0.0,,,,,,,,,,,0.0,,,,,,,,,,,0.0,,,,,,,,,,,0.0,,,,,,,,,,,0.0,,,,deceptive
1784138401937894499,1784138411937894499,,,,,,,,0.0,,,,,,,,,,,0.0,,,,,,,,,,,0.0,,,,,,,,,,,0.0,,,,,,,,,,,0.0,,,,deceptive
1784138402937894499,1784138412937894499,,,,,,,,0.0,,,,,,,,,,,0.0,,,,,,,,,,,0.0,,,,,,,,,,,0.0,,,,,,,,,,,0.0,,,,deceptive
1784138403937894499,1784138413937894499,,,,,,,,0.0,,,,,,,,,,,0.0,,,,,,,,,,,0.0,,,,,,,,,,,0.0,,,,,,,,,,,0.0,,,,deceptive
1784138404937894499,1784138414937894499,,,,,,,,0.0,,,,,,,,,,,0.0,,,,,,,,,,,0.0,,,,,,,,,,,0.0,,,,,,,,,,,0.0,,,,deceptive
1784138405937894499,1784138415937894499,,,,,,,,0.0,,,,,,,,,,,0.0,,,,,,,,,,,0.0,,,,,,,,,,,0.0,,,,,,,,,,,0.0,,,,deceptive
1784138406937894499,1784138416937894499,,,,,,,,0.0,,,,,,,,,,,0.0,,,,,,,,,,,0.0,,,,,,,,,,,0.0,,,,,,,,,,,0.0,,,,deceptive
1784138407937894499,1784138417937894499,,,,,,,,0.0,,,,,,,,,,,0.0,,,,,,,,,,,0.0,,,,,,,,,,,0.0,,,,,,,,,,,0.0,,,,deceptive
1784138408937894499,1784138418937894499,,,,,,,,0.0,,,,,,,,,,,0.0,,,,,,,,,,,0.0,,,,,,,,,,,0.0,,,,,,,,,,,0.0,,,,deceptive
1784138409937894499,1784138419937894499,,,,,,,,0.0,,,,,,,,,,,0.0,,,,,,,,,,,0.0,,,,,,,,,,,0.0,,,,,,,,,,,0.0,,,,deceptive
1784138410937894499,1784138420937894499,,,,,,,,0.0,,,,,,,,,,,0.0,,,,,,,,,,,0.0,,,,,,,,,,,0.0,,,,,,,,,,,0.0,,,,deceptive
1784138411937894499,1784138421937894499,,,,,,,,0.0,,,,,,,,,,,0.0,,,,,,,,,,,0.0,,,,,,,,,,,0.0,,,,,,,,,,,0.0,,,,deceptive
1784138412937894499,1784138422937894499,,,,,,,,0.0,,,,,,,,,,,0.0,,,,,,,,,,,0.0,,,,,,,,,,,0.0,,,,,,,,,,,0.0,,,,deceptive
1784138413937894499,1784138423937894499,,,,,,,,0.0,,,,,,,,,,,0.0,,,,,,,,,,,0.0,,,,,,,,,,,0.0,,,,,,,,,,,0.0,,,,deceptive
1784138414937894499,1784138424937894499,,,,,,,,0.0,,,,,,,,,,,0.0,,,,,,,,,,,0.0,,,,,,,,,,,0.0,,,,,,,,,,,0.0,,,,deceptive
1784138415937894499,1784138425937894499,,,,,,,,0.0,,,,,,,,,,,0.0,,,,,,,,,,,0.0,,,,,,,,,,,0.0,,,,,,,,,,,0.0,,,,deceptive
1784138416937894499,1784138426937894499,,,,,,,,0.0,,,,,,,,,,,0.0,,,,,,,,,,,0.0,,,,,,,,,,,0.0,,,,,,,,,,,0.0,,,,deceptive
1784138417937894499,1784138427937894499,,,,,,,,0.0,,,,,,,,,,,0.0,,,,,,,,,,,0.0,,,,,,,,,,,0.0,,,,,,,,,,,0.0,,,,deceptive
1784138418937894499,1784138428937894499,,,,,,,,0.0,,,,,,,,,,,0.0,,,,,,,,,,,0.0,,,,,,,,,,,0.0,,,,,,,,,,,0.0,,,,deceptive
1784138419937894499,1784138429937894499,,,,,,,,0.0,,,,,,,,,,,0.0,,,,,,,,,,,0.0,,,,,,,,,,,0.0,,,,,,,,,,,0.0,,,,deceptive
1784138420937894499,1784138430937894499,,,,,,,,0.0,,,,,,,,,,,0.0,,,,,,,,,,,0.0,,,,,,,,,,,0.0,,,,,,,,,,,0.0,,,,deceptive
1784138421937894499,1784138431937894499,,,,,,,,0.0,,,,,,,,,,,0.0,,,,,,,,,,,0.0,,,,,,,,,,,0.0,,,,,,,,,,,0.0,,,,deceptive
1784138422937894499,1784138432937894499,,,,,,,,0.0,,,,,,,,,,,0.0,,,,,,,,,,,0.0,,,,,,,,,,,0.0,,,,,,,,,,,0.0,,,,deceptive
1784138423937894499,1784138433937894499,,,,,,,,0.0,,,,,,,,,,,0.0,,,,,,,,,,,0.0,,,,,,,,,,,0.0,,,,,,,,,,,0.0,,,,deceptive
1784138424937894499,1784138434937894499,,,,,,,,0.0,,,,,,,,,,,0.0,,,,,,,,,,,0.0,,,,,,,,,,,0.0,,,,,,,,,,,0.0,,,,deceptive
1784138425937894499,1784138435937894499,,,,,,,,0.0,,,,,,,,,,,0.0,,,,,,,,,,,0.0,,,,,,,,,,,0.0,,,,,,,,,,,0.0,,,,deceptive
1784138426937894499,1784138436937894499,,,,,,,,0.0,,,,,,,,,,,0.0,,,,,,,,,,,0.0,,,,,,,,,,,0.0,,,,,,,,,,,0.0,,,,deceptive
1784138427937894499,1784138437937894499,,,,,,,,0.0,,,,,,,,,,,0.0,,,,,,,,,,,0.0,,,,,,,,,,,0.0,,,,,,,,,,,0.0,,,,deceptive
1784138428937894499,1784138438937894499,,,,,,,,0.0,,,,,,,,,,,0.0,,,,,,,,,,,0.0,,,,,,,,,,,0.0,,,,,,,,,,,0.0,,,,deceptive
1784138429937894499,1784138439937894499,,,,,,,,0.0,,,,,,,,,,,0.0,,,,,,,,,,,0.0,,,,,,,,,,,0.0,,,,,,,,,,,0.0,,,,deceptive
1784138430937894499,1784138440937894499,,,,,,,,0.0,,,,,,,,,,,0.0,,,,,,,,,,,0.0,,,,,,,,,,,0.0,,,,,,,,,,,0.0,,,,deceptive
1784138431937894499,1784138441937894499,,,,,,,,0.0,,,,,,,,,,,0.0,,,,,,,,,,,0.0,,,,,,,,,,,0.0,,,,,,,,,,,0.0,,,,deceptive
1784138432937894499,1784138442937894499,,,,,,,,0.0,,,,,,,,,,,0.0,,,,,,,,,,,0.0,,,,,,,,,,,0.0,,,,,,,,,,,0.0,,,,deceptive
1784138433937894499,1784138443937894499,,,,,,,,0.0,,,,,,,,,,,0.0,,,,,,,,,,,0.0,,,,,,,,,,,0.0,,,,,,,,,,,0.0,,,,deceptive
1784138434937894499,1784138444937894499,,,,,,,,0.0,,,,,,,,,,,0.0,,,,,,,,,,,0.0,,,,,,,,,,,0.0,,,,,,,,,,,0.0,,,,deceptive
1784138435937894499,1784138445937894499,,,,,,,,0.0,,,,,,,,,,,0.0,,,,,,,,,,,0.0,,,,,,,,,,,0.0,,,,,,,,,,,0.0,,,,deceptive
1784138436937894499,1784138446937894499,,,,,,,,0.0,,,,,,,,,,,0.0,,,,,,,,,,,0.0,,,,,,,,,,,0.0,,,,,,,,,,,0.0,,,,deceptive
1784138437937894499,1784138447937894499,,,,,,,,0.0,,,,,,,,,,,0.0,,,,,,,,,,,0.0,,,,,,,,,,,0.0,,,,,,,,,,,0.0,,,,deceptive
1784138438937894499,1784138448937894499,,,,,,,,0.0,,,,,,,,,,,0.0,,,,,,,,,,,0.0,,,,,,,,,,,0.0,,,,,,,,,,,0.0,,,,deceptive
1784138439937894499,1784138449937894499,,,,,,,,0.0,,,,,,,,,,,0.0,,,,,,,,,,,0.0,,,,,,,,,,,0.0,,,,,,,,,,,0.0,,,,deceptive
1784138440937894499,1784138450937894499,,,,,,,,0.0,,,,,,,,,,,0.0,,,,,,,,,,,0.0,,,,,,,,,,,0.0,,,,,,,,,,,0.0,,,,deceptive
1784138441937894499,1784138451937894499,,,,,,,,0.0,,,,,,,,,,,0.0,,,,,,,,,,,0.0,,,,,,,,,,,0.0,,,,,,,,,,,0.0,,,,deceptive
1784138442937894499,1784138452937894499,,,,,,,,0.0,,,,,,,,,,,0.0,,,,,,,,,,,0.0,,,,,,,,,,,0.0,,,,,,,,,,,0.0,,,,deceptive
1784138443937894499,1784138453937894499,,,,,,,,0.0,,,,,,,,,,,0.0,,,,,,,,,,,0.0,,,,,,,,,,,0.0,,,,,,,,,,,0.0,,,,deceptive
1784138444937894499,1784138454937894499,,,,,,,,0.0,,,,,,,,,,,0.0,,,,,,,,,,,0.0,,,,,,,,,,,0.0,,,,,,,,,,,0.0,,,,deceptive
1784138445937894499,1784138455937894499,,,,,,,,0.0,,,,,,,,,,,0.0,,,,,,,,,,,0.0,,,,,,,,,,,0.0,,,,,,,,,,,0.0,,,,deceptive
1784138446937894499,1784138456937894499,,,,,,,,0.0,,,,,,,,,,,0.0,,,,,,,,,,,0.0,,,,,,,,,,,0.0,,,,,,,,,,,0.0,,,,deceptive
1784138447937894499,1784138457937894499,,,,,,,,0.0,,,,,,,,,,,0.0,,,,,,,,,,,0.0,,,,,,,,,,,0.0,,,,,,,,,,,0.0,,,,deceptive
1784138448937894499,1784138458937894499,,,,,,,,0.0,,,,,,,,,,,0.0,,,,,,,,,,,0.0,,,,,,,,,,,0.0,,,,,,,,,,,0.0,,,,deceptive
1784138449937894499,1784138459937894499,,,,,,,,0.0,,,,,,,,,,,0.0,,,,,,,,,,,0.0,,,,,,,,,,,0.0,,,,,,,,,,,0.0,,,,deceptive
1784138450937894499,1784138460937894499,,,,,,,,0.0,,,,,,,,,,,0.0,,,,,,,,,,,0.0,,,,,,,,,,,0.0,,,,,,,,,,,0.0,,,,deceptive
1784138451937894499,1784138461937894499,,,,,,,,0.0,,,,,,,,,,,0.0,,,,,,,,,,,0.0,,,,,,,,,,,0.0,,,,,,,,,,,0.0,,,,deceptive
1784138452937894499,1784138462937894499,,,,,,,,0.0,,,,,,,,,,,0.0,,,,,,,,,,,0.0,,,,,,,,,,,0.0,,,,,,,,,,,0.0,,,,deceptive
1784138453937894499,1784138463937894499,,,,,,,,0.0,,,,,,,,,,,0.0,,,,,,,,,,,0.0,,,,,,,,,,,0.0,,,,,,,,,,,0.0,,,,deceptive
1784138454937894499,1784138464937894499,,,,,,,,0.0,,,,,,,,,,,0.0,,,,,,,,,,,0.0,,,,,,,,,,,0.0,,,,,,,,,,,0.0,,,,deceptive
1784138455937894499,1784138465937894499,,,,,,,,0.0,,,,,,,,,,,0.0,,,,,,,,,,,0.0,,,,,,,,,,,0.0,,,,,,,,,,,0.0,,,,deceptive
1784138456937894499,1784138466937894499,,,,,,,,0.0,,,,,,,,,,,0.0,,,,,,,,,,,0.0,,,,,,,,,,,0.0,,,,,,,,,,,0.0,,,,deceptive
1784138457937894499,1784138467937894499,,,,,,,,0.0,,,,,,,,,,,0.0,,,,,,,,,,,0.0,,,,,,,,,,,0.0,,,,,,,,,,,0.0,,,,deceptive
1784138458937894499,1784138468937894499,,,,,,,,0.0,,,,,,,,,,,0.0,,,,,,,,,,,0.0,,,,,,,,,,,0.0,,,,,,,,,,,0.0,,,,deceptive
1784138459937894499,1784138469937894499,,,,,,,,0.0,,,,,,,,,,,0.0,,,,,,,,,,,0.0,,,,,,,,,,,0.0,,,,,,,,,,,0.0,,,,deceptive
1784138460937894499,1784138470937894499,,,,,,,,0.0,,,,,,,,,,,0.0,,,,,,,,,,,0.0,,,,,,,,,,,0.0,,,,,,,,,,,0.0,,,,deceptive
1784138461937894499,1784138471937894499,,,,,,,,0.0,,,,,,,,,,,0.0,,,,,,,,,,,0.0,,,,,,,,,,,0.0,,,,,,,,,,,0.0,,,,deceptive
1784138462937894499,1784138472937894499,,,,,,,,0.0,,,,,,,,,,,0.0,,,,,,,,,,,0.0,,,,,,,,,,,0.0,,,,,,,,,,,0.0,,,,deceptive
1784138463937894499,1784138473937894499,,,,,,,,0.0,,,,,,,,,,,0.0,,,,,,,,,,,0.0,,,,,,,,,,,0.0,,,,,,,,,,,0.0,,,,deceptive
1784138464937894499,1784138474937894499,,,,,,,,0.0,,,,,,,,,,,0.0,,,,,,,,,,,0.0,,,,,,,,,,,0.0,,,,,,,,,,,0.0,,,,deceptive
1784138465937894499,1784138475937894499,,,,,,,,0.0,,,,,,,,,,,0.0,,,,,,,,,,,0.0,,,,,,,,,,,0.0,,,,,,,,,,,0.0,,,,deceptive
1784138466937894499,1784138476937894499,,,,,,,,0.0,,,,,,,,,,,0.0,,,,,,,,,,,0.0,,,,,,,,,,,0.0,,,,,,,,,,,0.0,,,,deceptive
1784138467937894499,1784138477937894499,,,,,,,,0.0,,,,,,,,,,,0.0,,,,,,,,,,,0.0,,,,,,,,,,,0.0,,,,,,,,,,,0.0,,,,deceptive
1784138468937894499,1784138478937894499,,,,,,,,0.0,,,,,,,,,,,0.0,,,,,,,,,,,0.0,,,,,,,,,,,0.0,,,,,,,,,,,0.0,,,,deceptive
1784138469937894499,1784138479937894499,,,,,,,,0.0,,,,,,,,,,,0.0,,,,,,,,,,,0.0,,,,,,,,,,,0.0,,,,,,,,,,,0.0,,,,deceptive
1784138470937894499,1784138480937894499,,,,,,,,0.0,,,,,,,,,,,0.0,,,,,,,,,,,0.0,,,,,,,,,,,0.0,,,,,,,,,,,0.0,,,,deceptive
1784138471937894499,1784138481937894499,,,,,,,,0.0,,,,,,,,,,,0.0,,,,,,,,,,,0.0,,,,,,,,,,,0.0,,,,,,,,,,,0.0,,,,deceptive
1784138472937894499,1784138482937894499,,,,,,,,0.0,,,,,,,,,,,0.0,,,,,,,,,,,0.0,,,,,,,,,,,0.0,,,,,,,,,,,0.0,,,,deceptive
1784138473937894499,1784138483937894499,,,,,,,,0.0,,,,,,,,,,,0.0,,,,,,,,,,,0.0,,,,,,,,,,,0.0,,,,,,,,,,,0.0,,,,deceptive
1784138474937894499,1784138484937894499,,,,,,,,0.0,,,,,,,,,,,0.0,,,,,,,,,,,0.0,,,,,,,,,,,0.0,,,,,,,,,,,0.0,,,,deceptive
1784138475937894499,1784138485937894499,,,,,,,,0.0,,,,,,,,,,,0.0,,,,,,,,,,,0.0,,,,,,,,,,,0.0,,,,,,,,,,,0.0,,,,deceptive
1784138476937894499,1784138486937894499,,,,,,,,0.0,,,,,,,,,,,0.0,,,,,,,,,,,0.0,,,,,,,,,,,0.0,,,,,,,,,,,0.0,,,,deceptive
1784138477937894499,1784138487937894499,,,,,,,,0.0,,,,,,,,,,,0.0,,,,,,,,,,,0.0,,,,,,,,,,,0.0,,,,,,,,,,,0.0,,,,deceptive
1784138478937894499,1784138488937894499,,,,,,,,0.0,,,,,,,,,,,0.0,,,,,,,,,,,0.0,,,,,,,,,,,0.0,,,,,,,,,,,0.0,,,,deceptive
1784138479937894499,1784138489937894499,,,,,,,,0.0,,,,,,,,,,,0.0,,,,,,,,,,,0.0,,,,,,,,,,,0.0,,,,,,,,,,,0.0,,,,deceptive
1784138480937894499,1784138490937894499,,,,,,,,0.0,,,,,,,,,,,0.0,,,,,,,,,,,0.0,,,,,,,,,,,0.0,,,,,,,,,,,0.0,,,,deceptive
1784138481937894499,1784138491937894499,,,,,,,,0.0,,,,,,,,,,,0.0,,,,,,,,,,,0.0,,,,,,,,,,,0.0,,,,,,,,,,,0.0,,,,deceptive
1784138482937894499,1784138492937894499,,,,,,,,0.0,,,,,,,,,,,0.0,,,,,,,,,,,0.0,,,,,,,,,,,0.0,,,,,,,,,,,0.0,,,,deceptive
1784138483937894499,1784138493937894499,,,,,,,,0.0,,,,,,,,,,,0.0,,,,,,,,,,,0.0,,,,,,,,,,,0.0,,,,,,,,,,,0.0,,,,deceptive
1784138484937894499,1784138494937894499,,,,,,,,0.0,,,,,,,,,,,0.0,,,,,,,,,,,0.0,,,,,,,,,,,0.0,,,,,,,,,,,0.0,,,,deceptive
1784138485937894499,1784138495937894499,,,,,,,,0.0,,,,,,,,,,,0.0,,,,,,,,,,,0.0,,,,,,,,,,,0.0,,,,,,,,,,,0.0,,,,deceptive
1784138486937894499,1784138496937894499,,,,,,,,0.0,,,,,,,,,,,0.0,,,,,,,,,,,0.0,,,,,,,,,,,0.0,,,,,,,,,,,0.0,,,,deceptive
1784138487937894499,1784138497937894499,,,,,,,,0.0,,,,,,,,,,,0.0,,,,,,,,,,,0.0,,,,,,,,,,,0.0,,,,,,,,,,,0.0,,,,deceptive
1784138488937894499,1784138498937894499,,,,,,,,0.0,,,,,,,,,,,0.0,,,,,,,,,,,0.0,,,,,,,,,,,0.0,,,,,,,,,,,0.0,,,,deceptive
1784138489937894499,1784138499937894499,,,,,,,,0.0,,,,,,,,,,,0.0,,,,,,,,,,,0.0,,,,,,,,,,,0.0,,,,,,,,,,,0.0,,,,deceptive
1784138490937894499,1784138500937894499,,,,,,,,0.0,,,,,,,,,,,0.0,,,,,,,,,,,0.0,,,,,,,,,,,0.0,,,,,,,,,,,0.0,,,,deceptive
1784138491937894499,1784138501937894499,,,,,,,,0.0,,,,,,,,,,,0.0,,,,,,,,,,,0.0,,,,,,,,,,,0.0,,,,,,,,,,,0.0,,,,deceptive
1784138492937894499,1784138502937894499,,,,,,,,0.0,,,,,,,,,,,0.0,,,,,,,,,,,0.0,,,,,,,,,,,0.0,,,,,,,,,,,0.0,,,,deceptive
1784138493937894499,1784138503937894499,,,,,,,,0.0,,,,,,,,,,,0.0,,,,,,,,,,,0.0,,,,,,,,,,,0.0,,,,,,,,,,,0.0,,,,deceptive
1784138494937894499,1784138504937894499,,,,,,,,0.0,,,,,,,,,,,0.0,,,,,,,,,,,0.0,,,,,,,,,,,0.0,,,,,,,,,,,0.0,,,,deceptive
1784138495937894499,1784138505937894499,,,,,,,,0.0,,,,,,,,,,,0.0,,,,,,,,,,,0.0,,,,,,,,,,,0.0,,,,,,,,,,,0.0,,,,deceptive
1784138496937894499,1784138506937894499,,,,,,,,0.0,,,,,,,,,,,0.0,,,,,,,,,,,0.0,,,,,,,,,,,0.0,,,,,,,,,,,0.0,,,,deceptive
1784138497937894499,1784138507937894499,,,,,,,,0.0,,,,,,,,,,,0.0,,,,,,,,,,,0.0,,,,,,,,,,,0.0,,,,,,,,,,,0.0,,,,deceptive
1784138498937894499,1784138508937894499,,,,,,,,0.0,,,,,,,,,,,0.0,,,,,,,,,,,0.0,,,,,,,,,,,0.0,,,,,,,,,,,0.0,,,,deceptive
1784138499937894499,1784138509937894499,,,,,,,,0.0,,,,,,,,,,,0.0,,,,,,,,,,,0.0,,,,,,,,,,,0.0,,,,,,,,,,,0.0,,,,deceptive
1784138500937894499,1784138510937894499,,,,,,,,0.0,,,,,,,,,,,0.0,,,,,,,,,,,0.0,,,,,,,,,,,0.0,,,,,,,,,,,0.0,,,,deceptive
1784138501937894499,1784138511937894499,,,,,,,,0.0,,,,,,,,,,,0.0,,,,,,,,,,,0.0,,,,,,,,,,,0.0,,,,,,,,,,,0.0,,,,deceptive
1784138502937894499,1784138512937894499,,,,,,,,0.0,,,,,,,,,,,0.0,,,,,,,,,,,0.0,,,,,,,,,,,0.0,,,,,,,,,,,0.0,,,,deceptive
1784138503937894499,1784138513937894499,,,,,,,,0.0,,,,,,,,,,,0.0,,,,,,,,,,,0.0,,,,,,,,,,,0.0,,,,,,,,,,,0.0,,,,deceptive
1784138504937894499,1784138514937894499,,,,,,,,0.0,,,,,,,,,,,0.0,,,,,,,,,,,0.0,,,,,,,,,,,0.0,,,,,,,,,,,0.0,,,,deceptive
1784138505937894499,1784138515937894499,,,,,,,,0.0,,,,,,,,,,,0.0,,,,,,,,,,,0.0,,,,,,,,,,,0.0,,,,,,,,,,,0.0,,,,deceptive
1784138506937894499,1784138516937894499,,,,,,,,0.0,,,,,,,,,,,0.0,,,,,,,,,,,0.0,,,,,,,,,,,0.0,,,,,,,,,,,0.0,,,,deceptive
1784138507937894499,1784138517937894499,,,,,,,,0.0,,,,,,,,,,,0.0,,,,,,,,,,,0.0,,,,,,,,,,,0.0,,,,,,,,,,,0.0,,,,deceptive
1784138508937894499,1784138518937894499,,,,,,,,0.0,,,,,,,,,,,0.0,,,,,,,,,,,0.0,,,,,,,,,,,0.0,,,,,,,,,,,0.0,,,,deceptive
1784138509937894499,1784138519937894499,,,,,,,,0.0,,,,,,,,,,,0.0,,,,,,,,,,,0.0,,,,,,,,,,,0.0,,,,,,,,,,,0.0,,,,deceptive
1784138510937894499,1784138520937894499,,,,,,,,0.0,,,,,,,,,,,0.0,,,,,,,,,,,0.0,,,,,,,,,,,0.0,,,,,,,,,,,0.0,,,,deceptive
1784138511937894499,1784138521937894499,,,,,,,,0.0,,,,,,,,,,,0.0,,,,,,,,,,,0.0,,,,,,,,,,,0.0,,,,,,,,,,,0.0,,,,deceptive
1784138512937894499,1784138522937894499,,,,,,,,0.0,,,,,,,,,,,0.0,,,,,,,,,,,0.0,,,,,,,,,,,0.0,,,,,,,,,,,0.0,,,,deceptive
1784138513937894499,1784138523937894499,,,,,,,,0.0,,,,,,,,,,,0.0,,,,,,,,,,,0.0,,,,,,,,,,,0.0,,,,,,,,,,,0.0,,,,deceptive
1784138514937894499,1784138524937894499,,,,,,,,0.0,,,,,,,,,,,0.0,,,,,,,,,,,0.0,,,,,,,,,,,0.0,,,,,,,,,,,0.0,,,,deceptive
1784138515937894499,1784138525937894499,,,,,,,,0.0,,,,,,,,,,,0.0,,,,,,,,,,,0.0,,,,,,,,,,,0.0,,,,,,,,,,,0.0,,,,deceptive
1784138516937894499,1784138526937894499,,,,,,,,0.0,,,,,,,,,,,0.0,,,,,,,,,,,0.0,,,,,,,,,,,0.0,,,,,,,,,,,0.0,,,,deceptive
1784138517937894499,1784138527937894499,,,,,,,,0.0,,,,,,,,,,,0.0,,,,,,,,,,,0.0,,,,,,,,,,,0.0,,,,,,,,,,,0.0,,,,deceptive
1784138518937894499,1784138528937894499,,,,,,,,0.0,,,,,,,,,,,0.0,,,,,,,,,,,0.0,,,,,,,,,,,0.0,,,,,,,,,,,0.0,,,,deceptive
1784138519937894499,1784138529937894499,,,,,,,,0.0,,,,,,,,,,,0.0,,,,,,,,,,,0.0,,,,,,,,,,,0.0,,,,,,,,,,,0.0,,,,deceptive
1784138520937894499,1784138530937894499,,,,,,,,0.0,,,,,,,,,,,0.0,,,,,,,,,,,0.0,,,,,,,,,,,0.0,,,,,,,,,,,0.0,,,,deceptive
1784138521937894499,1784138531937894499,,,,,,,,0.0,,,,,,,,,,,0.0,,,,,,,,,,,0.0,,,,,,,,,,,0.0,,,,,,,,,,,0.0,,,,deceptive
1784138522937894499,1784138532937894499,,,,,,,,0.0,,,,,,,,,,,0.0,,,,,,,,,,,0.0,,,,,,,,,,,0.0,,,,,,,,,,,0.0,,,,deceptive
1784138523937894499,1784138533937894499,,,,,,,,0.0,,,,,,,,,,,0.0,,,,,,,,,,,0.0,,,,,,,,,,,0.0,,,,,,,,,,,0.0,,,,deceptive
1784138524937894499,1784138534937894499,,,,,,,,0.0,,,,,,,,,,,0.0,,,,,,,,,,,0.0,,,,,,,,,,,0.0,,,,,,,,,,,0.0,,,,deceptive
1784138525937894499,1784138535937894499,,,,,,,,0.0,,,,,,,,,,,0.0,,,,,,,,,,,0.0,,,,,,,,,,,0.0,,,,,,,,,,,0.0,,,,deceptive
1784138526937894499,1784138536937894499,,,,,,,,0.0,,,,,,,,,,,0.0,,,,,,,,,,,0.0,,,,,,,,,,,0.0,,,,,,,,,,,0.0,,,,deceptive
1784138527937894499,1784138537937894499,,,,,,,,0.0,,,,,,,,,,,0.0,,,,,,,,,,,0.0,,,,,,,,,,,0.0,,,,,,,,,,,0.0,,,,deceptive
1784138528937894499,1784138538937894499,,,,,,,,0.0,,,,,,,,,,,0.0,,,,,,,,,,,0.0,,,,,,,,,,,0.0,,,,,,,,,,,0.0,,,,deceptive
1784138529937894499,1784138539937894499,,,,,,,,0.0,,,,,,,,,,,0.0,,,,,,,,,,,0.0,,,,,,,,,,,0.0,,,,,,,,,,,0.0,,,,deceptive
1784138530937894499,1784138540937894499,,,,,,,,0.0,,,,,,,,,,,0.0,,,,,,,,,,,0.0,,,,,,,,,,,0.0,,,,,,,,,,,0.0,,,,deceptive
1784138531937894499,1784138541937894499,,,,,,,,0.0,,,,,,,,,,,0.0,,,,,,,,,,,0.0,,,,,,,,,,,0.0,,,,,,,,,,,0.0,,,,deceptive
1784138532937894499,1784138542937894499,,,,,,,,0.0,,,,,,,,,,,0.0,,,,,,,,,,,0.0,,,,,,,,,,,0.0,,,,,,,,,,,0.0,,,,deceptive
1784138533937894499,1784138543937894499,,,,,,,,0.0,,,,,,,,,,,0.0,,,,,,,,,,,0.0,,,,,,,,,,,0.0,,,,,,,,,,,0.0,,,,deceptive
1784138534937894499,1784138544937894499,,,,,,,,0.0,,,,,,,,,,,0.0,,,,,,,,,,,0.0,,,,,,,,,,,0.0,,,,,,,,,,,0.0,,,,deceptive
1784138535937894499,1784138545937894499,,,,,,,,0.0,,,,,,,,,,,0.0,,,,,,,,,,,0.0,,,,,,,,,,,0.0,,,,,,,,,,,0.0,,,,deceptive
1784138536937894499,1784138546937894499,,,,,,,,0.0,,,,,,,,,,,0.0,,,,,,,,,,,0.0,,,,,,,,,,,0.0,,,,,,,,,,,0.0,,,,deceptive
1784138537937894499,1784138547937894499,,,,,,,,0.0,,,,,,,,,,,0.0,,,,,,,,,,,0.0,,,,,,,,,,,0.0,,,,,,,,,,,0.0,,,,deceptive
1784138538937894499,1784138548937894499,,,,,,,,0.0,,,,,,,,,,,0.0,,,,,,,,,,,0.0,,,,,,,,,,,0.0,,,,,,,,,,,0.0,,,,deceptive
1784138539937894499,1784138549937894499,,,,,,,,0.0,,,,,,,,,,,0.0,,,,,,,,,,,0.0,,,,,,,,,,,0.0,,,,,,,,,,,0.0,,,,deceptive
1784138540937894499,1784138550937894499,,,,,,,,0.0,,,,,,,,,,,0.0,,,,,,,,,,,0.0,,,,,,,,,,,0.0,,,,,,,,,,,0.0,,,,deceptive
1784138541937894499,1784138551937894499,,,,,,,,0.0,,,,,,,,,,,0.0,,,,,,,,,,,0.0,,,,,,,,,,,0.0,,,,,,,,,,,0.0,,,,deceptive
1784138542937894499,1784138552937894499,,,,,,,,0.0,,,,,,,,,,,0.0,,,,,,,,,,,0.0,,,,,,,,,,,0.0,,,,,,,,,,,0.0,,,,deceptive
1784138543937894499,1784138553937894499,,,,,,,,0.0,,,,,,,,,,,0.0,,,,,,,,,,,0.0,,,,,,,,,,,0.0,,,,,,,,,,,0.0,,,,deceptive
1784138544937894499,1784138554937894499,,,,,,,,0.0,,,,,,,,,,,0.0,,,,,,,,,,,0.0,,,,,,,,,,,0.0,,,,,,,,,,,0.0,,,,deceptive
1784138545937894499,1784138555937894499,,,,,,,,0.0,,,,,,,,,,,0.0,,,,,,,,,,,0.0,,,,,,,,,,,0.0,,,,,,,,,,,0.0,,,,deceptive
1784138546937894499,1784138556937894499,,,,,,,,0.0,,,,,,,,,,,0.0,,,,,,,,,,,0.0,,,,,,,,,,,0.0,,,,,,,,,,,0.0,,,,deceptive
1784138547937894499,1784138557937894499,,,,,,,,0.0,,,,,,,,,,,0.0,,,,,,,,,,,0.0,,,,,,,,,,,0.0,,,,,,,,,,,0.0,,,,deceptive
1784138548937894499,1784138558937894499,,,,,,,,0.0,,,,,,,,,,,0.0,,,,,,,,,,,0.0,,,,,,,,,,,0.0,,,,,,,,,,,0.0,,,,deceptive
1784138549937894499,1784138559937894499,,,,,,,,0.0,,,,,,,,,,,0.0,,,,,,,,,,,0.0,,,,,,,,,,,0.0,,,,,,,,,,,0.0,,,,deceptive
1784138550937894499,1784138560937894499,,,,,,,,0.0,,,,,,,,,,,0.0,,,,,,,,,,,0.0,,,,,,,,,,,0.0,,,,,,,,,,,0.0,,,,deceptive
1784138551937894499,1784138561937894499,,,,,,,,0.0,,,,,,,,,,,0.0,,,,,,,,,,,0.0,,,,,,,,,,,0.0,,,,,,,,,,,0.0,,,,deceptive
1784138552937894499,1784138562937894499,,,,,,,,0.0,,,,,,,,,,,0.0,,,,,,,,,,,0.0,,,,,,,,,,,0.0,,,,,,,,,,,0.0,,,,deceptive
1784138553937894499,1784138563937894499,,,,,,,,0.0,,,,,,,,,,,0.0,,,,,,,,,,,0.0,,,,,,,,,,,0.0,,,,,,,,,,,0.0,,,,deceptive
1784138554937894499,1784138564937894499,,,,,,,,0.0,,,,,,,,,,,0.0,,,,,,,,,,,0.0,,,,,,,,,,,0.0,,,,,,,,,,,0.0,,,,deceptive
1784138555937894499,1784138565937894499,,,,,,,,0.0,,,,,,,,,,,0.0,,,,,,,,,,,0.0,,,,,,,,,,,0.0,,,,,,,,,,,0.0,,,,deceptive
1784138556937894499,1784138566937894499,,,,,,,,0.0,,,,,,,,,,,0.0,,,,,,,,,,,0.0,,,,,,,,,,,0.0,,,,,,,,,,,0.0,,,,deceptive
1784138557937894499,1784138567937894499,,,,,,,,0.0,,,,,,,,,,,0.0,,,,,,,,,,,0.0,,,,,,,,,,,0.0,,,,,,,,,,,0.0,,,,deceptive
1784138558937894499,1784138568937894499,,,,,,,,0.0,,,,,,,,,,,0.0,,,,,,,,,,,0.0,,,,,,,,,,,0.0,,,,,,,,,,,0.0,,,,deceptive
1784138559937894499,1784138569937894499,,,,,,,,0.0,,,,,,,,,,,0.0,,,,,,,,,,,0.0,,,,,,,,,,,0.0,,,,,,,,,,,0.0,,,,deceptive
1784138560937894499,1784138570937894499,,,,,,,,0.0,,,,,,,,,,,0.0,,,,,,,,,,,0.0,,,,,,,,,,,0.0,,,,,,,,,,,0.0,,,,deceptive
1784138561937894499,1784138571937894499,,,,,,,,0.0,,,,,,,,,,,0.0,,,,,,,,,,,0.0,,,,,,,,,,,0.0,,,,,,,,,,,0.0,,,,deceptive
1784138562937894499,1784138572937894499,,,,,,,,0.0,,,,,,,,,,,0.0,,,,,,,,,,,0.0,,,,,,,,,,,0.0,,,,,,,,,,,0.0,,,,deceptive
1784138563937894499,1784138573937894499,,,,,,,,0.0,,,,,,,,,,,0.0,,,,,,,,,,,0.0,,,,,,,,,,,0.0,,,,,,,,,,,0.0,,,,deceptive
1784138564937894499,1784138574937894499,,,,,,,,0.0,,,,,,,,,,,0.0,,,,,,,,,,,0.0,,,,,,,,,,,0.0,,,,,,,,,,,0.0,,,,deceptive
1784138565937894499,1784138575937894499,,,,,,,,0.0,,,,,,,,,,,0.0,,,,,,,,,,,0.0,,,,,,,,,,,0.0,,,,,,,,,,,0.0,,,,deceptive
1784138566937894499,1784138576937894499,,,,,,,,0.0,,,,,,,,,,,0.0,,,,,,,,,,,0.0,,,,,,,,,,,0.0,,,,,,,,,,,0.0,,,,deceptive
1784138567937894499,1784138577937894499,,,,,,,,0.0,,,,,,,,,,,0.0,,,,,,,,,,,0.0,,,,,,,,,,,0.0,,,,,,,,,,,0.0,,,,deceptive
1784138568937894499,1784138578937894499,,,,,,,,0.0,,,,,,,,,,,0.0,,,,,,,,,,,0.0,,,,,,,,,,,0.0,,,,,,,,,,,0.0,,,,deceptive
1784138569937894499,1784138579937894499,,,,,,,,0.0,,,,,,,,,,,0.0,,,,,,,,,,,0.0,,,,,,,,,,,0.0,,,,,,,,,,,0.0,,,,deceptive
1784138570937894499,1784138580937894499,,,,,,,,0.0,,,,,,,,,,,0.0,,,,,,,,,,,0.0,,,,,,,,,,,0.0,,,,,,,,,,,0.0,,,,deceptive
1784138571937894499,1784138581937894499,,,,,,,,0.0,,,,,,,,,,,0.0,,,,,,,,,,,0.0,,,,,,,,,,,0.0,,,,,,,,,,,0.0,,,,deceptive
1784138572937894499,1784138582937894499,,,,,,,,0.0,,,,,,,,,,,0.0,,,,,,,,,,,0.0,,,,,,,,,,,0.0,,,,,,,,,,,0.0,,,,deceptive
1784138573937894499,1784138583937894499,,,,,,,,0.0,,,,,,,,,,,0.0,,,,,,,,,,,0.0,,,,,,,,,,,0.0,,,,,,,,,,,0.0,,,,deceptive
1784138574937894499,1784138584937894499,,,,,,,,0.0,,,,,,,,,,,0.0,,,,,,,,,,,0.0,,,,,,,,,,,0.0,,,,,,,,,,,0.0,,,,deceptive
1784138575937894499,1784138585937894499,,,,,,,,0.0,,,,,,,,,,,0.0,,,,,,,,,,,0.0,,,,,,,,,,,0.0,,,,,,,,,,,0.0,,,,deceptive
1784138576937894499,1784138586937894499,,,,,,,,0.0,,,,,,,,,,,0.0,,,,,,,,,,,0.0,,,,,,,,,,,0.0,,,,,,,,,,,0.0,,,,deceptive
1784138577937894499,1784138587937894499,,,,,,,,0.0,,,,,,,,,,,0.0,,,,,,,,,,,0.0,,,,,,,,,,,0.0,,,,,,,,,,,0.0,,,,deceptive
1784138578937894499,1784138588937894499,,,,,,,,0.0,,,,,,,,,,,0.0,,,,,,,,,,,0.0,,,,,,,,,,,0.0,,,,,,,,,,,0.0,,,,deceptive
1784138579937894499,1784138589937894499,,,,,,,,0.0,,,,,,,,,,,0.0,,,,,,,,,,,0.0,,,,,,,,,,,0.0,,,,,,,,,,,0.0,,,,deceptive
1784138580937894499,1784138590937894499,,,,,,,,0.0,,,,,,,,,,,0.0,,,,,,,,,,,0.0,,,,,,,,,,,0.0,,,,,,,,,,,0.0,,,,deceptive
1784138581937894499,1784138591937894499,,,,,,,,0.0,,,,,,,,,,,0.0,,,,,,,,,,,0.0,,,,,,,,,,,0.0,,,,,,,,,,,0.0,,,,deceptive
1784138582937894499,1784138592937894499,,,,,,,,0.0,,,,,,,,,,,0.0,,,,,,,,,,,0.0,,,,,,,,,,,0.0,,,,,,,,,,,0.0,,,,deceptive
1784138583937894499,1784138593937894499,,,,,,,,0.0,,,,,,,,,,,0.0,,,,,,,,,,,0.0,,,,,,,,,,,0.0,,,,,,,,,,,0.0,,,,deceptive
1784138584937894499,1784138594937894499,,,,,,,,0.0,,,,,,,,,,,0.0,,,,,,,,,,,0.0,,,,,,,,,,,0.0,,,,,,,,,,,0.0,,,,deceptive
1784138585937894499,1784138595937894499,,,,,,,,0.0,,,,,,,,,,,0.0,,,,,,,,,,,0.0,,,,,,,,,,,0.0,,,,,,,,,,,0.0,,,,deceptive
1784138586937894499,1784138596937894499,,,,,,,,0.0,,,,,,,,,,,0.0,,,,,,,,,,,0.0,,,,,,,,,,,0.0,,,,,,,,,,,0.0,,,,deceptive
1784138587937894499,1784138597937894499,,,,,,,,0.0,,,,,,,,,,,0.0,,,,,,,,,,,0.0,,,,,,,,,,,0.0,,,,,,,,,,,0.0,,,,deceptive
1784138588937894499,1784138598937894499,,,,,,,,0.0,,,,,,,,,,,0.0,,,,,,,,,,,0.0,,,,,,,,,,,0.0,,,,,,,,,,,0.0,,,,deceptive
1784138589937894499,1784138599937894499,,,,,,,,0.0,,,,,,,,,,,0.0,,,,,,,,,,,0.0,,,,,,,,,,,0.0,,,,,,,,,,,0.0,,,,deceptive
1784138590937894499,1784138600937894499,,,,,,,,0.0,,,,,,,,,,,0.0,,,,,,,,,,,0.0,,,,,,,,,,,0.0,,,,,,,,,,,0.0,,,,deceptive
1784138591937894499,1784138601937894499,,,,,,,,0.0,,,,,,,,,,,0.0,,,,,,,,,,,0.0,,,,,,,,,,,0.0,,,,,,,,,,,0.0,,,,deceptive
1784138592937894499,1784138602937894499,,,,,,,,0.0,,,,,,,,,,,0.0,,,,,,,,,,,0.0,,,,,,,,,,,0.0,,,,,,,,,,,0.0,,,,deceptive
1784138593937894499,1784138603937894499,,,,,,,,0.0,,,,,,,,,,,0.0,,,,,,,,,,,0.0,,,,,,,,,,,0.0,,,,,,,,,,,0.0,,,,deceptive
1784138594937894499,1784138604937894499,,,,,,,,0.0,,,,,,,,,,,0.0,,,,,,,,,,,0.0,,,,,,,,,,,0.0,,,,,,,,,,,0.0,,,,deceptive
1784138595937894499,1784138605937894499,,,,,,,,0.0,,,,,,,,,,,0.0,,,,,,,,,,,0.0,,,,,,,,,,,0.0,,,,,,,,,,,0.0,,,,deceptive
1784138596937894499,1784138606937894499,,,,,,,,0.0,,,,,,,,,,,0.0,,,,,,,,,,,0.0,,,,,,,,,,,0.0,,,,,,,,,,,0.0,,,,deceptive
1784138597937894499,1784138607937894499,,,,,,,,0.0,,,,,,,,,,,0.0,,,,,,,,,,,0.0,,,,,,,,,,,0.0,,,,,,,,,,,0.0,,,,deceptive
1784138598937894499,1784138608937894499,,,,,,,,0.0,,,,,,,,,,,0.0,,,,,,,,,,,0.0,,,,,,,,,,,0.0,,,,,,,,,,,0.0,,,,deceptive
1784138599937894499,1784138609937894499,,,,,,,,0.0,,,,,,,,,,,0.0,,,,,,,,,,,0.0,,,,,,,,,,,0.0,,,,,,,,,,,0.0,,,,deceptive
1784138600937894499,1784138610937894499,,,,,,,,0.0,,,,,,,,,,,0.0,,,,,,,,,,,0.0,,,,,,,,,,,0.0,,,,,,,,,,,0.0,,,,deceptive
1784138601937894499,1784138611937894499,,,,,,,,0.0,,,,,,,,,,,0.0,,,,,,,,,,,0.0,,,,,,,,,,,0.0,,,,,,,,,,,0.0,,,,deceptive
1784138602937894499,1784138612937894499,,,,,,,,0.0,,,,,,,,,,,0.0,,,,,,,,,,,0.0,,,,,,,,,,,0.0,,,,,,,,,,,0.0,,,,deceptive
1784138603937894499,1784138613937894499,,,,,,,,0.0,,,,,,,,,,,0.0,,,,,,,,,,,0.0,,,,,,,,,,,0.0,,,,,,,,,,,0.0,,,,deceptive
1784138604937894499,1784138614937894499,,,,,,,,0.0,,,,,,,,,,,0.0,,,,,,,,,,,0.0,,,,,,,,,,,0.0,,,,,,,,,,,0.0,,,,deceptive
1784138605937894499,1784138615937894499,,,,,,,,0.0,,,,,,,,,,,0.0,,,,,,,,,,,0.0,,,,,,,,,,,0.0,,,,,,,,,,,0.0,,,,deceptive
1784138606937894499,1784138616937894499,,,,,,,,0.0,,,,,,,,,,,0.0,,,,,,,,,,,0.0,,,,,,,,,,,0.0,,,,,,,,,,,0.0,,,,deceptive
1784138607937894499,1784138617937894499,,,,,,,,0.0,,,,,,,,,,,0.0,,,,,,,,,,,0.0,,,,,,,,,,,0.0,,,,,,,,,,,0.0,,,,deceptive
1784138608937894499,1784138618937894499,,,,,,,,0.0,,,,,,,,,,,0.0,,,,,,,,,,,0.0,,,,,,,,,,,0.0,,,,,,,,,,,0.0,,,,deceptive
1784138609937894499,1784138619937894499,,,,,,,,0.0,,,,,,,,,,,0.0,,,,,,,,,,,0.0,,,,,,,,,,,0.0,,,,,,,,,,,0.0,,,,deceptive
1784138610937894499,1784138620937894499,,,,,,,,0.0,,,,,,,,,,,0.0,,,,,,,,,,,0.0,,,,,,,,,,,0.0,,,,,,,,,,,0.0,,,,deceptive
1784138611937894499,1784138621937894499,,,,,,,,0.0,,,,,,,,,,,0.0,,,,,,,,,,,0.0,,,,,,,,,,,0.0,,,,,,,,,,,0.0,,,,deceptive
1784138612937894499,1784138622937894499,,,,,,,,0.0,,,,,,,,,,,0.0,,,,,,,,,,,0.0,,,,,,,,,,,0.0,,,,,,,,,,,0.0,,,,deceptive
1784138613937894499,1784138623937894499,,,,,,,,0.0,,,,,,,,,,,0.0,,,,,,,,,,,0.0,,,,,,,,,,,0.0,,,,,,,,,,,0.0,,,,deceptive
1784138614937894499,1784138624937894499,,,,,,,,0.0,,,,,,,,,,,0.0,,,,,,,,,,,0.0,,,,,,,,,,,0.0,,,,,,,,,,,0.0,,,,deceptive
1784138615937894499,1784138625937894499,,,,,,,,0.0,,,,,,,,,,,0.0,,,,,,,,,,,0.0,,,,,,,,,,,0.0,,,,,,,,,,,0.0,,,,deceptive
1784138616937894499,1784138626937894499,,,,,,,,0.0,,,,,,,,,,,0.0,,,,,,,,,,,0.0,,,,,,,,,,,0.0,,,,,,,,,,,0.0,,,,deceptive
1784138617937894499,1784138627937894499,,,,,,,,0.0,,,,,,,,,,,0.0,,,,,,,,,,,0.0,,,,,,,,,,,0.0,,,,,,,,,,,0.0,,,,deceptive
1784138618937894499,1784138628937894499,,,,,,,,0.0,,,,,,,,,,,0.0,,,,,,,,,,,0.0,,,,,,,,,,,0.0,,,,,,,,,,,0.0,,,,deceptive
1784138619937894499,1784138629937894499,,,,,,,,0.0,,,,,,,,,,,0.0,,,,,,,,,,,0.0,,,,,,,,,,,0.0,,,,,,,,,,,0.0,,,,deceptive
1784138620937894499,1784138630937894499,,,,,,,,0.0,,,,,,,,,,,0.0,,,,,,,,,,,0.0,,,,,,,,,,,0.0,,,,,,,,,,,0.0,,,,deceptive
1784138621937894499,1784138631937894499,,,,,,,,0.0,,,,,,,,,,,0.0,,,,,,,,,,,0.0,,,,,,,,,,,0.0,,,,,,,,,,,0.0,,,,deceptive
1784138622937894499,1784138632937894499,,,,,,,,0.0,,,,,,,,,,,0.0,,,,,,,,,,,0.0,,,,,,,,,,,0.0,,,,,,,,,,,0.0,,,,deceptive
1784138623937894499,1784138633937894499,,,,,,,,0.0,,,,,,,,,,,0.0,,,,,,,,,,,0.0,,,,,,,,,,,0.0,,,,,,,,,,,0.0,,,,deceptive
1784138624937894499,1784138634937894499,,,,,,,,0.0,,,,,,,,,,,0.0,,,,,,,,,,,0.0,,,,,,,,,,,0.0,,,,,,,,,,,0.0,,,,deceptive
1784138625937894499,1784138635937894499,,,,,,,,0.0,,,,,,,,,,,0.0,,,,,,,,,,,0.0,,,,,,,,,,,0.0,,,,,,,,,,,0.0,,,,deceptive
1784138626937894499,1784138636937894499,,,,,,,,0.0,,,,,,,,,,,0.0,,,,,,,,,,,0.0,,,,,,,,,,,0.0,,,,,,,,,,,0.0,,,,deceptive
1784138627937894499,1784138637937894499,,,,,,,,0.0,,,,,,,,,,,0.0,,,,,,,,,,,0.0,,,,,,,,,,,0.0,,,,,,,,,,,0.0,,,,deceptive
1784138628937894499,1784138638937894499,,,,,,,,0.0,,,,,,,,,,,0.0,,,,,,,,,,,0.0,,,,,,,,,,,0.0,,,,,,,,,,,0.0,,,,deceptive
1784138629937894499,1784138639937894499,,,,,,,,0.0,,,,,,,,,,,0.0,,,,,,,,,,,0.0,,,,,,,,,,,0.0,,,,,,,,,,,0.0,,,,deceptive
1784138630937894499,1784138640937894499,1008.27648,840.2303999999999,178.52246241031034,98.71718497709657,738.3243974490854,1284.1605272222591,1188.9016274368842,8.0,908.0386169309514,823.3946604260756,1.1027987677999707,1200.3291428571426,672.18432,178.52246241031034,90.53639165094309,1077.8928969435508,1932.6516886854174,1778.4325459170602,7.0,1366.591114741091,1178.9489204872584,1.1591605802364027,738.7025600000001,714.1958399999999,89.26123120515517,82.73031686679685,125.98150398417812,190.17306591268243,181.3631218416477,12.0,134.47266450589402,150.66927338569602,0.8925022433848171,738.7025600000001,714.1958399999999,89.26123120515517,82.73031686679685,125.98150398417812,190.17306591268243,181.3631218416477,12.0,134.47266450589402,150.66927338569602,0.8925022433848171,747.8050559999999,714.1958399999999,84.0105705460284,81.94920006503789,136.92289918665668,212.14777685404857,200.01484216953097,10.0,150.01113162714825,162.00028036188672,0.9259930371234152,truth
1784138631937894499,1784138641937894499,1122.3077485714286,1008.2764799999999,44.630615602577585,82.51628495994123,665.4739950102747,1022.2389235280986,997.6298660261702,21.0,722.832074819555,790.2329858186755,0.9147075454850906,1524.7710494117646,714.1958399999999,89.26123120515517,78.6371428239233,1590.7453255174178,2092.5504722260953,2027.0830493510618,17.0,1479.656628886184,1991.5445040489599,0.7429694018275418,878.040768,714.1958399999999,84.0105705460284,74.81425349597195,339.5780604353704,517.3439493070197,508.3459768350941,30.0,365.8174147608231,404.61750800842776,0.9041067366595602,781.1516999999999,714.1958399999999,84.0105705460284,79.58019035535997,176.59009983647792,248.3066832044934,244.26890706499216,32.0,175.5793395078371,216.68888870800532,0.8102830770637042,823.1632199999999,714.1958399999999,84.0105705460284,78.4037776400491,304.23575675144116,421.6528086001099,414.79620841622733,32.0,298.1535602674911,375.06135314392753,0.7949461008665334,truth
1784138632937894499,1784138642937894499,1284.5340509090909,1008.2764799999999,16.229314764573665,77.1029287921086,854.9389675180116,1041.4965468135115,1030.4604603389178,33.0,736.4492708342065,1091.1748311363356,0.6749140924257551,1233.6109963636366,714.1958399999999,178.52246241031034,88.39296203269417,1259.987496398511,1641.278878728609,1615.9765435777,33.0,1160.5594249672527,1581.6724985663168,0.7337545705695865,898.8714799999998,714.1958399999999,43.27817270552978,74.67767052959447,392.0719368200898,515.4485910430412,510.136129977235,48.0,364.477194079586,490.9368541693003,0.742411556566286,804.8089223529411,714.1958399999999,84.0105705460284,78.94545728958387,255.59755584006552,372.58572360245495,368.8410484256296,51.0,263.4578917325926,309.76634863189963,0.8505052046362334,850.9392188235292,714.1958399999999,25.503208915758616,77.57496723775553,361.6743562519333,449.70632099244773,446.3909341093344,51.0,317.99038911621403,459.4102046704667,0.6921709310839261,truth
1784138633937894499,1784138643937894499,1331.9561454545453,1008.2764799999999,158.68663325360916,80.45959360647277,1093.0725720127332,1504.069647702493,1486.4779057302403,44.0,1063.5378472672944,1350.5772540243997,0.7874690944914139,1550.003974736842,861.2361599999999,59.50748747010345,84.99195778726998,2272.693197067826,3398.3851798669834,3352.1957208220533,38.0,2403.021205767809,2728.1886441945076,0.8808119669002201,881.0062870588235,714.1958399999999,84.0105705460284,75.1003495168213,355.07056540615946,483.17399157631064,479.55465977909927,68.0,341.655605936581,440.21124054452923,0.7761174056209069,809.5733448648648,714.1958399999999,84.0105705460284,79.53486964104752,324.2510757681353,474.3768503211092,471.11648969087287,74.0,335.43508769997214,392.45276307275765,0.8547145523289006,832.0614933333333,714.1958399999999,84.0105705460284,78.39242649748743,338.57108295705274,442.10584518272185,438.98138309735947,72.0,312.61604113091255,424.7309287575379,0.7360331446673917,truth
1784138634937894499,1784138644937894499,1437.2787323076923,1344.36864,29.753743735051724,72.07136901447147,1064.031779196216,1451.3703640798572,1437.4485036006226,52.0,1026.2738264540553,1318.221631914226,0.7785290436812016,1514.241307826087,1008.2764799999999,89.26123120515517,81.34530090524083,2081.687778273834,3105.9040821432054,3071.2818856730423,46.0,2196.2058381984402,2501.0373788811803,0.8781179588690897,947.0745125925924,714.1958399999999,84.0105705460284,73.59608273270389,595.5808804285787,821.2164363754025,816.0676932282956,81.0,580.6877109828981,735.4142107825242,0.789606323169921,843.0003903296704,714.1958399999999,84.0105705460284,78.5891774766548,435.77835942984063,633.5780191476108,630.0483091256126,91.0,448.00731375001584,528.6305709169441,0.8474865783356381,861.9442193258427,714.1958399999999,84.0105705460284,77.17698298024396,392.6811852522513,497.4949582724591,494.6602060903993,89.0,351.7820586005743,496.50953477813175,0.7085101774687372,truth
1784138635937894499,1784138645937894499,1474.4042971428573,1344.36864,46.07031288008009,71.37769472737342,1108.1271836289459,1544.2808428047429,1531.855620299788,63.0,1091.9714560037105,1363.704836037259,0.8007388601604077,1759.7278188679247,1008.2764799999999,43.27817270552978,79.34225128306637,2942.9945751321525,4439.686526861951,4396.793636012853,53.0,3139.332449486637,3520.6150065456845,0.8917000136765452,934.75632,714.1958399999999,84.0105705460284,73.87066046481053,554.1177298634931,750.6856923989792,746.884727761059,100.0,530.8149436350369,687.903092670042,0.7716420369251724,849.7784727272729,714.1958399999999,84.0105705460284,78.22109004723298,431.2475704986385,608.240794667354,605.4442704536227,110.0,430.09119050358044,528.6394972451102,0.8135812642545764,881.8455849056605,714.1958399999999,84.0105705460284,76.16848479963316,409.272148401681,530.8651818735738,528.3312047233873,106.0,375.37836999863384,514.3470837705212,0.7298152975746451,truth
1784138636937894499,1784138646937894499,1546.142278309859,1344.36864,17.63184813928991,68.14030315594452,1132.7455244351256,1600.1097167491332,1589.2432645175747,71.0,1131.4484313557978,1387.8534035865848,0.8152506802460779,1834.5030400000003,1008.2764799999999,17.852246241031033,81.05320310306745,2902.7463538415345,4358.699585658149,4321.697453819921,60.0,3082.066034173872,3478.837057117869,0.8859472241931584,919.0020000000001,714.1958399999999,84.0105705460284,74.22564374888047,516.075589162631,695.779944185214,692.8503314083391,120.0,491.99071674696245,641.5922340369453,0.7668277305218001,841.8338931297709,714.1958399999999,84.0105705460284,78.41940812823034,407.63015131407957,568.3814910173861,566.1911881071077,131.0,401.9064065993145,501.5578737173728,0.8013161145702364,875.2400000000001,714.1958399999999,84.0105705460284,76.34110891378522,394.7026461683803,509.92118305101013,507.8774025498168,126.0,360.5687264060361,496.563646024966,0.7261279179263711,truth
1784138637937894499,1784138647937894499,1504.822276626506,1344.36864,34.83365120201177,73.06184700862313,1189.1912889615019,1743.1122890232066,1732.5334482997696,83.0,1232.5665199379146,1438.3121116252569,0.8569534456225534,1897.5203199999999,1008.2764799999999,43.27817270552978,78.07931018565918,2963.264520862161,4315.061453734199,4281.742407518714,66.0,3051.209215172134,3592.622218356006,0.8492986542204195,934.1385035294118,714.1958399999999,84.0105705460284,73.61281439642772,526.8431296282789,704.7088231681166,702.0939391110993,136.0,498.30438762416685,656.4858986378085,0.7590481206955636,841.3432879470198,714.1958399999999,84.0105705460284,78.75446227208629,409.01609866165006,562.7182325022287,560.8393683838206,151.0,397.9018780996342,505.3962659450357,0.7873067232809907,876.1574929655172,714.1958399999999,84.0105705460284,75.993329470885,381.87688899766897,495.3708087160861,493.6477745956637,145.0,350.2800580450086,479.9081757681032,0.7298897491887442,truth
1784138638937894499,1784138648937894499,1538.1637161290323,1344.36864,29.753743735051724,71.63321809672128,1223.19056063736,1719.3482296610205,1710.075969462662,93.0,1215.762792414393,1501.116488336284,0.8099056947684627,1910.3887135135135,1008.2764799999999,6.833395690346806,77.74436308214342,2926.030082314231,4157.111766596634,4129.685667315385,74.0,2939.521920310868,3578.1153594066254,0.8215279903100559,922.0990030769232,714.1958399999999,84.0105705460284,74.0613105576127,502.86714140540977,671.4336951762458,669.2642753042752,156.0,474.7753189762647,626.9329486125209,0.7572984001351347,846.1614381176471,714.1958399999999,84.0105705460284,78.46875256621347,408.7579310904247,567.0814207679095,565.4011758279298,170.0,400.98711810989073,503.75664562724234,0.7959937036872432,871.8026938181819,714.1958399999999,84.0105705460284,76.53411101166114,384.4659053325735,505.48956070085774,503.94607752303597,165.0,357.43509619058545,481.4022649842896,0.7424873586796485,truth
1784138639937894499,1784138649937894499,1506.4130742857144,1050.2879999999998,22.315307801288792,72.49502552013,1202.4402695913398,1682.4472508591487,1674.491834557612,105.0,1189.6698600711684,1477.8592679578494,0.8049953644876418,1862.6735553488375,1008.2764799999999,35.704492482062065,74.51749346984163,2744.5992274162727,3904.3061826588505,3881.271726861825,86.0,2760.761377586636,3354.8097034378825,0.822926371876626,928.3817396531792,714.1958399999999,84.0105705460284,73.76149716374086,499.5922385546845,662.7359573276232,660.8065909125596,173.0,468.62508956252077,624.0032631039851,0.7509978188758737,849.7885765079366,714.1958399999999,84.0105705460284,78.02896381195374,398.61771204375066,546.6938587296007,545.2379470669133,189.0,386.5709347407411,493.02496581494114,0.7840798368126494,872.8806573913045,714.1958399999999,84.0105705460284,76.40019269542186,379.8452278478542,499.09238082787425,497.7268724390662,184.0,352.9116069219287,475.7010543266301,0.7418768651280082,truth
1784138640937894499,1784138650937894499,1554.0336089719628,1344.36864,22.315307801288792,70.25120366803135,1205.9367189619386,1674.2589792306683,1666.4514090790697,107.0,1183.8798776764725,1485.8603426627085,0.7967638974433643,1956.2540724705884,1008.2764799999999,44.630615602577585,75.9440255255116,2962.1522838041583,4215.570975626258,4190.420354285786,85.0,2980.858823438517,3620.2116847301554,0.8233935148078794,927.9877973333334,714.1958399999999,84.0105705460284,73.53362640846156,489.7589577643971,650.3672124122651,648.5479998629696,180.0,459.8790661581044,611.5417366588416,0.7519994770441242,852.2336914285715,714.1958399999999,84.0105705460284,78.11757052973657,404.2162340530644,555.6128214180911,554.18634198759,196.0,392.8775937389225,499.60496986423243,0.786376472287069,869.9885600000001,714.1958399999999,84.0105705460284,76.4977841918038,373.58799099905525,486.77671833039625,485.5007614350518,192.0,344.20311845515715,468.93291701510236,0.7340135570906655,truth
