window_start_ns,window_end_ns,red_Mean_NN,red_Median_NN,red_Heart_Rate,red_Mean_HR,red_SDNN,red_SDSD,red_RMSSD,red_NN_Count,red_SD1,red_SD2,red_SD1_SD2,infrared_Mean_NN,infrared_Median_NN,infrared_Heart_Rate,infrared_Mean_HR,infrared_SDNN,infrared_SDSD,infrared_RMSSD,infrared_NN_Count,infrared_SD1,infrared_SD2,infrared_SD1_SD2,ppg0_Mean_NN,ppg0_Median_NN,ppg0_Heart_Rate,ppg0_Mean_HR,ppg0_SDNN,ppg0_SDSD,ppg0_RMSSD,ppg0_NN_Count,ppg0_SD1,ppg0_SD2,ppg0_SD1_SD2,ppg1_Mean_NN,ppg1_Median_NN,ppg1_Heart_Rate,ppg1_Mean_HR,ppg1_SDNN,ppg1_SDSD,ppg1_RMSSD,ppg1_NN_Count,ppg1_SD1,ppg1_SD2,ppg1_SD1_SD2,ppg2_Mean_NN,ppg2_Median_NN,ppg2_Heart_Rate,ppg2_Mean_HR,ppg2_SDNN,ppg2_SDSD,ppg2_RMSSD,ppg2_NN_Count,ppg2_SD1,ppg2_SD2,ppg2_SD1_SD2,label
1783776406177789466,1783776416177789466,2428.0714842352936,1872.4119039999996,21.283108798616524,32.71226698137486,1447.7021846546372,2232.354191502402,2215.9420001983235,68.0,1578.5127868215613,1716.3426003650998,0.919695628650003,2652.8663039999997,1809.2968959999998,25.92669617286013,34.196135117353975,1819.15042143611,2867.2434378288767,2844.0087246768203,62.0,2027.4472782014277,2136.19879193842,0.949091107930873,984.3466149647057,715.303424,83.88048761807688,70.43523434402435,459.93248848568857,660.4017119388866,658.4450088964007,170.0,466.97452881919173,560.3955590886878,0.8332944850215858,1054.5798805063291,715.303424,83.88048761807688,67.68770275267933,543.2562867989285,751.7124750870313,749.3269315053891,158.0,531.5409886365635,670.0648289477307,0.793268002845777,1097.5921347368417,715.303424,83.88048761807688,66.31188803967244,589.5100171584224,804.078442613203,801.4122835347298,152.0,568.569319377714,730.3482629481832,0.7784906848173786,deceptive
1783776407177789466,1783776417177789466,2446.6347218823535,1809.2968959999998,40.741951128780215,31.948657297006616,1555.7462006367462,2377.1472544684243,2359.341994580867,68.0,1680.8969435136062,1851.4818968152647,0.9078657190248083,2562.792991507692,1809.2968959999998,40.741951128780215,34.54199151333136,1766.8714772430226,2798.4435935130005,2776.502461295293,65.0,1978.7984417410928,2070.228972280939,0.9558355468095349,1010.6098232195119,715.303424,83.88048761807688,68.9507533772248,468.3946489786211,677.0942032015045,675.0473974996949,164.0,478.77790258588595,569.3618834988353,0.8409026253104724,1054.8837448205124,715.303424,21.605580144050112,68.53196001950002,583.3470398371995,810.5973334852066,808.0968759307309,156.0,573.1788713191229,718.5544714983789,0.7976832572259848,1083.3340484266662,715.303424,83.88048761807688,66.85507801115952,571.1966492337878,751.9019433018433,749.3758648728411,150.0,531.6749628960764,714.9769864174241,0.7436252816474141,deceptive
1783776408177789466,1783776418177789466,2392.272235594203,1893.4502399999997,29.7076726980689,30.754411686220163,1373.054739157729,2092.791079030421,2077.350430993905,69.0,1479.8267635891225,1635.7307261067363,0.9046884917979828,2588.7171535238094,1809.2968959999998,21.937973684727805,34.38358454703767,1773.701737172768,2820.338571907171,2797.5449927956074,63.0,1994.280529437544,2074.4778354690957,0.9613409675146435,1029.9637537391304,715.303424,83.88048761807688,68.89548608314944,512.7074631205014,713.3471334941111,711.1144296341226,161.0,504.4125954336713,631.2858720602374,0.7990240519520769,1058.3901341538458,715.303424,83.88048761807688,68.14127878934022,575.5020609737566,809.9005294472558,807.2837196035956,156.0,572.6861564587298,705.9890420327687,0.81118278381458,1124.9069453061222,715.303424,61.9986212829264,67.05853578774258,741.8393994281251,974.6074894550344,971.265596941733,147.0,689.1515647888514,929.0782795127124,0.741758342634273,deceptive
1783776409177789466,1783776419177789466,2443.5870261492532,1851.3735679999995,34.779714378227006,30.50367325866162,1421.1687180139872,2174.080251043795,2157.547929146023,67.0,1537.3068883568192,1690.498392672521,0.9093808636673588,2554.1854799999996,1809.2968959999998,40.741951128780215,34.643836358730226,1772.4233243553513,2814.651206329383,2792.223429132545,64.0,1990.258954670403,2074.2235964608267,0.9595199659604251,1049.236757197452,715.303424,21.605580144050112,69.03814653532388,575.6990558257888,797.460988158875,795.0153071448519,157.0,563.8900724588656,709.8399811567232,0.7943904083001577,1061.5649540891718,715.303424,49.17132032783818,69.32075908530561,630.7880558624072,922.843888429369,919.8879828589405,157.0,652.5491714849685,763.4637727060082,0.8547218542827306,1143.9595199999997,715.303424,44.56150904710335,67.23048474968441,805.5425232473247,1079.0425857935666,1075.2733968432399,144.0,762.9983296036979,1003.3515276463761,0.7604496615393713,deceptive
1783776410177789466,1783776420177789466,2390.8341836417912,1851.3735679999995,8.748271714768757,32.783185216073555,1546.6362154890644,2340.029999196715,2323.494641413399,67.0,1654.6510806119486,1848.0346497940798,0.895357173522867,2322.504789333333,1809.2968959999998,38.53968350019749,39.00546253441378,1475.3946405688405,2320.74306713965,2302.825278485942,66.0,1641.0131601661135,1734.1039746564588,0.9463176280944818,1062.3689669299363,715.303424,83.88048761807688,68.69412483899926,626.505564901461,856.4936000861212,853.7441852460871,157.0,605.6324326637753,775.6436836317796,0.7808126920186286,1099.0092342251655,715.303424,83.88048761807688,67.28077454088408,626.0791460106669,899.0935199729711,896.0915298894815,151.0,635.7551248937705,762.7961095368441,0.8334535493105614,1189.8681746285713,757.3800959999999,20.97012190451922,64.8700134500396,812.6130674216732,1087.4819454047304,1083.6818461088546,140.0,768.9658580136237,1012.43555315566,0.7595207967725296,deceptive
1783776411177789466,1783776421177789466,2273.86946630137,1851.3735679999995,79.22046052818374,35.672712528470804,1456.0669744363922,2271.738993219874,2255.941247785627,73.0,1606.3620471916731,1717.5746140298495,0.9352502267268351,2363.5067757714282,1830.3352319999997,27.42246710590976,36.72735447144195,1534.8015700053566,2394.943277261936,2377.5302818646664,70.0,1693.4806319090487,1810.3296366287216,0.9354542938725379,1065.1331905641023,715.303424,41.94024380903844,68.43058227125331,626.7789581406373,858.9565315976865,856.1936576031487,156.0,607.3739882372012,775.4045034316887,0.7832995366278646,1104.8609568211916,757.3800959999999,83.88048761807688,66.36745394676485,600.4733458323096,856.1682725647614,853.3096520177895,151.0,605.4023913673151,733.4033340348715,0.8254699198552181,1150.579341241379,757.3800959999999,41.94024380903844,65.47736221858128,772.1763442437688,1041.1200708713,1037.5121043005304,145.0,736.1830621425153,959.963469475051,0.7668865384482719,deceptive
1783776412177789466,1783776422177789466,2224.87608109589,1893.4502399999997,38.53968350019749,34.28520912826866,1219.516871003288,1876.4045647087312,1863.3416119199533,73.0,1326.8183919549358,1447.141760405096,0.9168544701408671,2229.4872232328767,1893.4502399999997,38.53968350019749,36.02038222672484,1185.8335665631785,1817.7428218805017,1805.106120417832,73.0,1285.3382758048733,1409.3811597830354,0.9119876953674777,1045.0363379119494,715.303424,64.81674043215034,68.85147709688434,599.759564595032,825.2203067472049,822.6057825738452,159.0,583.5188748737914,741.0640538978105,0.7874067994590063,1131.1708054794517,757.3800959999999,21.605580144050112,65.30118654069366,624.205697236293,901.370629514569,898.3283673644061,146.0,637.3652844921389,759.0443017285754,0.8396944460826117,1125.5509759999998,757.3800959999999,64.81674043215034,66.20121986823727,740.6228528170608,1008.0302535440192,1004.5967476665908,148.0,712.7850279221708,918.1574876973767,0.7763210968411811,deceptive
1783776413177789466,1783776423177789466,2124.591424853333,1893.4502399999997,43.211160288100224,34.57196157464429,1008.0230680528316,1508.4712929751802,1498.2597880277783,75.0,1066.6502804879892,1209.6898780351657,0.8817551505188189,2282.358908342857,1956.5652479999997,36.56328947454634,34.66525356802697,1206.0937423902417,1859.1469605780712,1845.633872416823,70.0,1314.6154230471132,1430.110966187284,0.919240152777735,1066.6570354140126,715.303424,29.10139366341443,67.64829618225892,597.7345995361816,825.9567720833062,823.3533311175692,157.0,584.0396345070575,737.578575900758,0.7918337836667868,1164.9059052307691,883.6101119999998,29.10139366341443,64.01293176097582,636.5087910041048,927.119534073989,923.8599528789404,143.0,655.57250951423,771.6211663994332,0.8496041037511793,1133.207785360544,757.3800959999999,95.06455263382047,66.54860665190336,751.8789402731215,1029.7035716853543,1026.1712923746627,147.0,728.1103781507222,930.3609623512106,0.7826106292235648,deceptive
1783776414177789466,1783776424177789466,2116.240823794871,1851.3735679999995,43.211160288100224,35.85692621820092,1132.39303844387,1689.4686651766067,1678.4978182438847,78.0,1194.6347497485633,1360.5336799869651,0.8780633418498017,2369.9241032112677,1809.2968959999998,27.960162539358965,35.31356455221044,1468.1903417640576,2267.3807455369365,2251.396862626213,71.0,1603.2803007009775,1739.514845579253,0.9216824477097751,1067.1930439745222,715.303424,54.84493421181952,67.88599509016973,606.1488914373773,852.3452778157456,849.6132912065223,157.0,602.6991258558454,743.7807734997072,0.8103182380205513,1154.06154857931,841.5334399999998,28.519365790146143,64.7536807583984,645.0373645859295,948.9862703859869,945.7376213216662,145.0,671.0346270428619,779.1037595074524,0.8612904492555502,1166.9656024615383,799.4567679999999,52.81364035212249,65.18741394378884,767.6477783582379,1058.866607682054,1055.1357775488252,143.0,748.7317586639762,947.7692757315208,0.7899937018807445,deceptive
1783776415177789466,1783776425177789466,2050.9680377435893,1851.3735679999995,43.211160288100224,39.568908409356034,1083.9098836946087,1582.7597119040806,1572.4944190737601,78.0,1119.1801252762416,1312.79823108315,0.8525149552896945,2480.6396179104477,1809.2968959999998,18.76274065141194,31.180914147010522,1510.6893083834289,2324.2539175567463,2306.5830434088953,67.0,1643.4957063037739,1792.7145072789854,0.9167637678116978,1064.2449968917197,715.303424,95.06455263382047,68.37232097322732,612.9467490952932,855.1858405812872,852.4404535909509,157.0,604.707707049746,754.0369546449934,0.801960306221924,1186.80088329078,883.6101119999998,67.90325188130035,64.19714559625234,725.3545054454107,1084.6613072050973,1080.7820789164698,141.0,766.9713656153893,870.7214131413934,0.8808458756610865,1155.9396835555553,778.4184319999999,95.06455263382047,65.6058336981005,762.7383322148205,1037.7041927432178,1034.069658335241,144.0,733.7676715544414,945.6912968566849,0.7759061270769425,deceptive
1783776416177789466,1783776426177789466,2124.871935999999,1788.2585599999998,40.741951128780215,38.42609106756301,1296.247287974664,1937.2830092885088,1924.668422215595,78.0,1369.865952945386,1556.3571886440006,0.8801745273775502,2369.5177289142857,1767.2202239999997,40.741951128780215,33.38181544165942,1421.602564643107,2163.871007471973,2148.1390944479585,70.0,1530.0878629963986,1694.4979402039044,0.9029741652045197,1061.5649540891718,715.303424,89.1230180942067,68.11503381237516,565.4392599479912,796.9094899971811,794.3512322692112,157.0,563.50010436892,693.3086827446863,0.8127694321353699,1155.4901464615382,757.3800959999999,89.1230180942067,65.46904907951826,709.7875998305713,1051.9355874382434,1048.2301123447817,143.0,743.8307872490363,854.9589193152649,0.8700193312735647,1150.8695251862068,799.4567679999999,89.1230180942067,65.41411689006807,744.7348247718472,1034.3629095949666,1030.765156076794,145.0,731.4050275824486,917.4874719959215,0.7971825773177423,deceptive
1783776417177789466,1783776427177789466,2025.3943719506174,1809.2968959999998,25.016987535215918,40.10566408897731,1139.139019785208,1640.2973193657763,1630.029853910143,81.0,1159.8653576856566,1386.589913714495,0.8364876638821982,2361.0346654647883,1767.2202239999997,10.333103547154401,32.99250986333173,1259.4025462109403,1850.7863377960402,1838.5215306943426,71.0,1308.7035699829962,1521.7874456579275,0.8599778988301439,1049.236757197452,715.303424,38.53968350019749,68.88002945653724,565.5959721621126,802.8565113644594,800.2867977456284,157.0,567.7052835055837,691.8474998089773,0.8205641903198755,1156.3728738461534,757.3800959999999,44.56150904710335,65.72882973776908,719.6106035122529,1045.1580277900155,1041.4821829839316,143.0,739.038328861878,873.2640010964948,0.8462942797755555,1154.6419164689655,925.6867839999998,44.56150904710335,64.27726841135949,708.0975221800957,988.3211835205773,984.8897759220923,145.0,698.8486108577144,870.981923685161,0.8023686736239677,deceptive
1783776418177789466,1783776428177789466,2087.855116962025,1767.2202239999997,38.53968350019749,38.43764849898207,1279.273911958461,1891.992400172827,1879.825197670065,79.0,1337.840656115618,1542.1331567206105,0.8675260306059263,2381.5396352,1767.2202239999997,38.53968350019749,32.773855021032034,1351.8053566933067,2060.8641692992364,2045.8781393666923,70.0,1457.2510292158713,1610.268661961127,0.9049738491719156,1028.281138567901,715.303424,95.06455263382047,69.64854156492828,551.6498349095134,782.5297747033154,780.0959477290928,162.0,553.3321101730955,674.942122435014,0.8198215695544657,1131.170805479452,757.3800959999999,95.06455263382047,66.50939005444411,696.5719159922224,1004.2852418094495,1000.8161977931402,146.0,710.1369047290334,847.5126291502006,0.8379071653965634,1084.7038171428571,820.4951039999999,95.06455263382047,66.17491003334668,574.6602917799779,768.005459056673,765.9561891459576,154.0,543.0618680872609,716.247726427167,0.7582039677755029,deceptive
1783776419177789466,1783776429177789466,2020.6941517108432,1725.1435519999998,37.52548130282388,37.89855165628735,1005.9623108200889,1398.9664514731303,1390.4103802140335,83.0,989.2186644891316,1238.8073128998535,0.7985250443618435,2265.8856475675675,1872.4119039999998,38.53968350019749,33.991979293431385,1160.9912006726026,1787.4463398538637,1775.1689194311343,74.0,1263.9154279177412,1377.3380237306235,0.9176508643058668,1008.8262322891565,715.303424,43.211160288100224,70.05337541331865,518.0306062253668,746.5991594708488,744.3474527562953,166.0,527.9253284900138,630.3640549252452,0.8374927541714294,1104.1596477852345,757.3800959999999,43.211160288100224,66.5339759452492,646.6096835292255,932.3087638964031,929.1565173419067,149.0,659.2418491107944,786.7072249941656,0.8379760960193082,1062.6369712101912,757.3800959999999,89.1230180942067,66.51804133940456,499.2215929940277,721.5991441124759,719.2826585480168,157.0,510.2476481003405,606.8509426762265,0.8408121537228511,deceptive
1783776420177789466,1783776430177789466,1952.5579459047613,1725.1435519999998,158.44092105636747,41.18333745448549,1015.928784463917,1360.3847090788324,1352.2392891769314,84.0,961.9372528121311,1265.5279337220452,0.7601074833512182,2246.202613479452,1809.2968959999998,19.269841750098745,33.54948294891718,1115.9494899183637,1674.257997385176,1662.7163641390991,73.0,1183.8791834068668,1337.8720296224365,0.884897177901964,973.6689538245613,715.303424,89.1230180942067,71.27500508748886,468.0637657846858,672.7363592950422,670.7548502609307,171.0,475.6964416082741,570.1086084262325,0.834396173952573,1088.2182425098038,715.303424,89.1230180942067,66.8656164339567,630.966592090639,915.3338784553289,912.3664905086978,153.0,647.2387925055461,766.0147866764263,0.8449429485738471,1035.4520153043477,757.3800959999999,67.90325188130035,67.71014684894375,477.4630288562937,707.5004481549439,705.2943295714582,161.0,500.2783645828822,575.1544721328265,0.869815656179663,deceptive
1783776421177789466,1783776431177789466,1921.984994574712,1725.1435519999998,25.92669617286013,41.503947093630494,918.1053828939347,1280.5809839570768,1273.115479998992,87.0,905.5074976145904,1129.5410900359127,0.8016596346980176,2144.8313829743583,1767.2202239999997,25.92669617286013,35.77771540162428,1082.9450858606845,1607.8774029499057,1597.4028939570626,78.0,1136.9410149424932,1303.5423592083139,0.8721933789961352,967.5202382427744,715.303424,83.88048761807688,71.66316083490297,469.522510685205,670.1515932869613,668.2006831467407,173.0,473.86873603617954,573.2599642256677,0.826621019446664,1066.1210268535028,715.303424,41.94024380903844,67.7856877340992,618.5185305330434,871.7028307788346,868.9818210628796,157.0,616.3869828232234,758.3956018652484,0.8127512624113858,1066.1210268535033,757.3800959999999,41.94024380903844,66.52922920587258,501.1196283103939,727.6460777343286,725.3161974903855,157.0,514.5234758697375,608.1731333636471,0.8460148067114411,deceptive
1783776422177789466,1783776432177789466,1993.6327923809524,1788.2585599999998,38.53968350019749,39.62931010744898,930.9465129104261,1321.5447509486619,1313.5595131848863,84.0,934.4732550372859,1138.7285399120258,0.8206286417564278,2146.44971651282,1746.1818879999996,38.53968350019749,35.12317930086668,1096.8584498353093,1608.7319832067856,1598.2519066579844,78.0,1137.5452944372012,1326.3454563205344,0.8576538555746321,974.4462215529409,715.303424,83.88048761807688,71.27291929351097,472.0511299398583,672.1457910391338,670.1620596528143,170.0,475.27884678976767,576.8184701031064,0.8239660680505108,1071.6065247179486,715.303424,27.960162539358965,67.61404340651909,614.7751478561919,858.5656254118187,855.8000160623479,156.0,607.0975758223663,756.0510773476275,0.8029848696892031,1033.9217453081758,757.3800959999999,83.88048761807688,67.85553035727695,480.6220011958575,719.0721963011193,716.8057036838031,159.0,508.4608261672258,576.8264992124518,0.8814796595881664,deceptive
1783776423177789466,1783776433177789466,2018.6539957073167,1725.1435519999998,178.2460361884134,42.49432852172977,1206.0525129275497,1797.0584946261818,1785.9821595938895,82.0,1270.712247739062,1449.7484332120127,0.8765053430157642,2236.3182564324325,1746.1818879999996,19.533812185031607,34.62691158691879,1360.9239437888775,2050.1808908198714,2036.207938790339,74.0,1449.6968105578078,1628.9314105526369,0.889967988318169,966.2870815438596,715.303424,49.17132032783818,71.51809564393035,465.66752016250695,657.4725498811009,655.5451131810306,171.0,464.90329846493705,570.6355581339184,0.8147114070235213,1043.713172125786,715.303424,83.88048761807688,68.42516684275527,588.0734854275623,828.3350903117149,825.719278447437,159.0,585.7213594541848,721.197679603459,0.8121509206411146,1022.4889435092023,757.3800959999999,83.88048761807688,67.38595407879116,438.2755387059593,623.4985370477343,621.571179926208,163.0,440.8800436063448,535.708212771497,0.8229854108927008,deceptive
1783776424177789466,1783776434177789466,2083.3347085128203,1809.2968959999998,33.16205324435598,40.088571227395065,1217.9648139528836,1791.8495990999904,1780.1769423789833,78.0,1267.0290023899997,1471.1204334132083,0.861268033270609,2289.9191634929575,1725.1435519999998,32.40837021607517,33.68237687162126,1354.1828555293787,2075.8579151854533,2060.977810331238,71.0,1467.853208607403,1609.4489402928818,0.91202222814244,970.2097741395345,715.303424,83.88048761807688,71.20384244935423,463.51866065284025,651.9129033116246,650.0039302432351,172.0,460.9720346746598,568.7279570855981,0.8105316943391968,1029.2806156962024,715.303424,52.81364035212249,68.39054103650207,508.93834488187673,711.5919608625755,709.3271872690289,158.0,503.17150096375946,625.656213979488,0.804230006385353,1029.1797163726708,715.303424,83.88048761807688,67.87634526180781,476.6005940462101,665.4192516513276,663.341770052399,161.0,470.52246517473156,586.1745110232511,0.8027003159065508,deceptive
1783776425177789466,1783776435177789466,1981.1522189879518,1809.2968959999998,24.58566016391909,40.65879942858811,941.3035952668155,1346.903704398215,1338.6941054188173,83.0,952.404742985259,1148.2889530488642,0.8294120921885507,2249.9331555555555,1746.1818879999996,35.64920723768268,33.95108397103646,1327.8980699722126,2054.5248802465703,2040.005173925076,72.0,1452.7684749388295,1572.0554848935226,0.9241203563735713,970.7335740235292,715.303424,83.88048761807688,71.01594911190134,454.69301061530916,646.4104035506707,644.5682508307551,170.0,457.081179780212,555.9045469774394,0.822229611658064,1012.1352191999999,715.303424,57.038731580292286,69.22636109916436,486.65704375638717,667.4173147536363,665.3798397138517,165.0,471.9353091436127,601.920832391747,0.784048804671482,1044.771704754717,757.3800959999999,54.84493421181952,67.03339131113111,483.2203120458811,674.8870627088339,672.7522235475074,159.0,477.2172185764872,594.252137644029,0.8030551147337254,deceptive
1783776426177789466,1783776436177789466,1939.4870693647056,1893.4502399999997,34.779714378227006,41.10388359677893,870.4798436701476,1249.5508133247954,1242.1699268264456,85.0,883.5658535391285,1060.7195707169,0.8329872267200273,2229.495012324324,1788.2585599999998,33.16205324435598,36.09763165219158,1334.3033196478805,2115.1833799135493,2100.684138102061,74.0,1495.6605113899523,1562.763742534706,0.957061179935032,966.0510333023253,715.303424,83.88048761807688,71.5058273280354,463.15327227841397,676.0439712864136,674.0643809927082,172.0,478.0352764769067,561.0374715348602,0.8520558799203198,1000.9685405301202,715.303424,83.88048761807688,69.65813769797052,474.6845902863659,624.03730545002,622.1434616748313,166.0,441.26101039709,594.3864743265443,0.7423806386190911,1045.0363379119494,715.303424,83.88048761807688,67.3693266580188,503.6062152172634,692.2296871799001,690.0356611405928,159.0,489.48030594354987,622.4491586126675,0.7863779702659051,deceptive
1783776427177789466,1783776437177789466,1956.8127578352942,1809.2968959999998,36.56328947454634,41.26142478679086,900.2840219409314,1285.250493146879,1277.5773854946108,85.0,908.8093392275125,1099.115750406073,0.8268549867397943,2140.373867789473,1746.1818879999996,20.084060415595875,38.240075491826154,1206.3285655648122,1926.720384915253,1913.9166793978477,76.0,1362.3970496239303,1407.975268171753,0.9676285375331871,976.3756403274851,715.303424,19.533812185031607,71.25179260860916,482.0200608999792,682.7262065771973,680.8563245235094,171.0,482.7603303645039,590.04907417368,0.8181697955217945,999.5099270898203,715.303424,54.84493421181952,69.42173480687333,457.47704959592033,644.1701586605559,642.231007815869,167.0,455.4970874268933,561.0986575342922,0.8117950048723028,1029.3200687407407,715.303424,64.81674043215034,67.96150149105017,482.60772612589,669.2443548864625,667.1639985818969,162.0,473.22722161103394,594.8516058614575,0.7955382770224038,deceptive
1783776428177789466,1783776438177789466,1991.7981239518072,1809.2968959999998,89.1230180942067,40.70443458667316,920.4304015379439,1300.2044247213685,1292.8717029909967,83.0,919.3833656492336,1127.7195403265587,0.8152588766733648,2260.6124326575336,1809.2968959999998,20.666207094308803,36.94383080375851,1329.624689626913,2112.6609767752493,2097.952176889064,73.0,1493.876903025974,1555.6251250972043,0.9603064896066319,1001.6798037333333,715.303424,41.94024380903844,69.55837746706668,480.15042695945067,698.0037145652991,695.8725897265626,165.0,493.56315986252235,582.4831058768543,0.8473433046946928,1022.7470826012268,715.303424,83.88048761807688,68.64238942866767,482.9340474999036,690.180433584961,688.0469495512906,163.0,488.0312648301975,589.3753733771009,0.8280482810705083,1082.5180159999998,757.3800959999999,41.94024380903844,65.92419298545053,547.7318481930042,777.3627578083311,774.818240841398,154.0,549.6784774881468,670.035178735419,0.8203725639086209,deceptive
1783776429177789466,1783776439177789466,1956.3177381647056,1767.2202239999997,37.52548130282388,40.29271804813948,896.3187944988047,1305.5676353688511,1297.8242699201928,85.0,923.1757282670005,1086.5762974190663,0.8496188721029627,2343.2557899718313,1809.2968959999998,32.40837021607517,35.97246060906914,1366.2306514918516,2206.1817084432732,2190.3784587444593,71.0,1560.006046569961,1586.3048110260142,0.9834213675245407,989.9221767573962,715.303424,95.06455263382047,70.05194155159673,470.5673417644846,682.438674720046,680.4047601705633,169.0,482.55701463850505,571.346313615633,0.8445963562532759,1045.6052991999998,757.3800959999999,26.406820176061245,67.60633172856492,496.7652576275825,706.6857135687818,704.5279694607759,160.0,499.7022602321398,607.2069399562577,0.8229521557644542,1096.4848538947365,799.4567679999998,36.56328947454634,64.91119862255822,542.2331740464408,764.3671477876551,761.8332004122583,152.0,540.4891935168708,664.8077510970346,0.8130007398755218,deceptive
1783776430177789466,1783776440177789466,2008.5274031807228,1809.2968959999998,19.805115132045934,38.57990123515243,878.1709131584719,1260.512969639279,1252.9177705863372,83.0,891.3172686055269,1070.1145119929738,0.8329176537803826,2490.0597683582087,1809.2968959999998,20.084060415595875,35.20676888405578,1537.8350819863194,2424.7172187044534,2406.354044092145,67.0,1714.5339878057039,1805.5636463734186,0.9495837996347827,1032.6965918024691,715.303424,21.283108798616524,68.77460704065228,541.7364608882723,781.7410275462852,779.4190258160335,162.0,552.7743817097179,658.9211087635763,0.8389082916875497,1067.830413128205,757.3800959999999,95.06455263382047,67.30859023918931,529.6798608193963,732.4083201791289,730.0420915790378,156.0,517.8908897961102,653.4646302963969,0.7925308666839497,1125.550976,862.5717759999998,44.56150904710335,64.03914845999928,575.376753317052,773.174046878959,770.5516773376473,148.0,546.7166115855574,716.0078839115857,0.7635622789498044,deceptive
1783776431177789466,1783776441177789466,2106.496680506329,1809.2968959999998,36.56328947454634,38.149399379866715,1096.8393191623484,1578.363053311326,1568.4354544401585,79.0,1116.071218170743,1335.4046211191892,0.8357550966353365,2650.151679999999,1809.2968959999998,39.61023026409187,33.75594292498482,1738.0996700314454,2745.9971248978354,2723.3973388368295,62.0,1941.7131881340222,2038.8368923089567,0.952363180918831,1039.1108563478258,715.303424,43.211160288100224,68.21414003420463,533.6245152285525,770.5848538679074,768.1730017738894,161.0,544.8857756496421,648.8913562786603,0.8397180365824538,1081.9715657142856,820.4951039999999,41.94024380903844,66.45331801870526,529.9384639505287,728.8711239579164,726.523232775434,154.0,515.3897143617033,654.8711875732299,0.7870092991441476,1128.6280115374147,925.6867839999998,83.88048761807688,63.766030763065956,575.446749780722,787.9498195763751,785.2467776362245,147.0,557.1646606571716,712.082645571273,0.7824438134005955,deceptive
1783776432177789466,1783776442177789466,2053.235070379747,1809.2968959999998,38.53968350019749,38.35222868276709,941.2339471155044,1329.292086109555,1320.7875606895236,79.0,939.9514482656783,1153.294552079776,0.8150142100044012,2467.4023439999996,1809.2968959999998,75.05096260564775,36.97731300012698,1579.1479790742833,2427.575027755658,2408.268537216308,64.0,1716.5547639651472,1874.6030381878356,0.9156897375054548,1039.8197567999998,715.303424,95.06455263382047,68.24343986438154,530.7531332607958,767.8854001168064,765.4670403911834,160.0,542.9769735967392,644.9695961858723,0.841864448816995,1061.0289455286622,841.5334399999998,95.06455263382047,66.72192815573321,484.4166192806756,694.3961664431761,692.1695345777974,157.0,491.01223812191233,590.5695666709328,0.8314215053270869,1148.8382375724136,925.6867839999998,32.40837021607517,62.697554605730026,571.3440398448118,790.5460659975381,787.8225594214226,145.0,559.0004841072072,704.7178535529903,0.7932259432464824,deceptive
1783776433177789466,1783776443177789466,2286.550107178082,1851.3735679999995,40.741951128780215,36.78319201801082,1413.3701585514643,2132.074126654577,2117.2320942236734,73.0,1507.6040729498375,1690.7972645412322,0.8916527750350359,2577.1961599999995,1809.2968959999998,38.53968350019749,35.47987987757969,1706.6779243442834,2649.7971891162474,2628.6870882737776,64.0,1873.689561193151,2017.459488819077,0.9287371427170108,1041.797094075949,715.303424,89.1230180942067,68.14889069336061,529.6930281204146,767.5551798358237,765.1643295069263,158.0,542.7434725967709,643.3227569078742,0.8436565732657478,1087.0729667368419,925.6867839999998,89.1230180942067,65.56572535065078,497.04342113979516,713.8731027473735,711.5481362254399,152.0,504.7845118593488,605.5581089294099,0.8335855872721734,1130.3454267210882,925.6867839999998,89.1230180942067,63.495126212448646,566.3758280493156,785.8161412679921,783.143751829086,147.0,555.6559222564432,697.9873961811679,0.7960830314365999,deceptive
1783776434177789466,1783776444177789466,2201.4514790399994,1809.2968959999998,39.61023026409187,37.705961960028425,1263.1368673076433,1882.2933354860045,1869.5443289755697,75.0,1330.982381704399,1518.3123660498115,0.8766196017801077,2539.488988553846,1809.2968959999998,17.180340837437434,37.31129468315726,1652.906272934686,2574.1782677996716,2554.0412096655505,65.0,1820.2189091441883,1951.3072171266726,0.9328202618060759,1041.4629684472047,715.303424,49.17132032783818,67.53535048770024,505.66530235288224,721.2145174850767,718.968011053485,161.0,509.9756760038816,617.5412544514379,0.8258163682633529,1071.0670802051281,862.5717759999998,95.06455263382047,66.10443013193114,479.2081323995796,675.9194652467154,673.7355517340445,156.0,477.9472374119374,587.4215585428701,0.813635847137634,1102.3530757086091,925.6867839999998,95.06455263382047,64.16764792668307,526.1439504725772,736.5147529297603,734.0661032649796,151.0,520.7945762405682,646.5612251882903,0.8054837747019292,deceptive
1783776435177789466,1783776445177789466,2209.866813439999,1809.2968959999998,33.951625940650175,36.76123584358255,1240.2226753974749,1861.2419801048134,1848.6254310666354,75.0,1316.0968255611908,1486.6906678976695,0.8852526312163407,2508.6621866666665,1788.2585599999998,39.61023026409187,35.45501268380531,1616.933329218675,2489.040202227294,2469.8297915984385,66.0,1760.017205640855,1918.3629740485646,0.9174578687402768,1045.8682783999998,715.303424,43.211160288100224,67.39352043260585,518.1514046700462,733.1061024374308,730.810948095562,160.0,518.384296362747,634.5081693448349,0.8169860080730053,1079.6059647999998,925.6867839999998,89.1230180942067,65.15388840226933,474.8205805259433,682.5639379727431,680.344211970883,155.0,482.6455891339207,578.3042322400665,0.8345876827917872,1093.7184610718953,925.6867839999998,43.211160288100224,64.77619678336897,533.0742977889756,744.460345578397,742.0223446083179,153.0,526.4129586829652,655.5769309484147,0.8029766360469859,deceptive
1783776436177789466,1783776446177789466,2203.1345459199997,1809.2968959999998,10.408527660637278,38.050106255989164,1324.6638566804631,1917.4525132072445,1904.6564777002254,75.0,1355.8436746920306,1609.4448208279532,0.8424294248214974,2531.947040507936,1767.2202239999997,37.52548130282388,33.543701612754404,1625.192660986302,2508.8528364307754,2488.5379967623485,63.0,1774.0268536393055,1925.8548055164458,0.921163344483581,1056.9766529620251,757.3800959999999,95.06455263382047,66.58263639546509,507.578759742717,715.073279228707,712.792388301217,158.0,505.6331647879203,622.4467415106176,0.8123316117950877,1114.751296853333,925.6867839999998,71.29841447536536,64.24331321365794,527.6527820263947,769.2050352724414,766.6269544498584,150.0,543.9100965639808,639.4652611270361,0.8505702023677681,1070.5276356923075,778.4184319999999,95.06455263382047,65.660731191517,514.4054556101595,717.101236258166,714.7842633637019,156.0,507.0671469554057,632.9829379708777,0.8010755370135029,deceptive
1783776437177789466,1783776447177789466,2290.584856547945,1809.2968959999998,19.805115132045934,35.108017564380084,1417.8303043856174,2169.985861645565,2154.9665228629924,73.0,1534.4117178485124,1686.2016143193002,0.9099811699966474,2534.1631999999995,1767.2202239999997,67.90325188130035,33.454215011127076,1578.3010094676463,2420.1863705307696,2401.5197277920906,66.0,1711.3301943375657,1875.5646179077535,0.9124346759359344,1026.102890797546,715.303424,95.06455263382047,67.55989563921125,470.6945174973855,659.8968229778842,657.8735639052701,163.0,466.61751841112067,578.1355406477937,0.8071074784440366,1137.7875591836732,925.6867839999998,44.56150904710335,62.75506879142112,533.1857607750331,767.9325277038826,765.3119946406614,147.0,543.0102978331416,648.9560996015703,0.8367442700153761,1099.0092342251655,925.6867839999998,16.975812970325087,65.27893901858604,588.3702508524489,802.8556082522279,800.297858993274,151.0,567.7046449088007,728.8448547193246,0.7789101359951585,deceptive
1783776438177789466,1783776448177789466,2329.032689577464,1767.2202239999997,35.64920723768268,35.229393714059306,1523.9673482069218,2343.162452465687,2326.3654500977527,71.0,1656.8660595601887,1808.9638987941194,0.9159199145238215,2467.4514072835814,1767.2202239999997,37.52548130282388,33.497602357733314,1478.2595343895646,2261.3132507210335,2244.1170648933353,67.0,1598.9899339718384,1758.4419517162553,0.9093219895096393,1049.7863355949364,736.3417599999999,52.81364035212249,66.86630398779373,501.4193494913481,695.220198421624,693.0193747795098,158.0,491.59491672178746,618.0695325085219,0.7953715413322195,1113.6292522666663,925.6867839999998,50.927438910975255,63.54392783330872,503.07328284486994,707.4255237891546,705.0639599992293,150.0,500.2253850557565,617.2946929121771,0.8103510216423063,1077.326738285714,778.4184319999999,25.463719455487627,65.78158068501912,539.5186061435916,720.4589667495526,718.1449520060384,154.0,509.441420955262,672.603428520692,0.7574172229179911,deceptive
1783776439177789466,1783776449177789466,2283.828252444444,1788.2585599999998,27.960162539358965,34.065523072698575,1387.2135957727412,2099.594570554749,2084.759292824561,72.0,1484.6375585817202,1657.3016564336533,0.8958161314920249,2353.2445977971006,1851.3735679999995,37.52548130282388,34.46045145410389,1361.382192806949,2051.4120656344535,2036.5168057070166,69.0,1450.5673826180248,1629.309695553936,0.8902956795606976,1055.6688599235667,757.3800959999999,95.06455263382047,66.13583129953669,469.7162758117594,653.0387918211179,650.9604587543736,157.0,461.7681580745826,578.4910056510311,0.7982287599353612,1112.349067167785,925.6867839999998,95.06455263382047,63.560490296714974,500.11912423314106,693.8231102604118,691.4940765349794,149.0,490.6070262090788,616.3526991622492,0.7959842260379734,1048.987411443038,778.4184319999999,95.06455263382047,66.56833751387462,506.4836164476122,682.0689822082073,679.9104320576058,158.0,482.29560255643,629.8783877361319,0.7656963819474194,deceptive
1783776440177789466,1783776450177789466,2273.8694663013694,1809.2968959999998,33.16205324435598,31.72358305586606,1282.311812225009,1942.7377584937547,1929.2025378265262,73.0,1373.7230430980871,1531.3685604629077,0.8970557960800979,2341.4779024225354,1851.3735679999995,33.951625940650175,34.29765995447202,1268.4583591047901,1914.453011581557,1900.74284379337,71.0,1353.722706752327,1517.132372002262,0.8922904367044306,1045.0363379119494,757.3800959999999,89.1230180942067,66.4244931123345,451.3678908372326,656.0478745047097,653.9685324522945,159.0,463.89590084530136,547.6004404190769,0.8471430382530066,1093.1630113684207,925.6867839999998,89.1230180942067,63.96316538139892,479.1480069142133,648.2629596782756,646.1128879407612,152.0,458.3911347805701,595.0667263736199,0.770318881000185,1034.0342143999999,799.4567679999999,44.56150904710335,66.88357738184894,481.77561207806326,668.0737971166175,665.9848173202929,160.0,472.399512274206,593.8306418398524,0.7955121864553519,deceptive
1783776441177789466,1783776451177789466,2215.6537968219172,1809.2968959999998,33.951625940650175,33.44993051227081,1245.2416177927214,1840.5744790136978,1827.7539990633265,73.0,1301.4826953894826,1501.4408979933016,0.8668224617625201,2161.9658442105265,1851.3735679999995,25.463719455487627,35.13162682004021,971.548251253424,1346.5169965801072,1337.5176231348364,76.0,952.131299264737,1197.7207535596078,0.794952660238221,1061.5649540891718,799.4567679999999,95.06455263382047,65.53816815926676,455.3499873848342,642.5760920798095,640.5828067066606,157.0,454.36991213798467,558.0871020679455,0.8141559094527622,1087.6266071578946,862.5717759999998,83.88048761807688,65.29308447689353,511.3522113736887,680.2580785837657,678.0164856322717,152.0,481.01510032351206,638.1805424673366,0.7537288718703475,1041.6606112,778.4184319999999,95.06455263382047,66.88853353422421,500.90698388998453,683.5890224640291,681.454530433419,160.0,483.3704333289981,620.4773365008514,0.7790299578949003,deceptive
1783776442177789466,1783776452177789466,2160.304922947368,1767.2202239999997,36.56328947454634,35.46380342241539,1210.786050923596,1769.0243940876326,1757.193561175251,76.0,1250.8891451437885,1466.1663942073676,0.8531699744898591,2221.5345608648645,1851.3735679999995,33.951625940650175,33.959960702435936,1008.8064083921414,1390.6720452860145,1381.2450224624456,74.0,983.3536336283064,1245.7481907837985,0.7893679002733297,1042.712528,757.3800959999999,43.211160288100224,66.381115531166,443.1839584669291,629.9437855952572,627.9664527372561,160.0,445.4375225607309,541.864142412388,0.8220465015042991,1056.740877044586,757.3800959999999,54.84493421181952,67.26372004633055,504.8294326237917,672.443884756668,670.2871044696977,157.0,475.4896308788652,629.8097471061076,0.7549734393023879,1070.3762431999994,799.4567679999999,37.52548130282388,65.7647507343342,526.8720117388133,730.9630502431608,728.5921272294405,155.0,516.868929623742,649.3161697526191,0.7960204191752414,deceptive
1783776443177789466,1783776453177789466,2061.756928,1767.2202239999997,10.968986842363902,38.60450074351101,1022.981257897208,1399.0250977947373,1390.8282075318043,80.0,989.2601337008316,1266.3583623733903,0.7811849813561264,2252.2391593513507,1851.3735679999995,11.140377261775837,32.23477574029205,1058.4609344621283,1518.1531510752657,1508.5914361135387,74.0,1073.4963880050454,1290.1479961752234,0.8320722825501695,1054.8461885569618,736.3417599999999,83.88048761807688,66.2203759703462,464.43933690461614,649.3894795707513,647.3180564955798,158.0,459.18770463568114,570.9475643914302,0.8042554750629801,1057.242961012658,757.3800959999999,83.88048761807688,67.21899124726987,505.42754703730157,672.1173137410392,669.9777352995039,158.0,475.2587102991751,630.8554428319294,0.7533559640315128,1082.2447908571426,862.5717759999998,83.88048761807688,64.95977524394459,522.1022902006162,721.464635321165,719.1030426172105,154.0,510.15253602187533,644.2466902209754,0.7918589940243138,deceptive
1783776444177789466,1783776454177789466,2128.108603076923,1767.2202239999997,21.605580144050112,36.6787030226596,995.7508752999719,1451.117290399453,1441.7336642601367,78.0,1026.0948763385018,1206.898613677743,0.850191445006069,2150.828324571428,1851.3735679999995,25.463719455487627,34.130503782646905,979.819680244785,1468.2450718387176,1458.577221203945,77.0,1038.206046740887,1175.2264947001981,0.8834093269874201,1027.5019409382712,715.303424,83.88048761807688,67.91674099614463,459.0317299571094,633.7744159765152,631.8031066413118,162.0,448.14618727953774,566.571050820848,0.790979677889055,1090.3948092631576,757.3800959999999,83.88048761807688,66.73551667657584,566.9207911209963,762.7921282405111,760.2694843264942,152.0,539.375486514584,705.2201139247877,0.764832817250174,1069.2903935999998,799.4567679999999,83.88048761807688,65.6970094028931,520.1898490095604,719.0472421809313,716.7163704119772,155.0,508.44318093962227,641.8237483166057,0.7921850543442527,deceptive
1783776445177789466,1783776455177789466,2050.3286960987652,1767.2202239999997,47.532276316910234,40.13775865652286,1038.9192218084372,1508.8788083781037,1499.4519605112323,81.0,1066.9384373928344,1260.764642704167,0.8462629750659869,2076.1375627341768,1851.3735679999995,26.406820176061245,35.62961976849864,937.0649978676796,1380.2897569755312,1371.415855818436,79.0,976.0122471597299,1131.3185524663759,0.8627209772454767,1039.372202136646,715.303424,43.211160288100224,67.96045081851912,494.77775756866936,688.953913753647,686.79775957936,161.0,487.1639843402156,609.0531051971125,0.7998711117030608,1115.592830293333,757.3800959999999,43.211160288100224,65.72693960973253,590.317383814069,781.1105958346359,778.485211446443,150.0,552.3285991713357,737.8453676312461,0.7485695830069555,1100.9139772631577,904.6484479999998,89.1230180942067,64.51072419451408,542.4755272093362,745.6875358461006,743.214322445223,152.0,527.2807132430644,670.4826022821451,0.786419679568628,deceptive
1783776446177789466,1783776456177789466,2107.5619127088603,1767.2202239999997,36.56328947454634,38.91776491374329,1030.2053670067758,1523.7423040951392,1513.9433126826802,79.0,1077.4485160064874,1241.8528673304418,0.8676136637044874,2108.094528810126,1851.3735679999995,36.56328947454634,35.584250944751886,1012.9953308151352,1542.9139696682403,1532.9915904163283,79.0,1091.0049307398676,1207.1342928842585,0.9037974790137742,1025.5866126134968,715.303424,95.06455263382047,68.79585474484958,492.80729208467443,671.4929017860693,669.4173861554488,163.0,474.81718437156195,610.7310168776352,0.7774571312900838,1118.1174306133332,757.3800959999999,38.53968350019749,65.04801258541728,559.5569209234516,722.3017592651929,719.881823299989,150.0,510.7444720393911,704.1150031403034,0.7253708126676844,1126.4038815135132,925.6867839999998,67.90325188130035,63.63901093412728,559.0529961885096,776.276531773434,773.6324768323796,148.0,548.9103996929697,688.7882052192471,0.7969218920034308,truth
1783776447177789466,1783776457177789466,2044.713212759493,1767.2202239999997,25.016987535215918,39.302284604829346,962.9320217233377,1418.7758658630937,1409.6852526200314,79.0,1003.2260357356092,1162.4306076198682,0.8630416552690076,2136.200270769231,1851.3735679999995,20.084060415595875,35.13165122588963,1038.97203045145,1604.4467991752435,1594.0528062879584,78.0,1134.5152117498656,1231.0009655865006,0.9216200827343257,1062.9049754904458,715.303424,43.211160288100224,67.63740832474282,572.0695056121488,806.1393814093967,803.56303582928,157.0,570.026623176113,701.4712131925838,0.8126158457476378,1140.0774460952377,757.3800959999999,28.519365790146143,64.69211072284524,591.1557204937491,758.294760446992,755.7532413706997,147.0,536.1953672502966,745.1022988923245,0.7196265104099253,1109.8767190463575,925.6867839999998,28.519365790146143,63.767932748093564,510.70153312165036,710.6766377930816,708.3642409690937,151.0,502.5242698143439,628.7819900326252,0.7992027090156792,truth
1783776448177789466,1783776458177789466,1985.1172754285708,1767.2202239999997,33.951625940650175,41.028414665717925,954.8417263873553,1342.4987578185335,1334.4470931347003,84.0,949.2899753880016,1171.695231796517,0.8101850631691062,2223.331348479999,1851.3735679999995,30.9993106414632,33.167347368087775,1102.5121051288706,1696.6435181530762,1685.1623016519675,75.0,1199.7081369422415,1308.2110215820214,0.9170601050979014,1031.9173941728393,715.303424,95.06455263382047,68.51039800138507,516.891535141394,728.1815706960397,725.916802936444,162.0,514.902126574241,633.8703481204308,0.8123145815245066,1121.950455409396,715.303424,95.06455263382047,65.69462706741271,588.2526403939324,744.452546491513,741.933459192312,149.0,526.4074438957423,743.9959269824276,0.707540760378619,1095.100752842105,883.6101119999998,95.06455263382047,64.60366378609157,506.5185688939676,703.1041982707304,700.7723928946125,152.0,497.1697464779643,624.1259831655019,0.7965855610695315,truth
1783776449177789466,1783776459177789466,1976.6017584761905,1746.1818879999996,129.63348086430068,42.01845468937394,982.886269907584,1370.5822042341574,1362.305286829453,84.0,969.1479707875784,1209.3415334407596,0.8013848395913484,2231.200823351351,1851.3735679999995,44.56150904710335,33.802521393316205,1154.0411063099064,1802.3472876773988,1790.0326306704974,74.0,1274.4519891698699,1360.7012213401097,0.9366141289376548,1050.5936342138364,715.303424,158.44092105636747,67.81003354323607,524.0304474305534,719.5790631515194,717.3291961986217,159.0,508.81923515430236,647.894522771282,0.7853427020464632,1118.5617301476507,715.303424,64.81674043215034,65.52446548948252,576.0775945888573,736.4421567396241,733.9578886368381,149.0,520.7432429822345,726.7351838315938,0.716551578302154,1149.4186054620686,925.6867839999998,41.94024380903844,62.30818106652892,534.6227001799756,745.7001511824473,743.1064036674865,145.0,527.2896336329421,657.7428709055499,0.8016652965116812,truth
1783776450177789466,1783776460177789466,2027.8903383414633,1809.2968959999998,33.16205324435598,41.567913382540794,985.2878108542465,1383.4231394235437,1374.9339054249342,82.0,978.2278831367704,1209.5946613484962,0.8087237108389761,2214.91601408,1851.3735679999995,32.40837021607517,34.66964900126427,1167.6343585286006,1810.3279322797441,1798.055190203029,75.0,1280.0951570864281,1381.0931122972593,0.9268710021710014,1052.4460663144653,715.303424,89.1230180942067,68.20456549213372,560.1136396478623,765.8566394753035,763.4292419742433,159.0,541.5424231897281,693.4122010622898,0.7809819647824179,1165.4943901538459,715.303424,83.88048761807688,64.57431948258794,700.7231729295396,961.9136873401902,958.5206831613434,143.0,680.175691234405,866.4331738153743,0.7850296038864986,1154.06154857931,925.6867839999998,89.1230180942067,62.40808517146386,554.4253501462966,783.6593239204868,780.9335987658579,145.0,554.1308220842415,679.1498021628282,0.8159184031557546,truth
1783776451177789466,1783776461177789466,2004.2863516097557,1809.2968959999998,49.17132032783818,40.180704927848474,930.5266954708889,1351.7519715247827,1343.3900449752068,82.0,955.8329855474586,1129.1375088259447,0.8465160160530981,2209.3057911466667,1809.2968959999998,35.64920723768268,35.001005456257566,1175.3893812333492,1814.5838516768708,1802.2815361215432,75.0,1283.1045465523198,1392.8035598535114,0.9212387041050288,1053.5045989433959,715.303424,95.06455263382047,68.4528824186521,591.2168413698205,814.7211114976835,812.1389623410129,159.0,576.0948227158533,730.1589447912077,0.7889991991820223,1142.9868572054795,757.3800959999999,83.88048761807688,64.93324582383796,677.7822333758314,952.9254109411385,949.6337761971503,146.0,673.8200200414565,831.7215892686239,0.8101509311955958,1112.5072076799995,925.6867839999998,83.88048761807688,63.71655341089344,508.1684390071975,698.174003112699,695.8271931007743,150.0,493.6835720491472,628.1787883639664,0.7858965969463891,truth
1783776452177789466,1783776462177789466,2117.1490025316452,1851.3735679999995,33.951625940650175,39.45492273066737,1026.3060388563754,1481.0608157491606,1471.727622347593,79.0,1047.2681461659113,1248.2879819173281,0.8389635735796661,2272.140288,1851.3735679999995,33.16205324435598,36.11527998419144,1253.9957895102546,1902.6239286232064,1889.178491207991,72.0,1345.3582819772591,1496.668442500373,0.8989020171559633,1048.211935798742,715.303424,89.1230180942067,68.83067790474628,593.6472518804492,809.1545719430657,806.6011461400143,159.0,572.1586848490398,735.629892681318,0.7777806347204878,1177.2515676595742,757.3800959999999,41.94024380903844,63.210317203764056,696.0654582500755,987.8559923821742,984.3217960985235,141.0,698.5196710492017,851.4983141007577,0.8203418133445017,1096.761674105263,883.6101119999998,83.88048761807688,64.26469999693458,497.4260536688477,688.3105672565098,686.0276071788713,152.0,486.70906966943727,613.5328014767281,0.793289402780038,truth
1783776453177789466,1783776463177789466,2208.4716395789474,1851.3735679999995,21.937973684727805,35.90733951305748,1064.7419815110545,1512.3412738071218,1502.280582111392,76.0,1069.386770177317,1302.1355314517139,0.8212561168537411,2397.1681133714283,1914.4885759999997,24.168954059445888,33.1833394067715,1333.681724867253,2004.6353774114662,1990.0718072533618,70.0,1417.4912691741017,1597.7400093248525,0.8871851871401046,1019.0764706341462,715.303424,95.06455263382047,70.05421520428646,575.4001949764008,787.5005970858463,785.1169249039989,164.0,556.847012387857,712.1316389229727,0.7819439299593991,1183.8167221560284,883.6101119999998,52.81364035212249,63.21616654093412,716.1377502312902,997.5365536688682,993.9806701121835,141.0,705.3648615807151,881.440162822342,0.8002413451664834,1115.5928302933332,904.6484479999998,71.29841447536536,63.56826749036685,514.4026786739825,727.6385551167722,725.193584037854,150.0,514.5181565758511,629.9648918240055,0.816741001369316,truth
1783776454177789466,1783776464177789466,2096.9095906835437,1851.3735679999995,28.519365790146143,39.532687697446065,1043.2375912248976,1437.7650147334602,1428.5824988212325,79.0,1016.6533916708062,1288.3700105527048,0.789100478390262,2334.95898140845,1851.3735679999995,26.905062066175606,34.455808136489125,1321.959101036363,1953.3115039583954,1939.410534376958,71.0,1381.199810218675,1594.1440561479023,0.8664209516649413,1018.8199055609755,715.303424,89.1230180942067,69.5109670408191,555.6702520342586,758.3902900282626,756.188851140148,164.0,536.262916865017,688.294922245795,0.7791179326374774,1136.650511889655,757.3800959999999,44.56150904710335,64.40256587901995,667.5227156381318,947.7286451257518,944.4367078591241,145.0,670.1453516931581,816.471527726374,0.8207822672755166,1106.5328775629137,883.6101119999998,43.211160288100224,64.16667448988979,522.6953518689304,715.5099845994422,713.1964873938396,151.0,505.94196211694776,646.8633760040806,0.7821465565763552,truth
1783776455177789466,1783776465177789466,2181.8968993684207,1809.2968959999998,41.94024380903844,37.15418092252108,1148.0215504126886,1597.7036482491337,1587.0214063505498,76.0,1129.747084003449,1413.4152693093276,0.7993030134416939,2406.2977929275357,1851.3735679999995,36.56328947454634,32.99281396919103,1368.9528024568776,1986.3148374711184,1971.657040574466,69.0,1404.5366911472827,1661.8369030442184,0.8451712009610551,996.738409772455,715.303424,95.06455263382047,69.94189424267698,496.2250603197996,687.7177474337057,685.6433667787588,167.0,486.28988275271064,611.7513350577626,0.7949142975009517,1164.0231778461537,925.6867839999998,95.06455263382047,63.082242373552624,676.9563568455471,973.1392940759041,969.7068743677384,143.0,688.1133938801617,824.4936608176889,0.8345890654850244,1109.7020962133333,904.6484479999998,23.376529336185364,63.48535237222379,505.26227204037747,698.54234326933,696.3051667945166,150.0,493.9440278716843,623.36953387197,0.7923775562203403,truth
1783776456177789466,1783776466177789466,2103.8335999999995,1809.2968959999998,44.56150904710335,38.57690645726457,1071.3726561796648,1488.3562068844528,1478.8280751704306,79.0,1052.4267667090846,1319.8021394042637,0.7974125327483802,2368.669123764706,1851.3735679999995,129.63348086430068,34.484790237276755,1361.889797367006,1930.1719036111856,1915.7941846380154,68.0,1364.8376418992164,1666.7623543781467,0.8188555724900712,994.4708046946107,715.303424,29.10139366341443,70.02937470251506,490.46276787224457,656.6252234193475,654.6978859019765,167.0,464.3041481779525,610.9977760435626,0.7599113554626896,1173.6061679424458,925.6867839999998,75.05096260564775,62.77217446518086,685.72030983571,989.0984352465181,985.5235112940591,139.0,699.3982108238162,834.1736977336236,0.8384323465532652,1088.4570677894735,883.6101119999998,41.94024380903844,64.47031758436381,491.06872146094685,688.7721524827615,686.5059848083791,152.0,487.03545971301537,603.0714790848957,0.807591598349247,truth
1783776457177789466,1783776467177789466,2230.063616,1809.2968959999998,35.64920723768268,37.93286697661164,1281.3692179644645,1865.246714503197,1852.4278046075972,74.0,1318.9286004111389,1553.7142011974029,0.848887523454879,2327.8474312112667,1809.2968959999998,33.16205324435598,38.7046118873804,1526.283681784768,2260.3763764487103,2244.1730746525136,71.0,1598.3274638207595,1838.955794401563,0.8691494753091065,969.9651423255813,715.303424,89.1230180942067,70.67966360217173,440.15898478641066,576.4295768248701,574.7416915349814,172.0,407.5972626493576,551.7355340349058,0.7387547792482237,1166.6713599999996,841.5334399999998,89.1230180942067,63.64711017762391,710.1285140790312,1029.2434485429064,1025.6129916803159,143.0,727.7850219565166,862.3975266221848,0.8439089856937383,1058.0808984458597,757.3800959999999,89.1230180942067,65.90074405524472,474.48663335829764,672.9806398347797,670.8202369919666,157.0,475.86917403443437,580.559553425207,0.8196733155571786,truth
1783776458177789466,1783776468177789466,2149.735424,1851.3735679999995,20.084060415595875,39.66081323277186,1166.625813729067,1734.7921341822307,1723.6102318603796,77.0,1226.6832820293384,1403.4442066975375,0.8740520472244939,2262.9180037260267,1809.2968959999998,25.463719455487627,39.37300658566162,1369.742107803416,2039.3742114607787,2025.163720449114,73.0,1442.0553343008846,1647.0048846881639,0.8755622692484707,959.3481215999998,715.303424,40.741951128780215,71.08886645857562,428.06314020073347,565.6172458903827,563.9422186125641,170.0,399.95179012514853,535.2526382792244,0.7472205861720692,1166.807003687943,883.6101119999998,83.88048761807688,63.10445601538554,697.1440018675481,1017.949025295835,1014.3133896755348,141.0,719.7986586889214,844.3722308050015,0.8524660480635239,1049.7863355949362,757.3800959999999,52.81364035212249,66.31193454819801,471.898570249775,666.733594108148,664.6122504086919,158.0,471.4518456387506,578.1376132284349,0.8154664821167233,truth
1783776459177789466,1783776469177789466,2137.4949376,1809.2968959999998,23.376529336185364,41.014057817579314,1226.8522637263864,1846.4241540724604,1833.9165457491852,75.0,1305.6190402912714,1469.0174998397965,0.8887702429914248,2363.718927058823,1809.2968959999998,11.784861896754606,38.02357503560285,1467.6047690384903,2147.238085619295,2131.702225871618,68.0,1518.3266111634239,1776.2515776560303,0.8547925475551339,948.528405942857,715.303424,43.211160288100224,71.50269887954745,422.6177529810287,575.5853956816181,573.9290823409934,175.0,407.0003364384143,523.819523632879,0.7769858091880937,1136.646536767123,757.3800959999999,28.519365790146143,64.75117355514911,688.8954643522426,994.330444250649,990.9095532411507,146.0,703.0977998698662,837.8428632621159,0.8391762115540092,1018.3587180368097,757.3800959999999,83.88048761807688,68.57914469273612,478.67965581498106,685.7367884022271,683.6170405534548,163.0,484.88913318829947,583.7034264420993,0.8307114730230186,truth
1783776460177789466,1783776470177789466,2300.1914026666664,1830.3352319999997,37.52548130282388,38.16507597285009,1385.8427856001144,2117.0216109845396,2102.0608918930616,72.0,1496.960337045637,1649.4469762486685,0.907552869901989,2508.024661333333,1809.2968959999998,37.52548130282388,35.657528143648626,1513.156811779057,2242.7192193449664,2225.4052783554134,66.0,1585.8419682962258,1822.5914791477267,0.8701028104431779,944.5734719999997,715.303424,83.88048761807688,71.0952436477863,369.9404052276579,485.3566845383891,483.96796442586947,176.0,343.1990029313149,463.4857376807652,0.7404737083144074,1123.276561297297,778.4184319999999,41.94024380903844,64.5987650519654,609.3667557982809,841.8866515091983,839.0323152859722,148.0,595.3037602725898,751.9723416768072,0.791656457663236,1034.5601727999997,757.3800959999999,83.88048761807688,67.74438170355336,485.68506423999804,658.5040347239169,656.4364554785737,160.0,465.6326683919834,602.8043399932541,0.7724441207526711,truth
1783776461177789466,1783776471177789466,2371.321014857142,1809.2968959999996,38.53968350019749,37.12480077981358,1476.2602361616641,2215.543074527781,2199.431933550001,70.0,1566.6255320094863,1769.6131755194924,0.8852926468235542,2405.906424358209,1809.2968959999998,37.52548130282388,37.256231970650624,1478.0458259196648,2154.9790665434202,2138.5912502249926,67.0,1523.800311267909,1791.160303470072,0.8507336324480852,963.1688768735631,715.303424,83.88048761807688,70.76985777883179,431.2041684329227,601.8430165668012,600.1059936864264,174.0,425.5672782241528,530.3963759305865,0.8023570626354491,1130.9527109189185,820.4951039999999,83.88048761807688,64.35222446766373,611.2069536560666,847.8559889614507,844.9684158123871,148.0,599.5247192642684,753.2814453380678,0.7958840921605411,1053.5146483037975,757.3800959999999,83.88048761807688,67.05595068620799,502.88103674446586,686.9605069849616,684.7692398168506,158.0,485.75443289641504,622.7358908037329,0.7800328198033953,deceptive
1783776462177789466,1783776472177789466,2390.9450089411757,1872.4119039999996,41.94024380903844,36.333088309519155,1474.9863580116141,2184.4203729796527,2168.1753192110486,68.0,1544.61845869596,1777.1455824350999,0.8691569638203056,2505.8276509538455,1851.3735679999995,22.999488540440442,34.866808473895574,1634.7245801679107,2368.4844234562606,2350.8457779471555,65.0,1674.771396960632,1985.5022764961943,0.8435001141958359,981.037644190476,715.303424,83.88048761807688,70.0950837778378,449.02318160708296,617.552591518808,615.7008554417039,168.0,436.67562520227506,554.8881278403745,0.7869615572814962,1107.090184476821,757.3800959999999,32.40837021607517,65.32852445493523,593.3494171175431,808.2824496879865,805.6336781254498,151.0,571.5420012884497,735.3889664450054,0.7771968677356969,1058.0418851645568,736.3417599999999,52.81364035212249,67.29076348610619,526.5841061679035,711.9795018153008,709.7086314483896,158.0,503.44553379941897,654.1046850359726,0.7696711937963445,deceptive
1783776463177789466,1783776473177789466,2363.6113140869566,1767.2202239999997,35.64920723768268,37.44783147887452,1588.227683864813,2432.222810923682,2414.2754363905783,69.0,1719.8412429607417,1888.3875134873142,0.9107459304180022,2586.7135024761906,1809.2968959999998,37.52548130282388,32.93723607223941,1802.8121140839605,2684.6597646521927,2662.921617051794,63.0,1898.3411247642464,2167.5824146708164,0.8757872881398796,1013.1754739512194,715.303424,22.280754523551675,68.84692547180624,479.29450857883916,656.3744200779486,654.4100408962505,164.0,464.126803434505,593.0763922754775,0.7825750771393429,1076.0769535999996,757.3800959999999,19.533812185031607,66.42208033301795,563.0893849123914,757.6864450285501,755.350958003776,155.0,535.765223292816,700.4406638374375,0.7648973724020679,1049.7863355949366,715.303424,29.10139366341443,67.90889108352454,529.7647058132942,698.9908785054284,696.7761326093271,158.0,494.2611901787306,662.6871245108393,0.7458439614977703,deceptive
1783776464177789466,1783776474177789466,2328.440060394365,1767.2202239999997,29.10139366341443,36.67032340991198,1516.1111133740908,2339.122953943472,2322.3611323153177,71.0,1654.0097027625375,1797.0285940342021,0.9204136808137274,2632.2062352786884,1809.2968959999998,38.53968350019749,31.536304182638524,1677.0166810206078,2477.112108230984,2456.3852747953915,61.0,1751.5827694894338,2022.5599614490081,0.8660226657678717,1019.0764706341462,715.303424,83.88048761807688,69.20523962588646,521.0968310294738,736.4270957479251,734.164641566354,164.0,520.7325932528728,638.3593014752656,0.8157358905078154,1072.9551359999998,757.3800959999999,83.88048761807688,66.87414231164848,577.4925988018392,789.1627149874727,786.5795240468416,154.0,558.0223072272286,715.053113873511,0.7803928077515366,1057.7755771139239,715.303424,83.88048761807688,67.57174039638971,538.2259347905892,716.6507663580052,714.3647931770807,158.0,506.7486166342816,671.548385101199,0.7545973274255094,deceptive
1783776465177789466,1783776475177789466,2282.5153578082186,1809.2968959999998,33.951625940650175,36.32995340025887,1357.869917203771,2075.0521649619336,2060.605699890066,73.0,1467.2834571604099,1615.9087388419093,0.9080237156288812,2688.156416,1767.2202239999997,38.53968350019749,33.92012479678721,1861.5996312154696,2876.8824265864173,2853.2040626423727,62.0,2034.2630725156657,2204.992800392488,0.922571299168672,1014.2017342439025,715.303424,83.88048761807688,69.49513901166092,521.108714397285,741.213555090161,738.9645760107381,164.0,524.1171311116415,636.9923083360061,0.8227997799232071,1066.3043072,757.3800959999999,44.56150904710335,66.9008606519351,558.7543768903985,763.7395633056099,761.2560469596701,155.0,540.0454242738492,691.8008219486256,0.7806371532671494,1046.9201951999999,715.303424,44.56150904710335,67.94695392147253,516.0740281898803,673.5228289837856,671.4132262090474,160.0,476.2525596583822,647.500235408203,0.735524921250629,deceptive
1783776466177789466,1783776476177789466,2465.567377194029,1893.4502399999997,16.390440109279393,34.713170171764055,1634.193183784021,2526.3569902034133,2507.2745574889555,67.0,1786.4041594708697,1935.3435905194965,0.9230423828728791,2780.687651310345,1788.2585599999998,33.16205324435598,31.33862459259774,1879.6332004430853,2850.761117780722,2825.7619071993972,58.0,2015.7925179256906,2243.7317573081755,0.8984106550883134,981.954996260355,715.303424,89.1230180942067,71.2353865730385,506.81346171515617,727.1909115204935,725.0344969758372,169.0,514.2016247533677,617.6715263810519,0.8324839381314594,1022.4889435092023,715.303424,83.88048761807688,68.4918859006856,505.5070423631132,690.2092006828518,688.0866574727183,163.0,488.0516062401912,626.0811086277795,0.7795341522281097,1028.8006036543209,715.303424,83.88048761807688,68.84884155777438,509.6252863417947,648.5645045945918,646.5471917618878,162.0,458.6043592357296,643.6434461741263,0.7125130566647024,deceptive
1783776467177789466,1783776477177789466,2400.809531362318,1809.2968959999998,37.52548130282388,32.08139163519182,1414.4618961382264,2097.814842270699,2082.432718041124,69.0,1483.379100643399,1703.2903842683677,0.8708903157934343,2809.152728949153,1809.2968959999998,36.56328947454634,30.70515813058887,1874.9548130247047,2934.9639555989784,2909.628594765449,59.0,2075.3329155421306,2208.485396511082,0.9397086885069276,992.3081813333331,715.303424,43.211160288100224,70.84629358335164,515.7722806648752,740.1088420694099,737.8896631717399,168.0,523.3359810434033,628.5712501197959,0.8325802062115689,1033.2160568888887,715.303424,29.10139366341443,68.16070637290566,516.5041826579535,694.771755558523,692.6218124930766,162.0,491.27781973231396,642.5544282983763,0.7645699696340501,1039.6335479254658,715.303424,44.56150904710335,68.04313691140112,503.63947912790957,635.9183447318765,633.9402581061217,161.0,449.6621738408345,637.344031572299,0.7055250407406157,deceptive
1783776468177789466,1783776478177789466,2313.031701633803,1809.2968959999998,30.9993106414632,32.30723690613169,1291.4370286341102,1922.8941218220177,1909.1339818022066,71.0,1359.6914730441,1552.8163918893251,0.8756292631543846,2715.3478997333327,1809.2968959999998,19.533812185031607,30.87615348027221,1774.1086409347865,2762.3077827879183,2738.799188514411,60.0,1953.2465649337137,2094.5970657781113,0.9325166146970191,999.2579709700597,715.303424,43.211160288100224,70.23345334815859,510.7943400257192,725.8407646397401,723.6565661943539,167.0,513.246926738389,624.5882737463292,0.8217364115081667,1018.1005789447852,715.303424,89.1230180942067,68.95140669682249,507.4000231559282,688.5612980217978,686.4328681947549,163.0,486.8863630938245,629.5874853536299,0.773341869748805,1049.5351015849053,715.303424,89.1230180942067,67.38818052553111,493.2960760696908,619.7844984317393,617.8453526557453,159.0,438.253821715386,625.0190646751806,0.7011847261701439,deceptive
1783776469177789466,1783776479177789466,2266.95275309589,1809.2968959999998,37.52548130282388,32.454729083049564,1216.9332267586874,1814.0794629395657,1801.4380193570573,73.0,1282.7478898558172,1462.5771372183574,0.8770463158582162,2714.980016262295,1809.2968959999998,35.64920723768268,30.985658645771288,1799.7081209631883,2806.9706632138455,2783.48130936244,61.0,1984.8279905502106,2123.2351648571353,0.9348130736539315,983.3565756235292,715.303424,95.06455263382047,71.37925842175166,515.1453629302327,741.3685351111371,739.1870196621134,170.0,524.2267185354222,627.1703625681255,0.8358601582970668,1017.9418474534159,715.303424,83.88048761807688,68.18126874804372,470.27894456688614,641.9603326777251,639.9511162660646,161.0,453.93450448919145,582.491462789769,0.7792981244997647,1058.0418851645568,757.3800959999999,95.06455263382047,66.10886322965817,470.43930757248995,616.7875902276899,614.8412472149531,158.0,436.13468760170906,589.5078891362248,0.7398284155972102,deceptive
1783776470177789466,1783776480177789466,2258.5098167887318,1809.2968959999998,36.56328947454634,32.46819260505038,1166.6218617329107,1764.089182707665,1751.4498205261345,71.0,1247.3994237104243,1394.2777612117952,0.8946563291852866,2768.6450176,1851.3735679999998,10.25876467271444,29.582376855208224,1824.9568776779543,2872.6722567681463,2848.9956521350064,60.0,2031.2860328872196,2144.265314056725,0.9473109598756879,970.2097741395347,715.303424,41.94024380903844,72.2122279986305,511.3730169869056,724.8583486686945,722.7478773708141,172.0,512.5522537433168,625.8193178513295,0.8190099588218198,1005.2775973012048,715.303424,41.94024380903844,68.71442155914232,448.3719214967899,619.3336720324025,617.4692696214065,166.0,437.935039311277,553.3364353132389,0.7914444293973988,1056.1777288101264,757.3800959999999,41.94024380903844,66.34680969705984,482.2374634312289,611.5253041384638,609.5916864637834,158.0,432.41368942347367,609.6024465770798,0.7093371948414549,deceptive
1783776471177789466,1783776481177789466,2297.269411555555,1809.2968959999998,34.779714378227006,32.44996898963677,1310.2737306692857,1996.1809045948976,1982.1125129260772,72.0,1411.5130541141489,1561.2334699194382,0.9041012003073344,2665.3157476721303,1809.2968959999998,36.56328947454634,29.86909293932488,1606.588599282541,2535.6242502958144,2514.405362075505,61.0,1792.957101925226,1885.4459074757947,0.9509459246834658,988.5513356190474,715.303424,43.211160288100224,70.61096113095866,479.3498787452271,669.1269063431577,667.1285651027866,168.0,473.14417294962266,589.5930022549765,0.80249285717439,1018.8749962208586,715.303424,89.1230180942067,67.99075813196832,456.6568289481643,628.8634642057798,626.9195768383622,163.0,444.6736199803706,564.0953861686536,0.7882950842775052,1069.4487466666662,778.4184319999999,43.211160288100224,65.56267550459646,483.11591276241336,590.3910954527707,588.5787509417178,156.0,417.46954714680845,616.166827191337,0.6775268137198378,deceptive
1783776472177789466,1783776482177789466,2397.7422939701487,1809.2968959999998,35.64920723768268,31.109419968747687,1390.7017155980348,2130.8861212818915,2114.6818133083334,67.0,1506.7640262947252,1653.1586760098646,0.9114454941079921,2723.763234133333,1788.2585599999998,20.084060415595875,29.810298834699562,1697.0026509590357,2707.7394318417973,2684.8104545995798,60.0,1914.6609139415443,1981.583404007072,0.9662277702113371,987.2990537142856,715.303424,95.06455263382047,70.77948684824926,477.06414009068925,687.6160430023351,685.5542211405055,168.0,486.2179668596118,580.4967113364125,0.8375895286990458,1052.4528085605093,715.303424,49.17132032783818,67.266294850316,611.6813177957318,848.3135684049114,845.5964378155422,157.0,599.848276791671,753.9224704806705,0.7956365545242761,1063.2451347692306,883.6101119999998,95.06455263382047,65.2602292366486,451.52181193116735,587.490478602329,585.5922814638328,156.0,415.4185013022371,566.9723341461297,0.7326962468598484,deceptive
1783776473177789466,1783776483177789466,2422.5025129411765,1914.4885759999997,12.619188402719534,31.199697954819754,1290.7900006749687,1904.430358141672,1891.1461346451447,68.0,1346.6356205395016,1557.4221985165318,0.8646567525634298,2573.355828825396,1809.2968959999998,28.519365790146143,29.96793336068558,1492.353524255755,2347.3400563936775,2328.621334644062,63.0,1659.8200716267825,1754.0629257896012,0.9462716800080619,984.9426889467454,715.303424,31.688184211273494,70.1676403219589,429.2815919315618,603.7206702809355,601.930006781177,169.0,426.89497989813725,526.7311538265764,0.8104608523662344,1095.100752842105,757.3800959999999,50.927438910975255,65.82947691273341,663.8959462604008,909.550591419011,906.5338743882206,152.0,643.1493910246174,821.3982501407694,0.7829933785644125,1059.7387454358973,820.4951039999999,89.1230180942067,65.47596430324157,456.2393370629778,587.695850569937,585.7970527680081,156.0,415.5637212131984,574.4232430647724,0.7234451708395427,deceptive
1783776474177789466,1783776484177789466,2478.1275777910446,1935.5269119999998,36.56328947454634,29.817122922439655,1268.9582206221332,1851.5496592806508,1837.4696717786833,67.0,1309.2433197809896,1537.3519103228798,0.8516223975719508,2515.6749653333327,1893.4502399999997,37.52548130282388,29.897493126074938,1321.4304440591,2047.1739996732178,2031.3658822294449,66.0,1447.5706174377194,1563.530137457526,0.9258348034094375,989.6836384191616,715.303424,95.06455263382047,69.67455231780181,421.4717582338204,604.8723190232791,603.0478754009832,167.0,427.7093185333934,513.6236515166198,0.8327290171908168,1094.5507789139072,757.3800959999999,95.06455263382047,65.32045665647571,645.8458344561157,878.1719098692715,875.241977722097,151.0,620.9613125161035,800.8977512440472,0.7753315720409433,1063.7845792820513,862.5717759999998,95.06455263382047,65.05327835407515,444.5221799549823,556.4957144173713,554.7000534775053,156.0,393.50189336577563,563.7180739542011,0.6980473246237363,deceptive
1783776475177789466,1783776485177789466,2407.033148235294,2061.756928,21.937973684727805,31.137483183502074,1137.2106616283359,1686.9097679146141,1674.5120521354343,68.0,1192.8253361422487,1369.3356186745748,0.8710978666404835,2404.468372405797,1893.4502399999997,32.40837021607517,32.14434124600967,1248.013805412499,1935.8445048271183,1921.567597033067,69.0,1368.8487766859696,1475.8737853498978,0.9274836305608918,1004.0102276626503,715.303424,89.1230180942067,69.52089384823655,483.46647373994983,702.1350786701682,700.0042094966093,166.0,496.484475436626,586.712233796341,0.8462146293151358,1068.3698576410256,757.3800959999999,43.211160288100224,66.43399131045398,630.1371416465512,846.167885851053,843.4450786679597,156.0,598.331050107564,784.3121902683658,0.7628735821418698,1075.5340287999998,925.6867839999998,41.94024380903844,64.4223841508419,445.94476927506565,568.0643382820713,566.2360207409741,155.0,401.6821457495015,563.0801020997112,0.7133659034507508,deceptive
1783776476177789466,1783776486177789466,2400.8095313623185,2019.6802559999996,54.84493421181952,32.0937199925518,1150.9580316293584,1776.9997743668498,1763.9096255658903,69.0,1256.5285906217644,1363.8096390696523,0.9213372267107074,2382.5153261449273,1893.4502399999997,14.85383634903445,32.107401299802646,1213.9792558771958,1862.9972437518982,1849.572620523164,69.0,1317.3379843888147,1442.1517204661607,0.9134531170985246,1049.5351015849053,715.303424,44.56150904710335,67.56826558588801,529.3243153581159,779.3473886070965,776.8874545399948,159.0,551.0818233841054,639.15794106504,0.8621997599933253,1096.222699655629,757.3800959999999,83.88048761807688,65.78570341264873,689.8656216642971,935.3151152206528,932.1921845816746,151.0,661.3676605188007,856.2275169126945,0.7724204693905408,1093.1630113684207,925.6867839999998,44.56150904710335,63.79680981657085,469.13294101015794,620.9534600837092,618.909966223344,152.0,439.08040242644086,586.3238292822474,0.7488701302895097,deceptive
1783776477177789466,1783776487177789466,2359.8494070985917,1893.4502399999997,67.90325188130035,33.19944823683173,1182.1062428280343,1791.6862327416425,1778.9740540718253,71.0,1266.9134849301943,1411.4586247981335,0.89759165636994,2392.801332705882,1893.4502399999997,67.90325188130035,31.01795584991246,1229.0143754741193,1810.6033401950747,1797.2074766179094,68.0,1280.2898998909507,1483.7053468808047,0.8629003747829753,1045.6052992,715.303424,44.56150904710335,67.8123723891041,532.8221275730953,789.5418878473798,787.0551355670228,160.0,558.2904229277109,641.8370050851216,0.8698320889953507,1080.6918143999997,757.3800959999999,64.81674043215034,66.40604712539378,679.342354088651,921.8285906758408,918.8307661818328,155.0,651.8312475585252,842.9531899640504,0.7732709897999485,1110.1553725033111,925.6867839999998,29.10139366341443,62.8601249947166,479.2767743602759,635.2704983653182,633.1851799792264,151.0,449.20407728187405,598.7656481120571,0.7502168481078376,truth
1783776478177789466,1783776488177789466,2356.9034388405794,1809.2968959999998,36.56328947454634,32.88478463324734,1200.8122450045853,1768.7741734636663,1755.7207472733353,69.0,1250.7122124437892,1449.7446590099532,0.8627120677222667,2367.431574588235,1851.3735679999995,20.084060415595875,31.54147774308358,1240.0103386297258,1822.2143889237773,1808.6906917425151,68.0,1288.5001511837038,1498.377442441323,0.8599302917189785,1041.3976319999997,715.303424,89.1230180942067,67.68112454309502,518.7345871227542,764.3879037512836,762.0190223844021,160.0,540.5038701995027,626.1780313173787,0.863179228856638,1103.4676895364237,841.5334399999998,43.211160288100224,65.24807767490545,688.6906653355222,935.6760492988764,932.5529682539545,151.0,661.6228794530738,854.2348902571706,0.7745210210904517,1110.8241407999997,925.6867839999998,89.1230180942067,63.239694015118026,489.99136052642734,643.1197250617223,640.9669299511999,150.0,454.75431870597185,613.8259701171108,0.7408521972754102,truth
1783776479177789466,1783776489177789466,2355.108373633803,1809.2968959999998,29.10139366341443,33.59153051926574,1225.8065363529233,1678.221632892517,1666.902443770927,71.0,1186.6818969522594,1516.9365071927023,0.7822884420840895,2411.364570352941,1851.3735679999995,32.40837021607517,29.513967523538867,1240.726992360329,1770.2312913515123,1756.9929435981717,68.0,1251.7425503832733,1515.050241055723,0.8262053075619653,1057.0088813248406,757.3800959999999,44.56150904710335,66.63164947236852,521.4041185019989,771.3003041745546,768.8242606537137,157.0,545.3916754130744,628.4890371173972,0.8677823210959195,1082.718023947712,757.3800959999999,79.22046052818374,66.18974677207993,681.8226199437227,929.8236354200336,926.7619835695044,153.0,657.4845979130339,844.7610146588278,0.778308404985487,1102.021258105263,925.6867839999998,83.88048761807688,63.43427781319206,472.3276814687715,614.4092353822077,612.3967473586108,152.0,434.4529367624008,593.1375896304273,0.7324656949041117,truth
1783776480177789466,1783776490177789466,2284.7632895999996,1767.2202239999997,37.52548130282388,34.16890365264548,1155.5046852898972,1606.0132093989598,1594.3334247978987,70.0,1135.6228310411752,1423.222592661746,0.7979235552446546,2376.129777371428,1851.3735679999995,40.741951128780215,30.0008309351317,1198.0098190599863,1715.9997764415798,1703.5235416840858,70.0,1213.3950784364406,1460.921368500507,0.8305683691120708,1084.6431004444444,757.3800959999999,89.1230180942067,65.20079578927427,529.4507342575054,792.6322776046518,790.0330475139322,153.0,560.4756584815873,635.2713421337678,0.8822618325565347,1154.1864888888886,925.6867839999998,27.960162539358965,64.53759455627473,788.0258478454159,1053.995578934234,1050.3384763269485,144.0,745.2874212050378,981.9586567884339,0.7589804479575074,1104.4420415570469,925.6867839999998,41.94024380903844,63.331395116004714,478.0469410539866,627.7063056903336,625.6007516413654,149.0,443.85538534719086,598.7937492587041,0.7412491962327192,truth
1783776481177789466,1783776491177789466,2368.9166336,1767.2202239999997,38.53968350019749,34.08476724065896,1396.4140324332955,1978.526283541887,1964.9909634526264,70.0,1399.0293518482863,1709.1818909310723,0.8185374296741283,2385.376037647058,1851.3735679999995,34.779714378227006,29.50523049077796,1115.4318225488744,1574.2280827869654,1562.436450940313,68.0,1113.147352472961,1367.0507625361342,0.8142692158759819,1064.3240237948717,757.3800959999999,25.463719455487627,66.50108774857408,533.6730933660542,783.0302315980872,780.5230887672209,156.0,553.6859866370802,645.2362786349261,0.8581135391340187,1154.3517325241376,757.3800959999999,20.084060415595875,65.55765405339703,847.7752421841332,1105.0719093726966,1101.3412050661163,145.0,781.4038408161997,1064.025254070399,0.7343846753890109,1087.9432315816991,925.6867839999998,95.06455263382047,64.49909322937799,480.873531035521,632.8541652863238,630.780878400697,153.0,447.4954717761117,601.957313329673,0.7434006728829833,truth
1783776482177789466,1783776492177789466,2319.550622647888,1767.2202239999997,19.533812185031607,34.57463440424916,1311.2216279413256,1886.5569414762358,1873.1445566338778,71.0,1333.997206412399,1596.505572118105,0.8355731603508075,2282.515357808219,1851.3735679999995,47.532276316910234,31.34647065251266,1083.4863509771067,1489.1093379148947,1478.748771632307,73.0,1052.9593107678322,1339.2250335328406,0.7862452421383979,1078.5201151999997,757.3800959999999,83.88048761807688,66.52834743585045,621.7174313591851,905.7327872663981,902.8007027568073,155.0,640.4497958190627,753.642593295646,0.8498057322084251,1102.5748985263156,757.3800959999999,83.88048761807688,66.65205793866221,717.6245917949121,906.3028496017168,903.3011597293983,152.0,640.8528907620657,908.088044023585,0.7057166923182411,1087.9432315816991,925.6867839999998,83.88048761807688,64.71904009321878,487.79956192529664,643.3146259223746,641.2561537312737,153.0,454.89213442619825,610.2732160660596,0.7453909535118087,truth
1783776483177789466,1783776493177789466,2346.2189358873234,1767.2202239999997,36.56328947454634,34.768053763434516,1424.4139149965479,2088.4528439851024,2073.481749959313,71.0,1476.7591681701967,1722.6436607970377,0.8572632876882533,2448.491045647058,1872.4119039999996,38.53968350019749,28.934036987663674,1118.294637914391,1606.9545316357662,1594.9173731918877,68.0,1136.2884463781027,1362.2004542981094,0.834156561020668,1071.1906304,757.3800959999999,41.94024380903844,66.55804317416423,562.625538094168,789.5098616297005,786.9560507183305,155.0,558.267776972014,690.8426281208094,0.808096886682546,1054.8461885569618,757.3800959999999,29.10139366341443,67.1116903455436,569.0761996896932,738.5922565114982,736.28624273477,158.0,522.2635931111544,715.063501908635,0.730373724455433,1087.6266071578946,925.6867839999998,43.211160288100224,64.62901046118616,480.7429935964838,663.4429611825597,661.2424809542712,152.0,469.12501678267137,593.4547253991217,0.7904984099118367,truth
1783776484177789466,1783776494177789466,2331.403206309859,1767.2202239999997,28.519365790146143,34.95844816430124,1428.8834502552272,2121.5307676480506,2106.3266683961047,71.0,1500.1487922998383,1719.9397167654547,0.8722100999685276,2474.987527641791,1851.3735679999995,89.1230180942067,29.768053314023632,1305.2387564963267,1872.1545068065593,1859.9097686601287,67.0,1323.8131471918746,1590.9292248812096,0.8321005903268388,1045.1737435897433,715.303424,83.88048761807688,67.5537423465522,519.2511617411257,712.4444519946816,710.14299225929,156.0,503.774303224173,642.1442701173287,0.7845188794289583,1072.4156914871792,757.3800959999999,32.40837021607517,67.17372436871952,628.9743988101346,841.0708572728211,838.3853744711778,156.0,594.7269066359946,783.8160128363869,0.7587583015609269,1064.2449968917197,883.6101119999998,83.88048761807688,65.65365481351486,479.91961428680656,665.7981507362522,663.6765912928795,157.0,470.79038728706706,591.4591092995703,0.7959812942007031,truth
1783776485177789466,1783776495177789466,2271.5558897777773,1788.2585599999998,44.56150904710335,35.166483293737365,1349.4594650536076,2014.2951433258818,2000.0652827553736,72.0,1424.3217551568598,1621.0291374737774,0.8786527781829587,2365.3100617142854,1872.4119039999996,40.741951128780215,30.37254133272175,1181.6456764309114,1720.5384821827474,1708.03619473375,70.0,1216.6044280438305,1432.65831309765,0.8491937099875025,1026.619168981595,715.303424,43.211160288100224,68.28678660434201,497.0569017938572,680.4049846398765,678.31290712717,163.0,481.11897859198535,615.1368883924283,0.7821331929049492,1079.8774272,757.3800959999999,41.94024380903844,67.02226705791354,635.8010391231368,858.7584264082533,855.9657522895515,155.0,607.2339067143647,790.012287226171,0.7686385598462483,1061.296949808917,757.3800959999999,37.52548130282388,66.43299576366952,510.4549679457786,743.1410285016416,740.7749787386979,157.0,525.4800606314561,618.9215633183517,0.8490252913698654,truth
1783776486177789466,1783776496177789466,2307.698038985915,1809.2968959999998,25.016987535215918,36.69208532586787,1492.0937425152192,2238.973569621999,2222.9468599498578,71.0,1583.1933939771661,1788.6969591128836,0.8851099041183375,2484.4362239999996,1977.6035839999997,22.280754523551675,28.49356274599043,1212.9232077531865,1751.395181217232,1737.9401337340862,66.0,1238.423409176147,1474.9641167210896,0.8396295171771481,1021.3855562926828,715.303424,83.88048761807688,68.44033626463424,484.68804881269864,642.2725232304205,640.2993310919438,164.0,454.15525654602465,605.5712268590121,0.7499617491763032,1051.117875848101,757.3800959999999,83.88048761807688,67.80934112260177,574.9383368946038,774.0833290327442,771.6143435895165,158.0,547.359571162511,715.0572930826327,0.7654765239898862,1029.5798012839507,715.303424,95.06455263382047,67.96085882480713,486.48924743549946,684.3765781986083,682.2480747346357,162.0,483.9273193294814,596.8674480519174,0.8107785420514135,truth
1783776487177789466,1783776497177789466,2285.973714410959,1809.2968959999998,25.016987535215918,35.799073006323354,1312.1966718014214,1986.438611206839,1972.6237121150557,73.0,1404.6242123951436,1567.5572148888589,0.8960592947127181,2352.0859647999996,1893.4502399999997,36.56328947454634,30.4326763982988,1184.124094413925,1801.017614792907,1787.9195470040565,70.0,1273.5117684564857,1411.872384369286,0.9020020382546055,1028.8006036543209,715.303424,52.81364035212249,68.14863747342865,489.97762650031643,657.7201353170115,655.6756466834449,162.0,465.0783678055925,609.9239336519023,0.7625186390390503,1052.9888171210187,757.3800959999999,52.81364035212249,67.51141756840114,570.8143845380604,761.8984836912086,759.4526232413499,157.0,538.7435843938018,711.7132837936838,0.7569671617229171,1027.2422083950617,715.303424,25.92669617286013,67.841135605654,474.7396220746774,671.0023526084738,668.9581835282097,162.0,474.4703137215787,581.5448204856514,0.8158791842137737,truth
1783776488177789466,1783776498177789466,2340.4386541449276,1809.2968959999998,20.084060415595875,36.07246973075248,1453.3767461131856,2230.442672525081,2214.0757788668056,69.0,1577.1611387903306,1726.5252107715937,0.9134886238269805,2373.000545882352,1914.4885759999997,22.280754523551675,30.173453252293402,1179.382892156531,1808.5361756570337,1795.0521759558862,68.0,1278.8281938282735,1401.4946442844384,0.9124745492560945,1042.8623262784809,715.303424,44.56150904710335,68.60761179464866,585.8743559321988,818.7390831289233,816.1318689761877,158.0,578.9359577029181,720.3569256398108,0.80367931104253,1067.6616192,715.303424,44.56150904710335,68.04685030957341,638.1450146813493,854.5734666828577,851.798740649504,155.0,604.2746933135448,794.9114208738793,0.7601786531752689,1013.1754739512193,715.303424,83.88048761807688,68.7467988424956,475.3121648842031,683.5450482292192,681.4451073722674,164.0,483.3393388493666,578.82195011432,0.835039754027823,truth
1783776489177789466,1783776499177789466,2413.0056681739125,1809.2968959999998,37.52548130282388,33.64045196508633,1484.951798471371,2254.651518644213,2238.0117966267444,69.0,1594.2793780458705,1771.8070775159338,0.8998041594240856,2449.728594823529,1872.4119039999996,36.56328947454634,30.455062215276506,1336.74015794921,2009.1465036271993,1994.0969007381964,68.0,1420.681117112035,1601.4309480863694,0.8871322980298829,1050.3189516962025,715.303424,25.92669617286013,68.0341790279507,535.3777244864216,700.0816848407743,697.8757869481601,158.0,495.0325067354149,671.364300801095,0.7373530379031549,1058.3489027261144,715.303424,37.52548130282388,67.88315741580935,593.5294279496705,800.6131729172997,798.0430251140003,157.0,566.1190036771006,737.7730006732082,0.7673349433504946,999.701170891566,715.303424,67.90325188130035,68.7396214678275,443.7571742897041,652.1326865815655,650.1595749866849,166.0,461.1274449152265,536.2104057551877,0.8599748157922897,truth
1783776490177789466,1783776500177789466,2424.9776112941163,1830.3352319999997,22.999488540440442,35.57151616730026,1552.2371841571044,2337.9989350581914,2320.7333805915578,68.0,1653.2149013865737,1858.0421945361313,0.8897617644250034,2495.2741546666666,1872.4119039999996,22.63441729376678,30.432856762771365,1455.1467815455978,2190.896453796253,2174.0247269705947,66.0,1549.19773935689,1742.0957189175267,0.889272456463818,1060.2781899487177,715.303424,83.88048761807688,68.6272211671104,617.7776997884479,844.0431925518395,841.3162420508409,156.0,596.8286650677486,764.9812710050722,0.780187290446476,1040.2729410817608,715.303424,83.88048761807688,68.05387450168777,553.7138170685627,767.9224822441865,765.4886757341015,159.0,543.0031946204705,682.474723151896,0.7956385433774024,1021.0086273580243,715.303424,83.88048761807688,67.92106160504652,464.22629740106703,669.5181882524877,667.4359051758695,162.0,473.42085104106553,564.755220690508,0.838276183551219,truth
1783776491177789466,1783776501177789466,2555.6723239384614,1893.4502399999997,17.82460361884134,32.91913959256751,1621.7315867084399,2456.9364136008267,2437.7873965299887,65.0,1737.3163990013006,1936.7221131428032,0.8970395841570072,2443.5408489411757,1851.3735679999995,33.951625940650175,31.013552063960574,1424.5599296228313,2126.786805255358,2110.8555936331477,68.0,1503.865372134137,1711.1214034725704,0.8788770738780863,1055.9114207594935,715.303424,95.06455263382047,67.76879527835078,534.3636677834021,716.0613573345835,713.780484353917,158.0,506.33184151692757,665.5096483349423,0.760818183152917,1039.479041610063,715.303424,40.741951128780215,67.8462939418345,540.2057916385425,759.5765439638509,757.1877379805061,159.0,537.1017250670807,662.876657534893,0.8102589206632432,1028.281138567901,715.303424,29.10139366341443,67.56787797336655,466.4275654284115,668.3575035306876,666.3311101391522,162.0,472.6001230034611,568.712501578352,0.8310000601215034,deceptive
1783776492177789466,1783776502177789466,2447.8722710588227,1830.3352319999997,20.084060415595875,33.5874257979833,1566.5903880392093,2364.8159959040077,2347.1585643217113,68.0,1672.1774269621428,1873.585390147141,0.8925013163295532,2484.407678089552,1935.5269119999998,20.084060415595875,29.734921184698326,1411.7018051543394,2150.3046013557737,2134.026897909678,67.0,1520.4949652353032,1682.216247602872,0.90386415385179,1041.1346528,715.303424,89.1230180942067,67.87658199376463,501.60672255350124,670.984312958744,668.8710236405348,160.0,474.4575577629245,625.0308961663823,0.7590945674413904,1051.1127871592355,715.303424,89.1230180942067,67.08759757489291,539.4857151871228,760.6324019938571,758.2337354122234,157.0,537.8483294400684,661.3994716063709,0.8131973981378784,1051.1229005283017,757.3800959999999,49.17132032783818,66.54082797380073,493.68722376659105,694.8199188929527,692.620908122487,159.0,491.31187635269384,605.6075213354982,0.8112710939739367,deceptive
1783776493177789466,1783776503177789466,2332.249819428571,1788.2585599999998,33.951625940650175,34.432921065748964,1334.5010526704732,1957.1764058000733,1942.9430679314382,70.0,1383.932708519546,1613.738283707144,0.8575942719412472,2427.4527096470583,1914.4885759999997,35.64920723768268,31.894981420828184,1419.4486146713864,2118.684244389924,2103.4441977439183,68.0,1498.1359964012117,1705.1284431175588,0.8786059504479944,1028.281138567901,715.303424,45.998977080880884,68.5415176907584,497.8124242715536,669.6240158336832,667.5512260286987,162.0,473.49568244136543,619.3023000707614,0.7645630936414477,1074.7196415999997,757.3800959999999,95.06455263382047,66.19144617843484,555.427774614346,799.3769676132807,796.7775482189824,155.0,565.24487452369,676.2019975853653,0.8359112758348989,1034.667977937888,715.303424,95.06455263382047,67.49522122835535,487.06069839159545,694.1225323227832,691.9501993992726,161.0,490.81874957981853,594.98296224839,0.8249290832212341,deceptive
1783776494177789466,1783776504177789466,2322.982933333333,1809.2968959999998,40.741951128780215,35.39803035839343,1333.1076073694983,1968.6531825389536,1954.7434989310866,72.0,1392.0480151777722,1607.9343728438264,0.8657368352140933,2400.199724521739,1935.5269119999998,29.7076726980689,31.346889920619166,1364.2119193641627,2067.560303406397,2052.314779675003,69.0,1461.9859110507791,1628.9404285654578,0.8975072908825102,1056.1777288101262,715.303424,83.88048761807688,67.50198567314447,522.9387545665335,711.7403603546321,709.4702528693502,158.0,503.27643525091736,648.2949150778207,0.7763078554927498,1062.9049754904458,799.4567679999999,43.211160288100224,65.7258182917413,487.5186104341311,690.7373440364369,688.5199357867539,157.0,488.4250599869498,596.7154023717038,0.8185226291221185,1039.0525945477707,757.3800959999999,28.519365790146143,66.48959989826075,442.34833870631104,603.6787816934899,601.8148493954362,157.0,426.86536019390013,547.9389451806949,0.7790381829003448,deceptive
1783776495177789466,1783776505177789466,2288.503438222222,1788.2585599999998,37.52548130282388,36.83960511449851,1343.051878032777,1958.2546042557974,1944.4152659988133,72.0,1384.6951099590533,1627.5399904157443,0.8507902221224942,2425.596385882353,1935.5269119999998,35.64920723768268,30.762430345198936,1362.2914916904044,2016.1432147451862,2001.6557484677428,68.0,1425.628538989567,1641.7880043030436,0.86833899093736,1052.710699471698,715.303424,83.88048761807688,67.64782561187069,519.0253763444545,705.7281769610407,703.5042187357142,159.0,499.0251796035717,643.6315853342008,0.7753273626937631,1066.121026853503,799.4567679999999,43.211160288100224,65.85817555441291,498.6449604946181,706.4258060211645,704.1579805667931,157.0,499.51847784273804,610.3558293325259,0.8184053528070706,1025.5866126134968,757.3800959999999,32.40837021607517,67.41854552840474,452.5784099502646,600.2106611674745,598.3963852618688,163.0,424.4130286519824,565.3239998986822,0.7507429876107259,deceptive
1783776496177789466,1783776506177789466,2286.1658453333325,1830.3352319999997,29.7076726980689,35.02916629106207,1284.7585630731135,1867.6535520252057,1854.4620917539764,72.0,1320.6304915441654,1558.5816254470892,0.8473284106408825,2392.801332705882,1893.4502399999997,13.71123355295488,32.88603208879864,1362.9147677968901,2063.6682297073417,2048.616558780293,68.0,1459.2337993452993,1628.0023611720724,0.8963339575839012,1051.3875336855344,757.3800959999999,50.927438910975255,67.19399453370237,499.0490673434321,694.614089476152,692.4186511468206,159.0,491.1663329763063,614.3921873754605,0.7994345355764595,1085.5234925714283,883.6101119999998,83.88048761807688,64.87835302113571,508.7642886345476,728.3576893435021,725.97353339072,154.0,515.0266612641551,620.5287840811119,0.8299802917713385,1051.3875336855344,757.3800959999999,31.688184211273494,66.47073945003702,488.2213243169447,666.5432967543504,664.4479257241697,159.0,471.3172850894385,604.6901118949631,0.7794360711678183,deceptive
1783776497177789466,1783776507177789466,2239.1612748108105,1872.4119039999996,142.59682895073072,36.43589014621779,1254.8092329674857,1815.0822926037454,1802.8109052004315,74.0,1283.4569975117336,1524.9463892379897,0.8416407334510116,2433.1292939130435,1851.3735679999995,21.283108798616524,32.816766750968604,1474.6968123892123,2252.623386850506,2236.1496572714705,69.0,1592.8452723014002,1755.2445260405589,0.9074777039154224,1052.9820322025312,736.3417599999999,83.88048761807688,67.32907867961605,509.21110177000975,706.9062876417456,704.7737557540842,158.0,499.85822965488643,627.4255074945518,0.7966813967301559,1074.7196415999997,883.6101119999998,83.88048761807688,65.0901323441433,493.6661582704792,700.2288082126652,697.9521166400335,155.0,495.13653866935,604.0136220983226,0.8197439934372054,1059.6889241273884,757.3800959999999,83.88048761807688,66.38761899771447,504.173767652741,680.6843776005459,678.4994038129348,157.0,481.3165392490905,626.5377646247348,0.7682163253756545,deceptive
1783776498177789466,1783776508177789466,2123.7930469743583,1809.2968959999998,33.951625940650175,40.76190756602142,1216.6989632706984,1793.3249962326997,1781.642308074162,78.0,1268.0722657074816,1468.5738316202328,0.8634719197661694,2366.5122523428563,1893.4502399999997,33.951625940650175,33.114671647810724,1403.252612982493,2157.5622064604504,2141.8709839402964,70.0,1525.6268670199943,1665.6731741244341,0.9159220972757423,1063.7845792820513,757.3800959999999,41.94024380903844,66.72416312342067,504.3948475193815,724.0204729861199,721.6862494057408,156.0,511.9597861663769,614.6355937321227,0.8329484842518001,1074.7196415999997,925.6867839999998,44.56150904710335,64.86087109772916,475.5657286029262,672.4660799989491,670.2917221554678,155.0,475.50532528519227,582.4713445792642,0.816358314808883,1067.830413128205,757.3800959999999,44.56150904710335,65.94630247676065,507.02725873757714,677.1011295435212,674.9212594677219,156.0,478.7828002492948,632.0892320698131,0.7574607760386813,deceptive
1783776499177789466,1783776509177789466,2090.6846399999995,1809.2968959999998,39.61023026409187,40.90834378803205,1135.8944410740633,1663.7222939076667,1653.310214081317,80.0,1176.4293160333493,1374.2341120473507,0.8560617915972779,2297.269411555555,1935.5269119999998,13.580650376260069,32.962422737257356,1138.2007271477946,1678.8061978557523,1667.0938062793552,72.0,1187.0952468018074,1373.4643162710179,0.864307308707367,1026.3610298895703,715.303424,83.88048761807688,68.07470840811487,471.7407378964352,700.0803160199805,697.9271037260131,163.0,495.0315388329494,567.935326742832,0.8716336447531916,1057.0088813248406,883.6101119999998,83.88048761807688,65.46025831869377,438.03469916942777,617.2705192637178,615.2889073465318,157.0,436.4761699979163,537.1155107282577,0.8126299860641005,1068.2650610955411,757.3800959999999,83.88048761807688,66.05279409091534,510.23372153332986,686.6770398930681,684.4779278273429,157.0,485.55399139349385,634.6617696855756,0.7650594609378272,deceptive
1783776500177789466,1783776510177789466,2035.0741603902436,1767.2202239999997,39.61023026409187,41.30090732817378,1102.4423568927195,1598.5690115088441,1588.6897647991032,82.0,1130.3589882325798,1338.6196544961,0.8444213294164455,2257.154076054794,1851.3735679999995,35.64920723768268,33.14924266343721,1070.967942920434,1620.1231096940903,1608.8329156311154,73.0,1145.6000372217281,1279.7440942959024,0.895178998932612,1011.3701887999998,715.303424,61.9986212829264,68.54323488856224,455.4107536686498,671.3906638222231,669.3430206318407,165.0,474.7448912140316,549.6422047543147,0.8637344205149575,1058.3489027261148,883.6101119999998,95.06455263382047,65.7246145933189,456.4774613623345,642.4325031440208,640.3701709872541,157.0,454.26837942778513,559.9673786834642,0.8112407913757632,1030.0992663703703,715.303424,52.81364035212249,67.99875126194198,491.34854056715693,659.5631449405554,657.5179062819504,162.0,466.38157240819237,611.6297009580071,0.7625227677427864,deceptive
1783776501177789466,1783776511177789466,2058.6011776,1767.2202239999997,12.619188402719534,41.36777410068904,1140.1712830036538,1643.5943188263525,1633.3587841508033,80.0,1162.1966883617981,1387.310541282243,0.8377336247208357,2173.4003643733326,1809.2968959999998,20.084060415595875,35.43603085544289,1059.1584765286816,1588.6527152803071,1578.0988349310196,75.0,1123.3471079251267,1269.9129869259714,0.8845858885531749,1005.2775973012048,715.303424,43.211160288100224,68.70841280830626,446.1648395863641,661.0767284728997,659.0763906594293,166.0,467.45183758780536,537.4667598411497,0.8697316234513972,1050.5852597468354,757.3800959999999,41.94024380903844,66.55000550912418,479.12271034742395,685.5644111274571,683.392784707889,158.0,484.7672440483871,584.4805408995143,0.8293984318149094,1054.8461885569618,736.3417599999999,43.211160288100224,66.6588367044575,497.543342922735,664.2352718948792,662.1303789741124,158.0,469.6852650601593,620.3197821012518,0.7571663496997664,deceptive
1783776502177789466,1783776512177789466,2062.2895441012656,1767.2202239999997,35.64920723768268,40.88603798517362,1162.0557651202482,1747.3188586544145,1736.0819648739305,79.0,1235.541013849675,1391.9290226322855,0.8876465636970021,2361.172086724638,1767.2202239999997,38.53968350019749,32.19001893834458,1308.3735065550184,2006.610898662444,1991.8041626051997,69.0,1418.8881736470462,1554.6898856853813,0.9126502891099293,1008.3192844337347,715.303424,52.81364035212249,68.67297707006198,454.3593783291573,661.3504225423713,659.3693713869264,166.0,467.6453685202993,550.9435488342461,0.8488081392545582,1049.5351015849055,757.3800959999999,95.06455263382047,67.04924058349907,500.4450166453167,699.0783654374956,696.8627841161215,159.0,494.32305278166046,615.396448734125,0.803259514737998,1052.7106994716978,757.3800959999999,83.88048761807688,65.984953252748,462.07946696782,616.8905592567094,614.9367168409456,159.0,436.2074977003809,576.104484500438,0.7571673358499073,deceptive
1783776503177789466,1783776513177789466,2000.6944405853656,1767.2202239999997,21.937973684727805,43.0542090548285,1045.051011365831,1542.3856998017548,1532.847907124175,82.0,1090.6313875349792,1260.763586472601,0.8650562240509957,2342.663160788732,1935.5269119999998,25.92669617286013,32.64683572328093,1276.3630856071065,1958.1821604459897,1944.145203054168,71.0,1384.6438844498832,1516.438626924531,0.9130893000648902,1009.5851178666665,715.303424,29.10139366341443,68.37922239452217,444.60610105966333,642.6093710148606,640.6484847728058,165.0,454.39344389863,540.4743002862601,0.8407308981351421,1067.830413128205,757.3800959999999,45.998977080880884,66.01862384244228,504.203413823884,697.184914321779,694.9331399190966,156.0,492.98418065789207,622.0333301631441,0.792536600134585,1072.4156914871794,778.4184319999999,61.9986212829264,65.4080911480394,476.65435157884815,630.6012758219002,628.5658968556467,156.0,445.9024383585541,595.8055467105457,0.7484026303890428,deceptive
1783776504177789466,1783776514177789466,2114.4859220253156,1809.2968959999998,29.7076726980689,38.06915205165616,1131.6755278830838,1690.6724146164524,1679.8068264374738,79.0,1195.485929140328,1358.9649360570918,0.8797032928670826,2352.7378569014077,1767.2202239999997,33.951625940650175,34.60142720846851,1396.987993412323,2143.6723780101765,2128.3061167498436,71.0,1515.805275133288,1659.6138380404718,0.913348177985199,984.4447401656804,715.303424,50.927438910975255,68.70223031318993,393.8112262843902,572.3500398627959,570.6449541016617,169.0,404.71259439937376,477.7849117149833,0.8470602241219373,1080.3322148571426,862.5717759999998,50.927438910975255,65.67934520047332,509.7527841135416,710.1219229957484,707.798313577716,154.0,502.13202721952496,627.3974142783974,0.800341244308527,1052.7157241518983,757.3800959999999,50.927438910975255,66.23348032016011,451.9455005291213,605.9301369834177,603.9978756853736,158.0,428.4573087862683,562.7802752148036,0.7613225403515315,deceptive
1783776505177789466,1783776515177789466,2140.5158268717946,1830.3352319999997,21.605580144050112,37.49983795266548,1128.6151535446227,1691.6739333229218,1680.65393844834,78.0,1196.1941098091575,1353.552420650949,0.8837442064001371,2411.7860544927535,1809.2968959999998,22.280754523551675,33.02447761965681,1431.3435961425187,2163.157595166696,2147.3657186350392,69.0,1529.5834043175553,1711.0453778478682,0.8939467205957136,1001.6300456585365,715.303424,50.927438910975255,67.82215465211905,403.5550639008032,579.3105842277345,577.5378044802147,164.0,409.6344425205716,491.7450466963475,0.8330220004707456,1088.7682643660128,883.6101119999998,83.88048761807688,65.04850092713205,502.7080448692386,687.5640651105543,685.2986089843472,153.0,486.18121293986184,622.2898607921129,0.7812777349786829,1077.0535131428571,904.6484479999998,83.88048761807688,65.168866055788,453.93275477427983,611.846314179487,609.8437865808385,154.0,432.64067780031013,564.3765708019575,0.7665815701483573,deceptive
1783776506177789466,1783776516177789466,2069.1203456,1767.2202239999997,27.960162539358965,39.011071384210794,1133.9628765525893,1671.8507144878483,1661.2479769864588,80.0,1182.176977345932,1368.5658215502326,0.863807175899534,2255.6507814054053,1788.2585599999998,41.94024380903844,33.919451784369656,1244.4365714408184,1851.9829739431698,1839.2558628492823,74.0,1309.5497195172445,1496.5909684128496,0.875021797643237,993.2110240958082,715.303424,89.1230180942067,68.11534907602592,389.84636866935193,535.3782127137192,533.7632519860936,167.0,378.56956470940474,481.97813712576885,0.785449661611144,1098.4519273112583,925.6867839999998,89.1230180942067,65.00906074550204,523.2225239820563,726.2765787678981,723.8655226070855,151.0,513.5550938637464,644.7124956037429,0.7965645111047929,1072.4086857142856,925.6867839999998,43.211160288100224,64.99201946679862,437.80880561012304,595.0332760932113,593.1061931858934,154.0,420.75206455715687,542.9889046978493,0.7748815139994212,truth
1783776507177789466,1783776517177789466,2024.8749068641969,1767.2202239999997,26.406820176061245,37.151577199449655,925.6720263514997,1338.4570576790536,1330.0738179783684,81.0,946.4320618118528,1125.109140006722,0.8411913370521532,2214.1427130810807,1788.2585599999998,25.92669617286013,34.04877957019878,1180.5672933944052,1770.2183921563924,1758.0703180491394,74.0,1251.733429274932,1415.6482541517835,0.8842121802530215,990.6914628982034,757.3800959999999,26.406820176061245,68.30006059925532,406.7626033196206,549.9063112814702,548.3112710882634,167.0,388.842481724408,505.2844675248902,0.7695516223349053,1115.1730048859058,925.6867839999998,54.84493421181952,64.68923222663929,544.0280957528598,755.7007889607779,753.1511455684107,149.0,534.3611524221901,670.1956560050058,0.7973211220249969,1086.018155084967,925.6867839999998,52.81364035212249,64.82233120932011,458.8944821055871,632.0814153368574,630.0048507805687,153.0,446.94905504668253,566.8214555839861,0.7885182373454774,truth
1783776508177789466,1783776518177789466,2080.6914303999997,1767.2202239999997,20.666207094308803,36.65219000508807,992.5575354166433,1495.6114095498572,1486.1956338458463,80.0,1057.5569697126748,1187.908898077119,0.8902677397438085,2281.3625722739725,1809.2968959999998,12.963348086430065,33.62599305661711,1231.481604518599,1825.4026867218404,1813.0440368927796,73.0,1290.7546181771563,1483.2633422162692,0.8702127137103859,987.7999664761903,757.3800959999999,89.1230180942067,68.43394351182992,402.32115378337966,548.2917612544311,546.6477623610195,168.0,387.70082245172375,498.56660307155363,0.777630952541122,1133.780257088435,925.6867839999998,43.211160288100224,63.42882426087073,543.5225203709546,757.5009411261468,754.9023574634217,147.0,535.6340522254901,668.8658620000275,0.8008093739809793,1075.2625663999997,883.6101119999998,83.88048761807688,65.52933879046785,469.4319430259217,645.2970398973019,643.2115644111018,155.0,456.29391279098826,580.1987856253488,0.7864441017386591,truth
1783776509177789466,1783776519177789466,2110.306934153846,1788.2585599999998,37.52548130282388,34.76318233044554,960.1204368597146,1420.3914706692015,1411.1397003984905,78.0,1004.3684408497255,1157.2746104809887,0.8678739097475645,2352.0859648000005,1767.2202239999997,36.56328947454634,32.63160955835329,1314.3835404311071,1953.9144954370056,1939.704882305491,70.0,1381.626189582198,1581.38000456649,0.8736838619386419,1014.9714294634146,757.3800959999999,83.88048761807688,67.65717174757036,447.94313952543206,619.4423353994737,617.5458104916695,164.0,438.0118759149996,552.6109940767673,0.7926224425678946,1123.276561297297,925.6867839999998,52.81364035212249,64.11112045815726,545.2359466521956,763.4002341991873,760.7992575385028,148.0,539.8054823616438,669.9772351726499,0.8057072002193307,1095.100752842105,925.6867839999998,44.56150904710335,64.6462901042078,480.57681524846936,663.691039121796,661.490675143374,152.0,469.30043437576813,593.116094753869,0.7912454889131245,truth
1783776510177789466,1783776520177789466,2092.2071511578943,1830.3352319999997,35.64920723768268,34.92598062187784,928.6045681157372,1381.6785404152924,1372.447906403581,76.0,976.9942653475845,1116.8500304829633,0.8747765937071241,2441.6845251764707,1788.2585599999998,8.802273392020416,32.3316666662611,1446.5684585809393,2099.1518093055533,2084.470869286032,68.0,1484.324479099967,1755.9928903884477,0.8452907111552233,1032.436859259259,757.3800959999999,89.1230180942067,67.1165091088238,472.3127054731123,649.3061897761395,647.2866227454472,162.0,459.1288098571075,583.7456222381971,0.7865220609222149,1107.6474913907282,925.6867839999998,43.211160288100224,64.65874597546431,528.0591528605629,738.2357462836493,735.7845341687389,151.0,522.0115023114801,649.1879031273506,0.8040992442970359,1125.266674162162,925.6867839999998,44.56150904710335,63.981710837101694,530.3310047608537,733.5657247496204,731.0663453379266,148.0,518.7092984164809,654.1959042132979,0.7928959736307947,truth
1783776511177789466,1783776521177789466,2272.716680767123,1809.2968959999998,37.52548130282388,34.55717285628579,1371.3253902417475,2056.693119979473,2042.3626793633239,73.0,1454.3016519572031,1644.253631408682,0.8844752562360217,2477.4995677611937,1767.2202239999997,35.64920723768268,32.45608427939583,1578.3727719192254,2394.761484076065,2376.5504478725748,67.0,1693.3520847145458,1883.8260463398444,0.89888983539888,1046.3942367999996,757.3800959999999,57.038731580292286,66.87109705669539,506.8377005732121,688.1053944154678,685.9413949728149,160.0,486.5639905622212,628.8057339025825,0.7737906388709903,1099.8066964210525,925.6867839999998,71.29841447536536,64.21007936412468,479.9201254923508,671.9474459702473,669.7257728013741,152.0,475.1385956465431,589.7188407781313,0.8057036044831125,1155.9396835555553,925.6867839999998,26.905062066175606,63.89089936897663,616.0502714206854,805.536292914616,802.7408921355769,144.0,569.600175211798,772.5371797100414,0.7373110190315859,truth
1783776512177789466,1783776522177789466,2249.0277498591545,1851.3735679999995,22.280754523551675,33.428300687378346,1299.5939845169623,1911.128578658423,1897.4666399609714,71.0,1351.3719776887792,1569.9636741479428,0.8607663985742864,2497.412316553846,1767.2202239999997,20.97012190451922,32.430938571259446,1596.06374078977,2425.126716844823,2406.1260311212122,65.0,1714.8235467176426,1903.8195899661898,0.9007279659035845,1072.1459692307692,799.4567679999999,43.211160288100224,65.61269450063308,515.87399575688,706.1724104558148,703.8908012301094,156.0,499.3393001201567,638.4215618806237,0.7821466722540403,1115.0318079999997,925.6867839999998,43.211160288100224,63.75643376198115,513.8483118197677,767.6735954985065,765.1065141712197,150.0,542.8272051148526,617.049015730233,0.879714886948577,1153.4811806896548,925.6867839999998,89.1230180942067,63.85449788106441,600.5368393929053,817.5358161459898,814.705619071789,145.0,578.0851194597079,744.444617326009,0.7765320696872625,truth
1783776513177789466,1783776523177789466,2317.13895111111,1809.2968959999996,35.64920723768268,32.99528398388528,1360.9747379320738,2002.9200896230398,1988.8003189855592,72.0,1416.278377547219,1643.6490663230586,0.861667132337147,2491.3157884179104,1809.2968959999998,33.16205324435598,32.344825057544604,1574.9191980789326,2351.344548192328,2333.4655187796116,67.0,1662.651674932814,1891.7017906839149,0.878918486582237,1079.3345023999998,799.4567679999999,95.06455263382047,65.74557032749257,539.6031812701832,738.9007570788572,736.556405613071,155.0,522.4817359543338,667.719704869399,0.7824866214731933,1107.9261448476818,883.6101119999998,71.29841447536536,65.15473221563374,580.428778647275,866.1194963532351,863.2659328191537,151.0,612.4389691892499,697.3194308730677,0.8782760698672276,1119.864939243243,925.6867839999998,43.211160288100224,65.22853250639838,588.6341512299884,781.1436849923945,778.4822522453379,148.0,552.3519967391705,735.1421385267093,0.7513540141313806,truth
1783776514177789466,1783776524177789466,2471.8474774925367,1767.2202239999997,25.463719455487627,32.85675943374772,1685.6364292922538,2538.0627171633896,2518.76553331201,67.0,1794.6813583829874,2017.9939926695956,0.8893392967978121,2547.904322953846,1809.2968959999998,24.168954059445888,31.200747740326367,1598.91406834647,2441.0514510237595,2422.048425760055,65.0,1726.084034244162,1903.5149984374223,0.9067877246363114,1083.0644662857142,778.4184319999999,89.1230180942067,65.48993688957331,538.0449747613264,740.3636152561966,737.9409798458615,154.0,523.5161328914446,664.7933656656228,0.7874869996141964,1103.4676895364237,757.3800959999999,44.56150904710335,65.34589053029562,591.9351278726535,892.7207255047632,889.7400578112403,151.0,631.2488787101926,708.1926417174861,0.8913519309933918,1127.2567870270266,925.6867839999998,89.1230180942067,64.77485154954293,591.1806973710692,781.0483184778965,778.412629900053,148.0,552.2845624300709,739.2429336415735,0.7470948145685616,truth
1783776515177789466,1783776525177789466,2402.0829515294113,1851.3735679999998,30.339750840581004,32.39228714320783,1415.5800954048834,2080.46035107501,2065.0289553582033,68.0,1471.1076222348847,1710.4546749078766,0.8600681700695267,2654.169754412697,1809.2968959999998,10.5627280704245,29.45114763535242,1629.522643864338,2451.765677398996,2432.113360741949,63.0,1733.6601363692594,1951.383960043565,0.8884259437750811,1068.1001353846152,757.3800959999999,44.56150904710335,66.5947769013527,544.6940967193527,761.1740051776449,758.7286667632427,156.0,538.2313007240369,669.7289387970918,0.8036554336307472,1074.9911039999997,757.3800959999999,44.56150904710335,66.3840926453124,562.3793595230661,857.2412219019616,854.4534381878473,155.0,606.1610811195189,669.944370752644,0.904793155345916,1105.3431006315789,925.6867839999998,37.52548130282388,65.20926689026051,566.5075534325462,735.3528846794278,732.9203061624613,152.0,519.9730113219126,711.8115269793468,0.7304925413732442,truth
1783776516177789466,1783776526177789466,2442.922074352941,1767.2202239999997,101.85487782195051,34.19824420976141,1541.937442379331,2288.513343900613,2271.4249417473507,68.0,1618.223304308025,1856.2916853554652,0.8717505535764699,2719.118705311476,1809.2968959999998,20.370975564390108,28.842268673598138,1639.8239449041523,2576.5600314424146,2555.0970293359146,61.0,1821.9030703671554,1928.3100740429165,0.9448185200564414,1067.4610482547769,757.3800959999999,83.88048761807688,66.76830148677195,547.6662048674193,764.1140496176223,761.6610764393397,157.0,540.3102260845347,673.7276702808069,0.8019712562189046,1083.3376914285714,778.4184319999999,83.88048761807688,65.62687784331325,558.3668635477924,837.1898128261571,834.4495945591241,154.0,591.9825937896721,669.5710663861036,0.8841221246085168,1090.4183299346403,883.6101119999998,83.88048761807688,65.90688386229573,555.3430227943284,711.6467798982734,709.3021896599355,153.0,503.21026387563955,700.1438859961489,0.7187240707810842,truth
1783776517177789466,1783776527177789466,2504.503999044776,1767.2202239999997,37.52548130282388,34.44941120660186,1709.9369875228845,2565.4004983944146,2545.8994484595087,67.0,1814.0120888740391,2049.9875788177587,0.8848893074367757,2749.4690916721306,1809.2968959999998,40.741951128780215,27.614842421092177,1616.2752852067847,2564.117678828431,2542.6637313709207,61.0,1813.1049984598937,1892.3574523383315,0.9581197232158714,1046.9201951999999,715.303424,83.88048761807688,67.51418186332407,517.7542315143869,714.9339653298325,712.6834275096502,160.0,505.5346549853126,639.0275775008048,0.7910999036417579,1095.6543932631578,862.5717759999998,83.88048761807688,64.99696484613764,581.8413788866112,870.0597237447017,867.1827205549339,152.0,615.2251306971729,698.4467049451014,0.8808476385403381,1086.3431679999997,799.4567679999998,83.88048761807688,65.92073837984569,554.7052289151991,722.364366618169,720.0116460469195,154.0,510.7887421232327,696.3786415677965,0.7334928322518123,truth
1783776518177789466,1783776528177789466,2395.364827428571,1767.2202239999997,25.92669617286013,36.86723987462764,1677.9874735964142,2444.053211508507,2426.290994045191,70.0,1728.2065994384247,2034.1914604878498,0.8495791241911702,2664.188009650794,1809.2968959999998,20.370975564390108,28.98535533500335,1581.419692065936,2475.6300270667757,2455.6576330441935,63.0,1750.5347798479534,1862.683676091885,0.9397917651379045,1023.263360785276,715.303424,64.81674043215034,68.82254074059743,509.46024172641717,704.1765408048626,702.0021464441468,163.0,497.92800715560395,628.5963137379214,0.7921268328709982,1055.6451127088606,736.3417599999999,89.1230180942067,67.09743977219284,569.7547388318961,840.1499332227129,837.4700651846209,158.0,594.0757149952053,687.588501408562,0.8639989089087576,1056.4728727643312,757.3800959999999,89.1230180942067,67.06396114889831,526.4561713804743,676.2146368719848,674.0438517300893,157.0,478.1559552697792,663.3216730887036,0.7208507948237011,truth
1783776519177789466,1783776529177789466,2319.476543999999,1809.2968959999996,27.960162539358965,36.111578217647896,1369.1149086902533,1926.309827168531,1912.6984548192265,72.0,1362.1067414571546,1679.667788235021,0.8109381813462313,2623.6840959999995,1893.4502399999997,24.168954059445888,29.097468591529676,1608.0018402382134,2470.7881350875346,2450.4520844501803,62.0,1747.1110451956592,1909.2253230817537,0.9150889756561476,1007.2744772682923,715.303424,44.56150904710335,69.5693531581155,525.2830901406172,721.0778417497995,718.8629607384887,164.0,509.87903166464343,649.5046852099794,0.7850274882925654,1077.5999634285713,757.3800959999999,83.88048761807688,66.17983236839684,582.1239782313406,852.1585002836259,849.3691477950883,154.0,602.5670541963103,704.4097704194307,0.8554212043900532,1049.0058352704402,757.3800959999999,44.56150904710335,67.61886129114076,533.83265585072,684.9600014480119,682.8039746435304,159.0,484.3398618654366,672.8016483402455,0.7198850702287504,truth
1783776520177789466,1783776530177789466,2311.8793671111107,1767.2202239999997,35.64920723768268,36.14332366071598,1303.3706736232168,1786.291493058828,1773.6709309548003,72.0,1263.09882791774,1612.402214454722,0.7833646075367686,2558.2616575999996,1893.4502399999997,36.56328947454634,29.381293261876202,1496.7412132221527,2254.2525911985012,2236.5727754035984,65.0,1593.9972937438065,1791.662588905666,0.8896749330003078,1008.8200874666665,715.303424,83.88048761807688,70.40117061783195,574.9947906374443,771.3624572307639,769.0073177159284,165.0,545.4356242605913,715.882677827957,0.7619064424292049,1053.5146483037975,736.3417599999999,83.88048761807688,67.50921674634435,576.0437782680438,843.7017389419607,841.0106692777642,158.0,596.5872209047427,696.9180101627624,0.8560364522153936,1021.1982480490794,757.3800959999999,83.88048761807688,68.30467834741332,487.27596386932146,638.5547835923684,636.5810965869769,163.0,451.526417637272,610.6862345078514,0.7393754634098714,truth
1783776521177789466,1783776531177789466,2234.6124454054057,1725.1435519999998,19.533812185031607,38.682161952185815,1317.2738691251602,1760.860837111022,1749.0458780521826,74.0,1245.1166386470243,1641.7256685092389,0.7584194256873905,2441.7029960597015,1851.3735679999995,18.28164473727317,31.776079065683245,1425.9108947911511,2115.8381828490956,2099.7494736539047,67.0,1496.1235269860179,1716.7559394880977,0.8714829479093761,1007.2900266666666,715.303424,36.56328947454634,70.97219762301464,601.9568111114766,830.4423377437339,827.9085779862728,165.0,587.2114084030035,743.1657862197884,0.7901486038397063,1046.5906389873417,715.303424,64.81674043215034,68.4151601501256,573.7064992916374,825.8845792135827,823.2512625196891,158.0,583.9885864393227,698.3959909057554,0.83618547936099,1000.9685405301204,757.3800959999999,44.56150904710335,68.55891361983716,424.9487652556283,583.7203064906398,581.9630721006846,166.0,412.7525870358213,525.3385167034534,0.7856887966751059,truth
1783776522177789466,1783776532177789466,2081.1769304615386,1725.1435519999998,22.280754523551675,40.40082460464038,1195.5186618194127,1581.4639814614288,1571.2071676126395,78.0,1118.2639054936528,1494.4138183087039,0.7482960153294373,2330.071937855072,1725.1435519999998,52.81364035212249,32.989217547041704,1405.6954147306208,2053.586314434664,2038.4463604655448,69.0,1452.1048086886406,1702.2499846617848,0.853050269803442,987.4324328520709,715.303424,83.88048761807688,71.67263860289115,585.053021610159,797.5381152065228,795.1611049066971,169.0,563.9446095172702,724.9533191099695,0.7779047211062213,1069.718468923077,715.303424,43.211160288100224,67.84267382480529,603.3658362212143,834.9634342492493,832.2799894501329,156.0,590.4083064004523,744.183902341703,0.7933634475868542,1017.5370801951218,757.3800959999999,43.211160288100224,67.71360917170834,436.3599496278494,602.77281256155,600.9389354084798,164.0,426.2247432771598,538.5037097250104,0.791498248906797,truth
1783776523177789466,1783776533177789466,2079.6395136,1725.1435519999998,20.97012190451922,38.93955122622362,1085.5161005024222,1446.6224116533087,1437.459616420929,80.0,1022.9165170964918,1354.072120836095,0.7554372483977252,2343.255789971831,1767.2202239999997,20.666207094308803,32.49328649823302,1353.9573973261984,2008.9824823698216,1994.6422158638761,71.0,1420.5651365686845,1630.1529418835103,0.8714305879344891,986.685509680473,715.303424,57.038731580292286,71.77805024439004,581.5458117353945,790.6224870930971,788.2660911196803,169.0,559.0545219821026,721.1935128796148,0.7751796320933114,1028.5116511999997,715.303424,64.81674043215034,68.68771421466536,488.11738334623607,630.6424948535789,628.6576068122254,160.0,445.931584615368,614.0762743916803,0.7261827287776577,1023.2633607852757,757.3800959999999,178.2460361884134,68.6016691652996,483.89201604284875,676.7944690537092,674.7671516929817,163.0,478.5659585374268,594.8027219546008,0.8045793014611559,truth
1783776524177789466,1783776534177789466,2056.901927384615,1704.1052159999997,24.168954059445888,40.449296030029494,1138.4049484823677,1526.4628681954723,1516.550276876716,78.0,1079.3722453304856,1417.5363951106854,0.7614423510065892,2419.7323067076927,1851.3735679999995,22.280754523551675,30.823253576948535,1365.0444101578137,2018.7090692004554,2002.9280374417299,65.0,1427.4428720744254,1645.5685664499504,0.8674466085323348,991.556812190476,715.303424,83.88048761807688,71.61545730995323,587.1922492885778,806.6152144779634,804.1967305845355,168.0,570.3630879656093,725.9011290749767,0.7857310935615005,1037.1899647999999,715.303424,29.10139366341443,68.51844502112752,506.44381601089884,653.2820958489446,651.3021463954184,160.0,461.9402000025488,637.3980729200277,0.7247279520101513,1061.0289455286622,841.5334399999998,44.56150904710335,66.83363041635833,527.0538091208537,740.212702071796,737.8506586315797,157.0,523.4094211553845,646.987422088324,0.8089947397523454,truth
1783776525177789466,1783776535177789466,2310.710570666666,1683.0668799999996,36.56328947454634,39.56253935504084,1670.3775235123503,2395.462578975109,2378.5339671403804,72.0,1693.8478336719152,2036.114412377896,0.8319020892807976,2446.0159472941177,1830.3352319999997,37.52548130282388,30.971161059676707,1471.0750150581162,2201.5345024256903,2185.0441873178656,68.0,1556.7199756813573,1765.3427028522792,0.8818231005040277,985.689612118343,715.303424,83.88048761807688,72.02179150833754,598.9139863868832,796.0745698143302,793.701922095618,169.0,562.9097266458765,747.6377772714457,0.7529177146455245,1091.7789103157893,715.303424,83.88048761807688,66.39457682528966,594.1625161915499,739.4329161964315,736.9803956220392,152.0,522.8580292750408,754.5647300964032,0.6929266747045552,1091.7789103157893,757.3800959999999,83.88048761807688,66.49438809113498,607.8382016796575,836.5569290578815,833.7860432068704,152.0,591.5350773854216,750.9844771722193,0.7876794998650392,truth
1783776526177789466,1783776536177789466,2310.06855571831,1683.0668799999996,12.187763158182113,37.42941424599414,1567.3958478797063,2225.7798410361406,2210.321548135052,71.0,1573.8640190249707,1917.0121316022937,0.8209984658310379,2398.99831402985,1809.2968959999998,39.61023026409187,31.39221750806852,1453.58865936762,2151.347734040946,2134.988294461209,67.0,1521.232571430666,1751.7892890109622,0.8683878711745832,1019.1331353128832,715.303424,25.92669617286013,70.80941161019284,628.686896991605,830.9534105912147,828.4318386080059,163.0,587.5727914791374,786.0493217696794,0.7475011748070719,1092.6002047152315,715.303424,95.06455263382047,67.7860341380661,654.4046197250078,868.8671455613152,865.9824796260935,151.0,614.381850576605,817.1647835509661,0.7518457267661808,1097.0790946133334,757.3800959999999,64.81674043215034,66.63798705136352,624.9939319264785,865.2983744616001,862.3909561569916,150.0,611.858348331494,770.7460740596524,0.7938520466393434,truth
