window_start_ns,window_end_ns,red_Mean_NN,red_Median_NN,red_Heart_Rate,red_Mean_HR,red_SDNN,red_SDSD,red_RMSSD,red_NN_Count,red_SD1,red_SD2,red_SD1_SD2,infrared_Mean_NN,infrared_Median_NN,infrared_Heart_Rate,infrared_Mean_HR,infrared_SDNN,infrared_SDSD,infrared_RMSSD,infrared_NN_Count,infrared_SD1,infrared_SD2,infrared_SD1_SD2,ppg0_Mean_NN,ppg0_Median_NN,ppg0_Heart_Rate,ppg0_Mean_HR,ppg0_SDNN,ppg0_SDSD,ppg0_RMSSD,ppg0_NN_Count,ppg0_SD1,ppg0_SD2,ppg0_SD1_SD2,ppg1_Mean_NN,ppg1_Median_NN,ppg1_Heart_Rate,ppg1_Mean_HR,ppg1_SDNN,ppg1_SDSD,ppg1_RMSSD,ppg1_NN_Count,ppg1_SD1,ppg1_SD2,ppg1_SD1_SD2,ppg2_Mean_NN,ppg2_Median_NN,ppg2_Heart_Rate,ppg2_Mean_HR,ppg2_SDNN,ppg2_SDSD,ppg2_RMSSD,ppg2_NN_Count,ppg2_SD1,ppg2_SD2,ppg2_SD1_SD2,label
1784137615156686800,1784137625156686800,1478.9563817142857,1341.579264,84.18524309465492,65.5961218993476,974.7572838486058,1482.2225838851068,1475.5416764009346,112.0,1048.0896402930055,1162.35002378245,0.9016988160609097,2129.4303983376626,1676.97408,22.361705197017713,56.86396593696241,1991.1957824468132,2599.9033879699045,2582.877848739756,77.0,1838.4093160633988,2497.968550917646,0.7359617539572492,983.3166196363635,712.713984,26.020893320166067,70.37593539421917,466.5074351764795,565.5653681745883,557.8656931962986,33.0,399.91510704051785,596.0640298913029,0.6709264223064184,879.2783014054054,712.713984,42.09262154732746,74.83257114231972,318.1353494874524,351.3583409918997,346.49292615972956,37.0,248.44786554182755,414.1944353089041,0.5998339049546535,849.5197642105263,712.713984,42.09262154732746,78.99152740523951,397.6916061137142,505.69266081775015,498.96786480880974,38.0,357.57870966049984,502.3802945432645,0.7117689796841853,deceptive
1784137616156686800,1784137626156686800,1478.9563817142857,1341.579264,89.44682078807085,65.50156935728408,982.282052155067,1496.6892242382107,1489.932127768452,112.0,1058.319099787672,1170.3573819497383,0.904270025643434,2233.8881072432428,1676.97408,5.938378143606365,58.17768415852945,2212.717611161715,2792.049537923868,2775.456646031171,74.0,1974.2771616747336,2800.598739186889,0.7049482434059564,951.1073581176471,712.713984,84.18524309465492,70.82987234777372,388.020257563294,549.8327218223952,544.3712038659978,51.0,388.79044611887224,474.91097593371563,0.8186596347967678,913.0192213333333,712.713984,42.09262154732746,74.59702307548883,429.9183012863149,469.97180978068354,465.5338016262879,54.0,332.3202536624355,560.7504935929068,0.5926347947251084,943.2979200000001,712.713984,84.18524309465492,71.59586688498244,408.0372288134261,529.0213394729366,523.8324005266225,52.0,374.07457653370403,512.8575492191233,0.7293927467837217,deceptive
1784137617156686800,1784137627156686800,1501.3450378378382,1341.579264,29.815606929356953,66.09743988096089,1030.4821436625757,1585.34019947479,1578.1912909077225,111.0,1121.0048055362581,1222.8904324579298,0.9166845825125246,2105.239296,1676.97408,29.815606929356953,63.69329568358702,2288.9163490615583,3005.8020906617194,2986.484355273969,79.0,2125.4230412116035,2866.9782967343854,0.7413460519155496,969.8089072941177,712.713984,42.09262154732746,70.0294669556155,407.3680730111585,576.8787847626679,572.5742887194996,68.0,407.91490062833725,498.69851688202965,0.8179589207096682,873.0463031351352,712.713984,44.723410394035426,76.08092729408501,372.4287243076412,489.53841670951647,486.17690449667293,74.0,346.155934106625,466.36288876819833,0.7422458828594289,928.2405823098592,712.713984,27.002813822813845,73.11562235864993,417.2200256110225,534.4480427121769,530.9209436508689,71.0,377.91183519365785,526.0574321801806,0.718385126938419,deceptive
1784137618156686800,1784137628156686800,1497.945766054054,1341.579264,35.77872831522834,64.30162346082733,1000.4343217072991,1504.6406230565242,1497.9377949719305,111.0,1063.94158781202,1198.2286146482672,0.8879287097682388,2277.6983566027398,1676.97408,44.723410394035426,65.23129048454346,2554.0428444386766,3451.020860985949,3426.982772487049,73.0,2440.2402528194025,3173.150399321905,0.7690276052912198,1162.5023890285715,733.67616,84.18524309465492,66.99431718841379,930.2809981061196,1277.3073094227668,1268.017678429822,70.0,903.1926601519822,1150.2030169489337,0.7852462972561319,1114.7283182465753,712.713984,84.18524309465492,68.53901886654883,907.6575306943353,1166.2119963075313,1158.127288991738,73.0,824.6364108901563,1143.5347747092683,0.7211292818793477,1251.925649723077,712.713984,84.18524309465492,65.49992431862965,1011.0550158654561,1290.5533865787777,1280.4312429523682,65.0,912.5590511331177,1275.9633534357117,0.7151922104000271,deceptive
1784137619156686800,1784137629156686800,1499.3672797090908,1341.579264,46.166101051907546,64.71763242307779,1038.098031881359,1543.5682460443838,1536.4737019159513,110.0,1091.467574002209,1248.8572036236844,0.8739730778148265,2208.57486336,1341.579264,22.361705197017713,65.20962943479933,2554.720019792062,3506.9792747639144,3483.3915859299987,75.0,2479.8088266662444,3158.870502354726,0.785030226727469,1154.6459768470588,712.713984,79.50828514495187,67.40270408790965,900.0506323099132,1259.3710061627369,1251.8524055849323,85.0,890.5097784873965,1106.2000039107365,0.8050169728251557,1066.7924786086958,712.713984,79.50828514495187,70.34314385691715,840.0373636389658,1071.41294852372,1065.5352994354848,92.0,757.6033613521957,1060.3509409874332,0.7144836035574137,1182.4687714698796,712.713984,79.50828514495187,67.13712430845648,921.91173268561,1163.269502120066,1156.1547502460198,83.0,822.5557532965976,1166.8519623697346,0.7049358271858983,deceptive
1784137620156686800,1784137630156686800,1496.6993663999995,1341.579264,29.815606929356953,63.589936010336835,1009.6968539156984,1461.0909075322434,1454.4545858598826,110.0,1033.147288646056,1226.8980453143488,0.8420808009204619,2168.3274854399997,1341.579264,12.665036571762245,65.38627792319767,2519.956982738959,3503.684711830712,3480.1136800676954,75.0,2477.4792188751308,3103.452069829759,0.7982978834955985,1123.2405595247524,712.713984,95.40994217394226,68.69845583466656,859.7726236485105,1184.0014144873478,1178.0668313272704,101.0,837.2154291184677,1062.0513600452082,0.7883003220134571,1063.6363377777777,712.713984,84.18524309465492,70.09781619034854,799.9394341388911,1013.1665588351551,1008.4430200936418,108.0,716.4169442237774,1011.5233944874587,0.7082554374204934,1172.1706579591837,712.713984,84.18524309465492,68.92275268771739,1018.3197252565601,1332.472936938177,1325.5867257910934,98.0,942.2006494565398,1276.7455086175275,0.7379706003248555,deceptive
1784137621156686800,1784137631156686800,1470.3469165714284,1341.579264,159.01657028990374,62.94763158772424,997.6296675569076,1426.6538448068875,1420.2418649631218,112.0,1008.7966080688105,1217.2487867949771,0.8287513768857209,2161.862309052632,1676.97408,178.8936415761417,61.725072116171354,2452.2875357780163,3406.342170292621,3383.6042999566384,76.0,2408.647647655614,3021.0323684108334,0.7972928965745062,1126.9409148717948,712.713984,84.18524309465492,67.85300291457322,823.02330673086,1139.8892654867093,1134.9653147546892,117.0,806.023429427405,1014.8388258494258,0.7942378719623373,1063.3232825806451,712.713984,84.18524309465492,69.57700403347106,764.5213688481565,969.0788465257093,965.1488561278387,124.0,685.2422238827666,966.5440466709306,0.7089611965879337,1160.5254252743362,712.713984,44.723410394035426,68.65932801831534,975.300747083146,1278.0810989358808,1272.374975585729,113.0,903.7398119639162,1222.3134911542122,0.7393682705003348,deceptive
1784137622156686800,1784137632156686800,1504.7443096216218,1341.579264,43.36815553361012,60.62299069292495,993.6135966925506,1432.4706878073575,1425.9715357684995,111.0,1012.9097371995405,1208.9428816978048,0.8378474719806771,2145.6668356923074,1488.314496,57.24596530436536,61.35488824153323,2554.8872097590265,3561.103180746912,3537.912991178262,78.0,2518.0802076111254,3143.9677706998023,0.8009243068832849,1113.4982743880598,712.713984,84.18524309465492,69.06557947963806,828.7933092731174,1159.3176241050967,1154.9510638658642,134.0,819.7613535537907,1018.7209434391732,0.8046966726592462,1043.4179634125874,712.713984,84.18524309465492,70.8482228001319,750.9734379562933,957.9824535978746,954.6165108997743,143.0,677.3958891967842,947.8869203029644,0.7146378694415093,1138.998234870229,712.713984,84.18524309465492,69.22481600272673,934.2230124115605,1230.9696037545373,1226.225965286047,131.0,870.4269542493506,1169.0696012200303,0.7445467347204828,deceptive
1784137623156686800,1784137633156686800,1539.943559111111,1341.579264,19.877071286237967,60.059094110065736,1020.6206449985513,1454.8618938004074,1448.1281398690019,108.0,1028.742710796171,1246.6664427529886,0.825194836017579,2159.9208361558444,1341.579264,6.142270955404007,64.9455732736628,2677.425820026191,3609.232641249288,3586.9894220838846,77.0,2552.112875507205,3328.750212740664,0.7666880097338306,1114.5603239183674,712.713984,89.44682078807085,69.19929562034109,825.4325658450241,1156.8805398643094,1152.9118485253316,147.0,818.0380747608071,1013.9451147058288,0.8067873328608529,1036.0555488,712.713984,31.11193766541595,70.83330929742274,722.3717648692591,915.4539089774472,912.5760677526282,160.0,647.3236669016853,913.3060650708142,0.7087697012627354,1137.7803306666667,712.713984,43.36815553361012,69.22414542481351,916.9443292617312,1221.4850558296587,1217.215674857259,144.0,863.7203660951802,1143.92629593287,0.7550489652751776,deceptive
1784137624156686800,1784137634156686800,1535.5283690467293,1341.579264,35.77872831522834,61.38777348899485,1021.3878510578518,1448.7034766791444,1441.9093235748062,107.0,1024.3880522883505,1249.712304389131,0.8196991008975296,1972.4409417142854,1341.579264,43.36815553361012,69.74276828217727,2485.573721164006,3497.4585581759893,3477.173419966755,84.0,2473.076663405167,3049.278497471583,0.8110366650523414,1111.845145945946,712.713984,65.05223330041517,69.13763195160185,819.9359201504473,1148.656195060863,1144.7665500495718,148.0,812.2225847794739,1007.3415819338525,0.8063030449117397,1037.1036576000001,712.713984,84.18524309465492,70.8555928605933,723.2603191077628,937.9091728712135,934.9715174450665,160.0,663.2019362743009,909.006366453357,0.7295899795090501,1146.2234293333333,712.713984,84.18524309465492,69.72891353548283,960.9358948258588,1309.8625774549068,1305.2746033673204,144.0,926.212710940854,1190.7395160047997,0.7778466226169323,deceptive
1784137625156686800,1784137635156686800,1557.8619023551405,1341.579264,29.207125155288445,60.78620329798191,1028.2582936089384,1476.9274114207453,1470.0337066153527,107.0,1044.345387935903,1252.7176825205413,0.833663803511274,1886.119426909091,1341.579264,178.8936415761417,74.6805057908688,2430.8104727860373,3452.9293307037933,3433.027554964683,88.0,2441.589744698579,2972.7090117439884,0.8213349288654999,1121.5467588724832,712.713984,42.09262154732746,68.33885982203773,815.6109842780295,1129.681290446974,1125.8612175098663,149.0,798.8053010546249,1005.6826541476527,0.7942916165056434,1046.7736295541404,712.713984,95.40994217394226,70.56906783695578,733.5674309212833,959.8931323851583,956.8116055488721,157.0,678.7469431239418,919.7247659038305,0.7379891988196324,1153.2108213333331,712.713984,49.349970089970135,69.32946826327576,974.6248869079064,1345.1036658633873,1340.3968720162718,144.0,951.131923530885,1203.104888353762,0.790564424380606,deceptive
1784137626156686800,1784137636156686800,1587.5354624,1341.579264,89.44682078807085,61.56580266703807,1097.7282983800985,1540.8446658718792,1533.4493858483124,105.0,1089.5417119931258,1347.7626879545514,0.808407683140926,1770.2895731612907,1341.579264,13.761049352010902,76.48488966252388,2135.496624498266,3066.435708310893,3049.803203635802,93.0,2168.2974834192064,2601.909813614981,0.83334843970117,1125.1589604324324,712.713984,21.360434815061698,68.6727851996682,832.5632522238515,1144.4523772141104,1140.5967189792582,148.0,809.2500366731621,1029.0191091419808,0.7864285798812161,1058.453769974026,712.713984,84.18524309465492,70.1725249318668,742.1481325814715,987.5784262807257,984.3459075577981,154.0,698.32340217664,926.1424913988948,0.7540129177334853,1139.7641074758621,712.713984,26.502761714983965,70.51648362639503,985.2716558512979,1359.9088208085655,1355.1938252921434,145.0,961.6007489891381,1216.2164574695084,0.7906493478881791,deceptive
1784137627156686800,1784137637156686800,1549.2600817777782,1341.579264,22.361705197017713,62.479195451024175,1035.5881120514152,1416.7040136020537,1410.2390655532959,108.0,1001.761014952211,1281.8435591387067,0.7815002133531114,1709.2235815384618,1341.579264,89.44682078807085,73.49016942710172,1941.4096356049831,2797.4042989630075,2781.8596905688087,91.0,1978.0635495171425,2362.5780502399425,0.8372479162397413,1140.284943780822,712.713984,42.09262154732746,67.90069762816566,835.0337451165555,1136.316083955886,1132.391121140593,146.0,803.4968085365492,1035.258011465041,0.7761319397079421,1088.115044392157,712.713984,28.06174769821831,69.10814633003268,768.9424578744237,1016.4204205883397,1013.0849694242632,153.0,718.7177719344977,961.3882614202626,0.747583261389871,1132.5279033469387,712.713984,23.852485543485564,70.03555618530406,958.3614885403696,1337.4646847232407,1332.9007065766837,147.0,945.7303481653313,1178.8598473585257,0.8022415474447041,deceptive
1784137628156686800,1784137638156686800,1564.7765284571426,1341.579264,57.24596530436536,63.55921100460161,1062.8956235595497,1478.9591192807345,1472.4171166826723,105.0,1045.7820223410913,1308.687966643759,0.7991072348766893,1831.3109802197803,1341.579264,178.8936415761417,72.26096251108638,2091.3662682576883,2993.5004935476254,2976.8258134365224,91.0,2116.7244984728027,2550.953632427432,0.8297777237364263,990.1176304670657,712.713984,84.18524309465492,71.9035659964414,543.0067282731028,761.7115024520275,759.4147748617213,167.0,538.6113686916221,666.8294464537295,0.8077198323439602,987.8270394319526,712.713984,65.05223330041517,72.2730955423305,554.6032511731522,733.5395673813845,731.3552416451263,169.0,518.6908023640234,693.2888706701874,0.748159712794201,965.7225733953487,712.713984,84.18524309465492,72.35979582799706,487.6736019092945,641.2789142924802,639.4011273552752,172.0,453.45266892815954,610.6074209501016,0.7426255452686602,deceptive
1784137629156686800,1784137639156686800,1525.815636550459,1341.579264,30.44998154487519,63.84432283294933,982.7664938462202,1395.3262695650292,1388.851457000508,109.0,986.6446671771606,1202.0507947749215,0.8208011437336185,1911.6540733793104,1341.579264,35.77872831522834,70.57801636226209,2259.5546102100034,3248.583563481942,3229.643578466898,87.0,2297.0954669892403,2751.8812257819745,0.834736414300184,1011.5202746181819,712.713984,84.18524309465492,70.24186492543187,515.6151497001398,708.6702675411585,706.5065688047181,165.0,501.1055518036381,637.3104252845553,0.7862817426529582,989.2150674285714,712.713984,53.00552342996793,71.85425288616182,543.2319773511147,726.2322743572391,724.0609284266096,168.0,513.523765914533,677.0145001062251,0.758512211827014,995.1385109461078,712.713984,42.09262154732746,71.51834967604499,531.0480667369371,725.5554280836925,723.3826348121363,167.0,513.0451633246873,657.5837806429302,0.7801974112303605,deceptive
1784137630156686800,1784137640156686800,1550.809207626168,1341.579264,19.877071286237967,65.40983952668981,1054.6616635314324,1432.628277953037,1426.0792519852898,107.0,1013.0211702601986,1308.2494041076823,0.7743333702881753,1784.1140906666672,1341.579264,178.8936415761417,72.87782752101761,2169.1603542667867,3104.5081553603577,3087.054632198383,90.0,2195.218768904249,2645.9441723836276,0.8296542277105803,1001.0403557300614,712.713984,43.36815553361012,70.2601214761173,487.4236249756607,679.0632112052529,676.9641421676837,163.0,480.17020149754705,599.9015495610339,0.8004150045101602,976.9118235266272,712.713984,84.18524309465492,71.99450138327376,522.2306062405182,717.4835077898081,715.3952696742468,169.0,507.3374537476844,645.564842754844,0.7858814795159902,992.2096640000001,712.713984,84.18524309465492,71.46518907319935,522.2798615579386,726.2994950894987,724.1408713173896,168.0,513.57129815015,643.1755346996214,0.7984932113283822,deceptive
1784137631156686800,1784137641156686800,1539.1671822222224,1341.579264,36.69613160536241,65.37763553859867,1045.9366846723537,1409.6445559607048,1403.0454704674187,108.0,996.769224582514,1300.4586318485399,0.7664751497444052,1734.5624756043956,1341.579264,17.88936415761417,72.04682008859162,1979.7948636149083,2809.1049647136088,2793.5205219052427,91.0,1986.3371696137901,2422.066829857774,0.8201000670697554,1008.4712308363636,712.713984,79.50828514495187,70.23825683081714,508.079140837981,700.6745617164694,698.535513398906,165.0,495.4517339946276,627.3377211280861,0.7897687598056442,961.8367230520231,712.713984,79.50828514495187,72.75559977747055,513.0624041952658,711.6600314929146,709.5886133868977,173.0,503.2196341680719,632.33777452492,0.7958082759584377,990.462816,712.713984,79.50828514495187,71.67074439465857,524.4922888764113,718.7272837342703,716.5725703623103,168.0,508.21693615229026,648.8775655588836,0.7832246992767562,deceptive
1784137632156686800,1784137642156686800,1604.9293197669901,1341.579264,57.24596530436536,62.988358725804396,1098.4019810212646,1516.701194722367,1509.2481284621174,103.0,1072.469699821924,1355.6836634351,0.7910914092631653,1853.1505704269662,1341.579264,178.8936415761417,73.87833238563535,2223.915068858934,3161.9082526049065,3143.900775498614,89.0,2235.8067669066363,2718.8564724021235,0.8223335029271662,998.8603142168677,712.713984,84.18524309465492,70.31293164569547,476.38084219995454,640.366004727264,638.4225525830515,166.0,452.80714438398513,592.7564918477793,0.7639007764764668,961.0913949767443,712.713984,29.207125155288445,72.71171629495258,507.5875628513054,696.6603979906923,694.6376992767493,172.0,492.6132916033376,627.659414324774,0.7848417156831513,989.8665864431139,712.713984,37.66181927918773,71.22040861598782,503.21533645224724,674.1519236437529,672.1221216949162,167.0,476.6973967584533,626.7624315826163,0.7605711075482956,deceptive
1784137633156686800,1784137643156686800,1580.3484306285716,1383.5036159999997,29.207125155288445,63.328305544678635,1067.490907677349,1491.3296234666855,1484.158272722238,105.0,1054.529289737674,1312.6529108984978,0.8033572934492327,1960.0867629176469,1341.579264,29.815606929356953,68.4009187278613,2328.665945035923,3299.220379787541,3279.562255019101,85.0,2332.9011031766267,2850.290579667051,0.8184783403554378,1001.6384339277108,712.713984,84.18524309465492,69.8171743999213,465.3419735792077,620.0781702406741,618.1962898150465,166.0,438.4614790429271,580.4843412590287,0.7553373069322348,985.4718217142856,712.713984,28.62298265218268,71.84010428767377,537.1483922738846,707.7934557546556,705.7168567273031,168.0,500.48555224357756,672.1710322846103,0.7445806620712304,1001.6384339277108,712.713984,28.62298265218268,70.87910542042705,521.6380335273778,687.0678766445368,685.0340062590948,166.0,485.8303547107943,652.8375826079649,0.7441825771886359,deceptive
1784137634156686800,1784137644156686800,1502.4163234909092,1341.579264,44.723410394035426,69.42629822085796,1125.6151457031785,1564.4827152741884,1557.3170121177961,110.0,1106.2563370195212,1386.4044759285985,0.7979318851221704,2058.593181538461,1341.579264,8.944682078807086,66.4782357289127,2396.9946919016356,3345.7981311869826,3324.6432361119364,78.0,2365.8365470435933,2948.3174561681203,0.8024361630712699,999.282268097561,712.713984,42.09262154732746,69.69305483806494,451.9753599045764,595.9570796921712,594.1262337126152,164.0,421.405292346466,565.4840773292715,0.7452115970032682,967.937670736842,712.713984,84.18524309465492,72.29751208680592,514.6498279260015,678.5194951860822,676.5220299089927,171.0,479.78573621335164,643.9190278533723,0.7451025912571795,963.7697527017543,712.713984,84.18524309465492,72.33849658021205,482.8316000809704,627.7881581224347,625.940213542519,171.0,443.9132637569861,606.4018594989716,0.7320446941303269,deceptive
1784137635156686800,1784137645156686800,1592.7222572307694,1341.579264,10.446344033643312,65.62909401992935,1202.5686788843734,1603.4887460032523,1595.7688943013839,104.0,1133.837765855213,1499.8495975355809,0.7559676435012112,2146.853505662337,1341.579264,57.24596530436536,62.74968089354062,2603.43792449685,3700.7060246592423,3676.2906161458122,77.0,2616.794325214461,3183.0758368564875,0.82209612944652,994.3853788742516,712.713984,65.05223330041517,70.51864433969706,486.48370558858295,660.030934853626,658.0406622236261,167.0,466.7123498278953,603.6742357144789,0.7731195439797389,975.4898331428572,712.713984,65.05223330041517,72.75672586683461,562.4643487563234,728.3121003873893,726.129336008323,168.0,514.9944250041405,707.19350841978,0.7282227832589876,985.598838035928,712.713984,31.803314057980753,71.67113051341494,513.4017669494908,655.7755486031969,653.8032396880602,167.0,463.70333735364886,647.8058012068606,0.715806089556115,deceptive
1784137636156686800,1784137646156686800,1514.7113102222222,1320.617088,35.77872831522834,68.31865611628754,1146.0132499055526,1583.9187141771745,1576.4998503747775,108.0,1119.999663642957,1414.0343399783487,0.7920597343202472,2281.383488,1341.579264,44.723410394035426,58.24504525043517,2676.0055230300304,3785.369642957479,3758.6442952686075,72.0,2676.6605438329334,3277.15658538289,0.8167630914469114,977.3306292705881,712.713984,57.24596530436536,71.04469172847406,462.5356184410042,627.4321076845772,625.573832494651,170.0,443.66149807793266,573.9866150136488,0.7729474633609407,968.1828423859648,712.713984,51.11246902175478,73.07071711226968,556.2498195006597,736.8858964013365,734.7287982484197,171.0,521.0570143061127,695.0377812106567,0.7496815689623457,959.655687398844,712.713984,65.05223330041517,72.75573148859621,491.4705695065736,653.1561525363873,651.2569100520747,173.0,461.85114463219446,613.5416868340712,0.752762452076218,deceptive
1784137637156686800,1784137647156686800,1519.2769761467887,1090.033152,44.723410394035426,66.7049442788181,1136.4902203936815,1604.065924044927,1596.625442694803,109.0,1134.2458923624333,1392.8256064311968,0.8143488223688564,2385.988856470588,1676.97408,16.263058325103792,57.09562231041239,2712.1740229701104,3847.3002104929533,3818.494201613113,68.0,2720.452068099999,3318.3348436125257,0.8198244590465626,979.3925544142011,712.713984,65.05223330041517,71.24826485982469,473.60229710753464,644.4694765049752,642.5497612828151,169.0,455.70873710441236,587.1652621829886,0.7761166514009337,967.9376707368418,712.713984,65.05223330041517,73.39689019903649,576.7920829481914,734.6154222345749,732.4526397818423,171.0,519.4515466262868,728.3290871969936,0.7132099428095325,949.8860324571428,712.713984,84.18524309465492,73.20508039165561,479.2924699168903,632.4176050723537,630.5976945219945,175.0,447.1867770884173,599.5452748848109,0.7458765765009726,deceptive
1784137638156686800,1784137648156686800,1595.1409698461537,1320.617088,59.631213858713906,63.51890818108996,1176.791147406805,1707.2375251765332,1698.9422328939334,104.0,1207.1992311484657,1428.6391487661697,0.8449994053369262,2442.4111127272727,1676.97408,178.8936415761417,56.53190951705265,2733.9970520286925,3676.771852775014,3652.8784187015444,66.0,2599.8703099730387,3401.4433622601314,0.7643432605167715,984.8457059640718,712.713984,44.723410394035426,70.81483307234848,464.3452949501614,610.4275689435312,608.5863638996553,167.0,431.6374734231897,581.4444527666658,0.7423537560111632,946.4301991724137,712.713984,44.723410394035426,74.05297809242776,527.255868755976,664.5098367815423,662.5909363710633,174.0,469.87941175339444,667.5358952748385,0.703901340855888,945.0946779428572,712.713984,44.723410394035426,73.27062635453423,460.81101082419184,600.3814547028294,598.6561105802546,175.0,424.53379791901466,578.4281308908269,0.7339438994178892,deceptive
1784137639156686800,1784137649156686800,1633.3893576237626,1341.579264,22.361705197017713,60.776220103157954,1156.2447579441073,1724.3487362424444,1715.715369315203,101.0,1219.2986845274859,1389.409673027083,0.8775659966948558,2282.867112328767,1676.97408,34.07497934783652,57.79100692114941,2494.088289314548,3563.3740515163295,3538.5466649160285,73.0,2519.6859557313787,3044.0998886431044,0.827727751356582,984.9727222857143,712.713984,49.349970089970135,70.79262483999226,465.22372879392117,597.9222695297278,596.1307166252029,168.0,422.7948914069211,586.0788987550607,0.721395860361148,957.7169890404625,712.713984,84.18524309465492,74.1433555091657,567.9054563747412,710.5401787169817,708.471643967641,173.0,502.42777867627916,720.2890936059049,0.6975362852726669,920.4724394666669,712.713984,84.18524309465492,74.39490124680748,439.0542476426008,573.9094027175599,572.3040585863422,180.0,405.81523044830783,550.6307874738878,0.7370006176190294,deceptive
1784137640156686800,1784137650156686800,1570.7657216,1341.579264,35.77872831522834,63.36613771537321,1139.221192571373,1720.4018094474602,1712.110668131983,105.0,1216.5077858259058,1362.2423626946706,0.8930186133835353,2425.447070117648,1341.579264,178.8936415761417,60.420063852187724,2750.2060583050184,4067.0989241757934,4036.661270122714,68.0,2875.873229041216,3315.409976385617,0.8674261251323211,995.640598994012,712.713984,40.88997521740383,70.41969794548547,478.0492244156137,609.5026080197008,607.6809880214862,167.0,430.9834272816166,603.4805420500609,0.7141629220016592,978.0704707764705,712.713984,79.50828514495187,72.94142987801185,574.8698933698618,723.1552448148108,721.0126005744937,170.0,511.3479774591706,728.1568591865081,0.7022497570515851,939.3897176949152,712.713984,84.18524309465492,73.68747664525773,473.9061174338376,608.4171311906103,606.6862112360099,177.0,430.2158792549459,597.1860387692226,0.7204051188832281,deceptive
1784137641156686800,1784137651156686800,1663.1390438400003,1341.579264,89.44682078807085,62.79319110090089,1217.3466201674792,1758.7724120594276,1750.4320314805336,100.0,1243.639899131042,1480.0491505051564,0.8402693239657444,2217.970512657534,1341.579264,10.523155386831865,66.43124694633717,2572.861389224322,3733.207458661906,3707.2971170781902,73.0,2639.7763095960313,3123.303055095742,0.8451873747215066,1000.1230959036144,712.713984,84.18524309465492,69.87463536011555,469.65402734046796,611.6205016971911,609.764289520572,166.0,432.4810042628022,589.601476651951,0.7335141131576592,993.7069622857142,712.713984,84.18524309465492,72.54093936616161,597.102016950546,757.682866728657,755.4119918308944,168.0,535.7626930526965,754.6792733733195,0.7099210379237076,937.9685532203389,712.713984,84.18524309465492,73.8694479740064,477.0427674357886,616.5507095232412,614.7966498963393,177.0,435.96718764926106,600.0882514865533,0.7265051208206001,deceptive
1784137642156686800,1784137652156686800,1626.3327835247521,1341.579264,89.44682078807085,64.03496297551078,1162.2549034034475,1696.8915639262284,1688.385840290036,101.0,1199.883531790482,1407.7686869794036,0.852330033256406,2113.1996159999994,1341.579264,178.8936415761417,68.93729902619765,2584.6654331854725,3715.756221070672,3691.882971465078,79.0,2627.4364211551724,3147.9008449125813,0.8346630185005518,1006.1844480000001,712.713984,42.09262154732746,69.3316085327218,465.4243270210365,611.5749188686653,609.7075101768959,165.0,432.4487723356459,582.8667412184931,0.7419342051179729,976.590787764706,712.713984,84.18524309465492,73.02282904160762,574.7770867256896,746.1845554392178,743.9855860810359,170.0,527.6321591677402,722.1769528001681,0.7306134003887825,943.2979199999999,712.713984,84.18524309465492,74.18944497502079,517.9263636016025,695.6096604055006,693.6313132434271,176.0,491.87030793160096,644.6140211900411,0.7630462443611521,deceptive
1784137643156686800,1784137653156686800,1649.5779687920792,1341.579264,44.723410394035426,64.34970155684006,1199.33599311501,1774.2695086985866,1765.3886151427366,101.0,1254.5980012532946,1445.6159851039122,0.8678639515480405,2065.1625244444444,1341.579264,14.907803464678477,66.26929094965578,2319.6310334286613,3333.336586782373,3312.4483311930785,81.0,2357.0249044910365,2825.5252719264695,0.8341899921793993,983.0027474823529,712.713984,42.09262154732746,70.63353880199695,457.17036621413916,595.642934687657,593.8813788252646,170.0,421.18315828349813,573.8570040331556,0.7339514118035642,952.7608451657142,712.713984,84.18524309465492,73.99090526159537,556.4693144870262,723.529964307862,721.4478593743754,175.0,511.6129441537499,698.886466901805,0.7320401358202756,926.2952661333334,712.713984,84.18524309465492,74.85005685747187,496.4453704132823,680.0149120131715,678.1127686731745,180.0,480.84315559248705,614.256413454098,0.7828052667592039,deceptive
1784137644156686800,1784137654156686800,1693.5691359999998,1341.579264,89.44682078807085,62.31185157702118,1187.3664479407084,1744.965419400391,1735.9868666854463,96.0,1233.8768809940443,1434.7306662453668,0.8600059300489137,1849.1105370352939,1341.579264,95.40994217394226,70.9678087380846,1997.5914498387326,2877.0444415930065,2859.8951226012346,85.0,2034.3776344254786,2431.336468120428,0.836732250389917,979.5501537882353,712.713984,84.18524309465492,70.09171047416277,414.7214205442817,516.5949108525258,515.1144951004939,170.0,365.287764590281,526.5644669333961,0.6937189794017858,951.4162193757224,712.713984,84.18524309465492,73.79007288691976,532.3517737228339,709.3156967203897,707.2517767557387,173.0,501.5619391530481,664.0893257448215,0.755262763168964,946.1563985454545,712.713984,31.11193766541595,74.02992135907893,515.3522659353589,691.2239693405556,689.2663650532569,176.0,488.7691560393891,641.6605582873934,0.7617254165409902,deceptive
1784137645156686800,1784137655156686800,1635.049728,1341.579264,44.723410394035426,65.41968349467687,1157.156303396579,1714.0191877367943,1705.6055893759105,100.0,1211.9945907325452,1394.1147646440002,0.8693650060022419,1833.5880386206902,1341.579264,35.77872831522834,71.11987046147621,1985.5143252566481,2893.539313516399,2876.733309641031,87.0,2046.0412702173135,2406.5310785199695,0.8502035516930206,947.3474312727271,712.713984,65.05223330041517,71.87946402402603,397.45597174413916,495.5550089118061,494.13856082369955,176.0,350.4103072524981,504.52830171929986,0.6945305269464406,947.3474312727271,712.713984,65.05223330041517,73.60770401105978,520.1744483677376,689.274823235596,687.3036889665333,176.0,487.39090161104883,649.9138158115618,0.7499315905485606,926.3173863687151,712.713984,84.18524309465492,74.82673900143159,489.8195662895662,681.7292556333487,679.811588668213,179.0,482.0553795915982,603.0403971075218,0.7993749372409755,deceptive
1784137646156686800,1784137656156686800,1714.57633385567,1383.5036159999997,43.36815553361012,63.24086839571535,1200.5838805047974,1832.5121327526779,1822.9461612452237,97.0,1295.7817556760413,1429.432799779155,0.9065006454841651,1944.3034774588232,1341.579264,89.44682078807085,71.9579796279141,2263.8870626089733,3294.625710285458,3274.9780330934163,85.0,2329.6521812143933,2745.310478211541,0.8485933375128002,983.113650745562,712.713984,89.44682078807085,70.29224357098946,438.0354727214302,552.9915798145717,551.3433715813353,169.0,391.0240960259456,554.3466685099854,0.7053782736296936,977.5772431058823,712.713984,89.44682078807085,72.3073155134262,547.2052149641063,716.5042186563152,714.5211671153351,170.0,506.6449917606493,685.9464415898324,0.73860721631034,946.871018181818,712.713984,89.44682078807085,74.04591428713452,509.5266086708661,698.4465631937479,696.4852250893567,176.0,493.87630113073766,630.2997933348688,0.7835577710055643,deceptive
1784137647156686800,1784137657156686800,1657.494078060606,1341.579264,44.723410394035426,63.48895340162427,1175.2456392911997,1733.9927929973278,1725.1423550003854,99.0,1226.1180624570118,1417.9992502834032,0.8646817424000458,1860.6875325842693,1341.579264,8.889125047261702,72.12795771947856,2177.852659264888,3221.5618052771315,3203.870066618002,89.0,2277.9881985230354,2625.160813098729,0.8677518676785776,989.2150674285714,712.713984,42.09262154732746,69.80518068705462,438.7055569867125,578.9789299927787,577.2586335550756,168.0,409.3999275620252,548.7449144348835,0.7460660077071318,956.505302566474,712.713984,42.09262154732746,72.38916460090525,482.374589829652,644.1763510916014,642.3143816400288,173.0,455.5014661368776,601.3565473163384,0.7574565674384601,928.4253146815644,712.713984,84.18524309465492,74.70913024304367,490.06986122993663,674.9661046566463,673.0674620638712,179.0,477.27310967378355,605.3446350328192,0.7884320468916155,deceptive
1784137648156686800,1784137658156686800,1612.8298214399997,1341.579264,89.44682078807085,64.0212683352495,1145.5984403438054,1661.7793966421566,1653.3791532687621,100.0,1175.0554802017584,1390.832082697342,0.8448579054366417,1793.9936998681317,1341.579264,35.77872831522834,71.65891350707908,2008.1090314179698,2936.202528049756,2919.8471046632944,91.0,2076.2087185210667,2430.983842540585,0.8540610933683754,976.0283351578948,712.713984,84.18524309465492,70.71077046124446,440.7693329674339,591.1253269020109,589.3843650606339,171.0,417.9887271835266,548.8150159597138,0.761620427700195,970.3537518139534,712.713984,84.18524309465492,71.51591716898051,485.3451079279232,639.9795819903245,638.1057412355411,172.0,452.53390224629055,607.2283600409381,0.7452450050517759,942.9426288813561,712.713984,84.18524309465492,74.5237503463291,548.2888475439981,751.3836927456126,749.2461906822432,177.0,531.3085044134119,678.3044723803927,0.7832891069535135,deceptive
1784137649156686800,1784137659156686800,1659.7850956799998,1341.579264,57.24596530436536,63.270881391103515,1214.3245183364493,1726.1769036109113,1717.6998804022307,100.0,1220.5913940708729,1484.670467149583,0.8221295035350739,1968.4716333176468,1341.579264,25.55623451087739,68.86013347013062,2126.8767241139562,3085.907257165393,3067.5253431478623,85.0,2182.0659476544283,2581.957261303703,0.8451208625167721,959.4412049655172,712.713984,84.18524309465492,71.7047368929477,434.3559393320467,596.0541388179633,594.3289917295821,174.0,421.47392351248965,537.1312967660173,0.7846757879314007,955.778290682081,712.713984,84.18524309465492,72.24569993332526,472.80851497912903,645.4834404991984,643.6176387649836,173.0,456.4257179206066,585.6052985449055,0.7794084497778957,953.9586837942857,712.713984,84.18524309465492,73.89793154133585,550.8645665223139,752.0521068806571,749.9049939829567,175.0,531.7811445809429,682.281429055287,0.7794161205842395,deceptive
1784137650156686800,1784137660156686800,1623.4271353663364,1341.579264,44.723410394035426,62.311266720627366,1156.9620103882496,1682.4563619508806,1674.0263034787006,101.0,1189.6763025859161,1403.3735548655577,0.8477260373485421,1933.882609116279,1341.579264,7.73594125734667,69.71131765413604,2035.8837941349618,2781.797185697538,2766.5251720576575,86.0,1967.0276538923827,2520.921805779396,0.7802811056585846,933.7050597966102,712.713984,84.18524309465492,72.92818365028671,417.53666680067954,570.2414437937158,568.619331568651,177.0,403.2215918201439,517.087913406471,0.7797931093840529,937.7316924745761,712.713984,84.18524309465492,73.64917588929632,478.02296193445335,664.4086529892709,662.5280747765636,177.0,469.80786400773314,588.77176370086,0.7979456437493674,943.0597134545455,712.713984,84.18524309465492,74.17667010503216,527.3047822538762,725.9143938461705,723.8375398881315,176.0,513.2989904495494,651.431301042061,0.7879556748784583,deceptive
1784137651156686800,1784137661156686800,1561.1830125714284,1341.579264,46.166101051907546,62.5999667276554,1094.6518495267478,1609.626444340655,1601.8692140371793,105.0,1138.177773970468,1322.4224063303202,0.8606764136195143,2015.4744035555557,1676.97408,29.815606929356953,64.66221709851585,1918.78669834146,2586.0137534532914,2569.8037610680253,81.0,1828.587861308499,2385.7112155920813,0.7664749402012948,944.2507461818182,712.713984,57.24596530436536,72.30800872327681,425.5200359950476,574.2367544737643,572.5969349301535,176.0,406.0467030949533,528.864481241946,0.7677707947817244,931.756946696629,712.713984,84.18524309465492,73.47369278530077,448.43869785711905,619.8117834158793,618.0584226657371,178.0,438.27311511269596,553.3108256272272,0.7920920661833685,942.3450938181817,712.713984,84.18524309465492,73.64183544625047,506.53331625694443,716.6855898013929,714.6349830525505,176.0,506.7732405272453,620.2761016670502,0.8170123581502572,deceptive
1784137652156686800,1784137662156686800,1555.1938194285713,1341.579264,43.36815553361012,61.85039982036667,1048.600873310122,1547.1804395613065,1539.7241576580686,105.0,1094.021780532983,1265.1821034433035,0.8647148719188387,2347.763712,1676.97408,19.604782638481286,60.438336339366494,2126.484089919785,2976.0968365897093,2955.0189776582547,71.0,2104.4182546204156,2613.3467190891715,0.8052579626150286,955.778290682081,712.713984,84.18524309465492,72.36912163371724,468.8366169496318,594.8210833545085,593.0894316936817,173.0,420.6020216327015,592.589669573132,0.7097694125104802,932.9345970337077,712.713984,84.18524309465492,73.3479794265084,444.8437377620904,612.6976119736343,610.9643762183863,178.0,433.24263624336083,549.4745773215958,0.78846711772398,943.5361265454544,712.713984,84.18524309465492,73.09327683323323,472.7290448910924,658.0184679356912,656.1357216792946,176.0,465.28932082331,581.9780268456709,0.7994963716159262,deceptive
1784137653156686800,1784137663156686800,1596.350326153846,1341.579264,19.604782638481286,57.91054908013886,1022.714817445343,1481.644918202044,1474.672277308889,104.0,1047.6811689712529,1242.2050071288704,0.8434044002066746,2333.0016162253523,1676.97408,6.595157293129649,61.41395940907269,2256.9401473152725,3123.0224525378912,3102.4465619540106,71.0,2208.310353987386,2783.745740430153,0.7932873760396489,972.6449664,712.713984,84.18524309465492,71.71031558361214,484.7433722275551,627.0659479000786,625.2079706371911,170.0,443.4025840113159,609.6305012736224,0.7273300517034041,976.8374015999999,712.713984,84.18524309465492,72.23375462046852,522.7772519392025,692.5982467479604,690.5460992839132,170.0,489.74091691339646,653.1990718308024,0.7497575211500815,948.9277615542858,712.713984,84.18524309465492,73.36094784690924,512.5664482490653,704.3325755528459,702.3057150180832,175.0,498.0383403840037,633.5831701482427,0.7860662401551403,deceptive
1784137654156686800,1784137664156686800,1652.2387123199996,1341.579264,8.889125047261702,56.0095525472864,1134.9272885899134,1576.5202278242534,1569.2936330718264,100.0,1114.7681437722904,1398.1294266223517,0.7973282891737605,2375.9129197714283,1676.97408,178.8936415761417,60.347661226933084,2269.418585056638,3101.777964322044,3079.3632079506565,70.0,2193.2882323071226,2809.8513827981183,0.7805709034059278,985.4718217142859,712.713984,65.05223330041517,71.19271170358975,504.78386483898555,655.2995532366656,653.3346326117611,168.0,463.3667578021612,634.2390119548963,0.7305869696881928,958.6211480701754,712.713984,84.18524309465492,73.29409971172555,512.760165596674,670.6280002057451,668.6746668472088,171.0,474.2056065990558,642.9700585411952,0.7375236222895959,971.1652833882351,712.713984,51.11246902175478,72.3365621682569,533.3504838761761,728.2392461407085,726.0866232444431,170.0,514.9429092722743,660.5621677003653,0.7795525303317935,deceptive
1784137655156686800,1784137665156686800,1659.3658521599998,1341.579264,178.8936415761417,56.2222945079707,1230.0145566024173,1572.2972381326765,1564.3361883045607,100.0,1111.7820391244954,1551.7222585397724,0.7164826263243289,2607.960880761905,1676.97408,19.877071286237967,56.11765287566857,2360.5544218351592,3249.5570971460857,3223.534974483159,63.0,2297.7838592448697,2916.2525653632815,0.7879234763600222,999.0266318048781,712.713984,65.05223330041517,70.13879164021816,492.8631540786858,643.083451116284,641.1090574826179,164.0,454.72866915317206,618.4166039344943,0.735311222661381,998.5618385454544,712.713984,65.05223330041517,71.85139273010796,577.0757845411864,785.4403866727265,783.0541491814106,165.0,555.3902236340689,715.4046211435184,0.7763302154049844,964.9913346976743,712.713984,65.05223330041517,72.26144753954118,516.6687589010487,710.5592395219642,708.5193001807149,172.0,502.4412567007371,638.4900975200727,0.7869209853876261,deceptive
1784137656156686800,1784137666156686800,1586.2723569230768,1341.579264,35.77872831522834,59.172704759038545,1177.6280001644307,1503.751222380898,1496.4629382081237,104.0,1063.3126865630932,1486.0344810399054,0.7155370216032958,2655.4343597419356,1676.97408,6.142270955404007,52.52762704650226,2292.5985284798176,3038.652499991865,3016.3236187975394,62.0,2148.6517884137033,2864.2038634931255,0.7501741813144721,984.2240731428572,712.713984,42.09262154732746,70.65164058526238,475.84744744480247,613.3694500698208,611.5302571737237,168.0,433.71769751703374,599.0042286242473,0.7240645003678312,976.8374015999999,712.713984,84.18524309465492,73.19837054994233,573.2225296718722,766.6732588081267,764.4016293444321,170.0,542.1198602576153,714.297672965531,0.7589550978192473,982.6175045680473,712.713984,79.50828514495187,71.30631886591746,533.0762985636842,746.1879800623628,743.9639097255961,169.0,527.634580741989,655.0889670749532,0.8054395773110596,deceptive
1784137657156686800,1784137667156686800,1754.2031494736837,1635.0497279999997,11.926242771742782,56.36129233845867,1308.634830321467,1637.3111381998797,1629.344650072383,95.0,1157.7538087333994,1659.77507435274,0.6975365678297627,2577.69258,1676.97408,34.906076405100826,56.094396402411846,2316.1912469013046,3239.3785351594543,3213.7185444449533,64.0,2290.5865290413954,2847.1196780134633,0.8045276588582392,982.6175045680474,712.713984,84.18524309465492,70.28623516331253,455.47932544394945,589.3745959447401,587.6178868331914,169.0,416.75077345160724,572.7846263889194,0.7275872190896312,959.8980246936417,712.713984,84.18524309465492,73.78787700998714,553.7599988349791,724.7491617387418,722.6738324304523,173.0,512.4750469247302,694.2513491230535,0.7381693209124696,1000.3756522409637,712.713984,84.18524309465492,70.54392949995086,546.7222827143822,771.4369742744349,769.0957337483751,166.0,545.4883157674851,670.0983192886146,0.8140422085322985,deceptive
1784137658156686800,1784137668156686800,1619.691302019802,1341.579264,44.723410394035426,61.45715045812587,1207.8684882464079,1526.0880038522837,1518.4430797768755,101.0,1079.107176211392,1528.285451387228,0.7060900666376717,2622.3005976774202,1676.97408,35.77872831522834,54.8973655965325,2296.3625692990977,3257.1407898722573,3230.5618657321534,62.0,2303.146339797981,2809.6833572652786,0.8197174011948734,1005.6700387730061,712.713984,84.18524309465492,69.01244872582357,463.37380524559563,600.6284971782587,598.7723391978673,163.0,424.7084833286319,582.4447775282331,0.7291824044349764,948.9277615542857,712.713984,84.18524309465492,74.42514453331391,550.2422091001008,718.1317263351964,716.0651559316802,175.0,507.7958134768194,690.365615640311,0.7355462119964375,981.0298368000001,712.713984,84.18524309465492,70.8687277055204,479.9740020589093,681.6200000639611,679.6003808097356,170.0,481.9781242376019,587.0252372624989,0.8210517941021277,deceptive
1784137659156686800,1784137669156686800,1643.351579881188,1341.579264,178.8936415761417,61.563861594992574,1266.5737361276315,1633.2951520688346,1625.108157395637,101.0,1154.9140777069863,1594.2097712201255,0.7244429801876543,2586.6659718095243,1676.97408,19.877071286237967,59.36907290122433,2438.883916912619,3515.7012415734066,3487.338450791877,63.0,2485.9761885425205,2967.536135474997,0.8377239821359763,991.3728505868263,712.713984,65.05223330041517,69.69518253488941,455.53307604690633,593.0871393947056,591.2993822448417,167.0,419.3759381005275,571.9114249747633,0.733288267705149,940.6776480000001,712.713984,21.68407776680506,74.62271108247367,530.5643463775549,668.3250605431533,666.5162059348335,176.0,472.57718234697364,671.8128122152641,0.7034357990117479,948.9277615542857,712.713984,84.18524309465492,72.47049079314125,462.02783677664775,651.8938093248955,650.0178520273935,175.0,460.9585331871638,566.3020918679239,0.8139799230949533,deceptive
1784137660156686800,1784137670156686800,1731.9997919999998,1509.2766719999997,29.207125155288445,60.49721630803069,1407.590176383815,1817.2699584857028,1807.682015722159,96.0,1285.003910891836,1771.158571049126,0.7255160164065255,2491.596488861538,1676.97408,178.8936415761417,59.552566801295804,2314.078131748878,3371.5286122610787,3345.3475534833074,65.0,2384.030744694279,2805.015847344356,0.8499170323587854,1005.4175391219511,712.713984,42.09262154732746,69.01412278047229,466.83764323650155,619.1205796411874,617.2262319908933,164.0,437.78436023642956,583.135659389316,0.7507418783047767,939.3897176949152,712.713984,84.18524309465492,74.66343611089243,530.8018667135624,672.1657349078882,670.2534529820424,177.0,475.292949234607,671.2298783703982,0.7080926587900349,951.4900347586206,712.713984,65.05223330041517,72.66396585452857,471.1483358862446,679.8450414565087,677.8784066774672,174.0,480.7230389699469,573.0743308843142,0.8388493657151603,deceptive
1784137661156686800,1784137671156686800,1725.0123999999998,1362.54144,44.723410394035426,62.55325205633963,1442.8310426763508,1835.7024001741704,1826.0272472942877,96.0,1298.0376154035773,1822.3808630250012,0.7122757057758731,2366.820235636363,1676.97408,59.631213858713906,59.75145457860697,2245.2309230162587,3207.1789393746526,3182.429440607089,66.0,2267.817976510496,2740.5518801958124,0.8275041216692678,1005.9318916626507,712.713984,62.2238753308319,69.22942415667394,479.2685347825194,633.7628950250631,631.8395338027956,166.0,448.13804073664016,599.151737949185,0.7479541697910379,968.182842385965,712.713984,84.18524309465492,73.97972376911133,599.304373706966,764.6192913184025,762.3670941100537,171.0,540.6674859172947,756.4197244417503,0.7147717972535894,959.6821495172416,712.713984,42.09262154732746,72.594508503235,488.116286589998,684.8506049791059,682.8808263913734,174.0,484.26250688043535,599.3829582860664,0.8079350608585577,deceptive
1784137662156686800,1784137672156686800,1718.0340123711342,1341.579264,13.761049352010902,64.64365244648666,1472.9438003939163,1851.8055608505292,1842.3475102700795,97.0,1309.424269516367,1865.9664840072853,0.7017405085992181,2323.5538749295774,1676.97408,178.8936415761417,58.951478054816874,2239.8711723314,3144.361929891915,3121.8545020635015,71.0,2223.399643131393,2749.9623180589365,0.8085200399039584,1011.3285402699386,712.713984,65.05223330041517,68.68102572071412,467.2394719879126,654.3882789935832,652.372827235441,163.0,462.722389605357,574.0813909595405,0.8060222764440178,956.9899771560694,712.713984,84.18524309465492,74.50333128973054,592.2514440691184,748.2367205930028,746.0584431308131,173.0,529.0832590640964,749.3724030767141,0.7060351527382488,940.677648,712.713984,84.18524309465492,73.23598109351585,465.98106962125775,655.5098438041899,653.635855811342,176.0,463.5154556884773,571.7109633894513,0.8107513855261318,deceptive
1784137663156686800,1784137673156686800,1690.2358648163263,1341.579264,178.8936415761417,66.51029158267097,1554.854116246176,2026.8082212526936,2016.4078055080502,98.0,1433.169837412424,1951.4493983142318,0.7344130156029022,2295.2106510422536,1676.97408,25.55623451087739,56.86347564465986,2146.4018681666857,3040.4030540940216,3018.744659384851,71.0,2149.889617090172,2627.3692691555207,0.8182670180127294,1020.9356088888887,712.713984,79.50828514495187,68.23339416515684,468.44828390365353,673.5434026087396,671.4484452200229,162.0,476.26710740810074,570.5018935859164,0.8348212560952278,927.9568861675976,712.713984,79.50828514495187,75.30967383211166,551.8832472360913,714.0502587291386,712.0417135113777,179.0,504.9097800553826,694.0340727672653,0.727499988642052,933.1701271011235,712.713984,79.50828514495187,73.32746865596238,445.473790060461,613.7932101536477,612.0686078652033,178.0,434.01734114590397,550.1893029258051,0.7888509261046696,deceptive
1784137664156686800,1784137674156686800,1603.5026908514849,1341.579264,17.88936415761417,65.31223805340767,1345.5614855821088,1856.1467060741888,1846.9187888837614,101.0,1312.4939227421323,1661.2499132720363,0.7900641030927212,2535.768228,1676.97408,4.45840851280104,57.40601678701859,2637.7724585278197,3507.6338372341716,3481.86127354473,64.0,2480.2716722276737,3292.387173755278,0.7533353586111471,1004.6599261090911,712.713984,84.18524309465492,68.82973131402632,455.4595300332144,656.7951825197914,654.8138482224617,165.0,464.4243274104007,554.1135163942959,0.8381393228457648,894.1570811803279,712.713984,84.18524309465492,75.82272254293758,454.65446669463745,570.3944075572134,568.8254180931457,183.0,403.3297535345889,576.2672323910447,0.6999005511055963,926.0623530666666,712.713984,84.18524309465492,73.91406083165853,445.4148916913919,627.2054314867008,625.4521035969822,180.0,443.50121380128064,546.2986254415292,0.8118292690977106,deceptive
1784137665156686800,1784137675156686800,1633.816658823529,1341.579264,25.55623451087739,63.34845508993913,1349.0490205144854,1878.442406523966,1869.1318535982257,102.0,1328.2593637214736,1660.641457643792,0.7998471660499672,2343.0398413521125,1676.97408,14.907803464678477,60.6766266392163,2469.5598865106094,3577.802924385419,3552.313597429827,71.0,2529.88870958199,2999.547236615782,0.8434235269574615,984.5946619401197,712.713984,84.18524309465492,70.1658266415445,454.29432741909477,672.9558705570513,670.9395705677566,167.0,475.85165951018746,547.3109453692989,0.8694356718722404,874.8950298947368,712.713984,55.04419740804361,76.35263205673127,422.57657199543297,556.6905907404496,555.2187470221148,190.0,393.639691735317,528.8343927394332,0.744353425457468,938.2955825454545,712.713984,43.36815553361012,73.34353494667226,454.43803302494126,638.5927718278792,636.7771438149939,176.0,451.5532793762071,557.7433725840691,0.8096076109055766,deceptive
1784137666156686800,1784137676156686800,1584.4938917647055,1341.579264,178.8936415761417,64.92869997294487,1326.3462903169361,1861.0378721588595,1852.3958490265252,102.0,1315.9524994485128,1628.6569538342328,0.8079985759741842,2273.678213260274,1341.579264,59.631213858713906,63.21045100959377,2531.11001310053,3592.879028398272,3567.9172622903493,73.0,2540.5491249633524,3096.1009138365475,0.8205640564264488,1012.5753553170732,712.713984,16.263058325103792,69.66647940323769,526.419860636374,746.8350159281201,744.6701220152473,164.0,528.092104190337,644.0458866344462,0.8199603710691449,882.4077897142857,712.713984,42.09262154732746,76.25564836581611,446.8830344601775,584.0308992379101,582.4878913355967,189.0,412.97220927360354,560.4782512823418,0.7368211136270623,922.5686570666666,712.713984,84.18524309465492,74.46390909109644,457.9842856358706,644.6211395461781,642.8179999594608,180.0,455.81597906930233,561.7963228709708,0.8113545078756074,deceptive
1784137667156686800,1784137677156686800,1591.4812837647055,1341.579264,29.815606929356953,65.54967129640978,1331.735570561032,1917.9416908626254,1908.4233562050053,102.0,1356.1895755293554,1620.9300347047026,0.8366737283490604,2292.05601139726,1676.97408,35.77872831522834,63.006224307792,2527.804872092801,3524.3524740228613,3499.9441287607274,73.0,2492.093533673151,3110.358476520743,0.8012238950864644,1032.745217590062,712.713984,65.05223330041517,69.80569853350744,598.8488557469093,825.9668425266333,823.3826927703764,161.0,584.0467553858236,739.3812263104948,0.7899128820192141,884.4254257021277,712.713984,21.360434815061698,76.60956567378418,467.4562141021009,606.0046912511942,604.4861324742582,188.0,428.51002661457954,587.5544253520047,0.7293112061199413,930.108236224719,712.713984,28.62298265218268,73.89164931814302,444.00872713290585,598.6397860585728,596.9974896635888,178.0,423.30225221008084,551.9919394133424,0.7668631043054124,deceptive
1784137668156686800,1784137678156686800,1747.8886754042553,1383.5036159999997,8.085588319825616,61.74241347566473,1542.1283668776568,2086.007508406254,2074.8444272066445,94.0,1475.0300548001162,1915.3232021190788,0.7701207050424543,2177.2713472000005,1383.5036159999997,44.723410394035426,65.64118980184507,2506.980118220459,3474.975512305854,3451.442867864385,75.0,2457.1787492086664,3090.4748702301404,0.7950812908650786,1046.496324923077,712.713984,84.18524309465492,69.084602420645,601.6689379573021,814.5843124988478,811.952369229354,156.0,575.998091216117,747.0770517577357,0.7710022545343868,889.1549734331551,712.713984,84.18524309465492,76.10810931847317,463.30285785698743,609.3217191973764,607.681550087189,187.0,430.85551956871024,580.069682732594,0.7427651063214247,946.0529488457144,712.713984,84.18524309465492,73.09328818762918,459.4890939728911,615.828995074357,614.0575779672165,175.0,435.4568584683748,572.2316988480135,0.7609799655367108,deceptive
1784137669156686800,1784137679156686800,1745.044802064516,1383.5036159999997,57.24596530436536,61.31449081370245,1500.9105638076167,2088.281770241049,2077.923463444806,93.0,1476.6382007656935,1848.0354036431022,0.799031337741009,2146.8535056623377,1341.579264,12.778117255438694,65.22168611517611,2426.73160185659,3322.5821937774035,3301.0076770829774,77.0,2349.4204002696774,3003.025878392865,0.7823510337270291,1038.6164938867926,712.713984,84.18524309465492,69.2571536575763,592.767102426745,795.9932802421131,793.4703157964716,159.0,562.852246238122,737.7969570899223,0.7628823090544704,886.9130294759357,712.713984,84.18524309465492,75.91329126838711,446.0911739775333,590.2982239181727,588.7092621559948,187.0,417.403877054915,557.567639583818,0.7486156789272693,943.6572715885715,712.713984,84.18524309465492,73.06900706755955,450.37134042749165,592.1951111730524,590.49271871876,175.0,418.7451788959868,563.910388388612,0.7425739754370576,deceptive
1784137670156686800,1784137680156686800,1683.3910726530612,1383.5036159999997,43.36815553361012,62.42737440362176,1366.7006243484889,1996.0465277157462,1985.7332775366308,98.0,1411.4180353116662,1655.2011231229806,0.8527169391044442,2236.922616986301,1383.5036159999997,5.4005627645627685,65.57386434999533,2653.7777206087676,3560.2925301798778,3538.453529517431,73.0,2517.5069910980023,3303.9599960782325,0.7619665474419357,1033.51488,712.713984,42.09262154732746,69.65449463576617,595.8180511658501,781.4461545320194,778.9546412487583,158.0,552.5658750017417,746.5479067561056,0.7401613078023979,877.7495283809524,712.713984,79.50828514495187,76.31949003950628,432.40843729780494,560.0345203764531,558.5544772759706,189.0,396.00420705674566,543.6399978748238,0.7284309627782903,931.992476764045,712.713984,79.50828514495187,73.76335222780841,444.4633321666557,572.9363386852569,571.3723386062774,178.0,405.1271702725376,559.4919974716859,0.724098239301519,deceptive
1784137671156686800,1784137681156686800,1735.9301999999998,1383.5036159999997,22.361705197017713,59.66884763233557,1349.589629394571,1990.1175372069702,1979.7697774519777,96.0,1407.2256059173199,1628.693458746632,0.8640211565657397,2186.21520896,1341.579264,14.754114769166328,71.1583330393771,2593.6262170932127,3568.7729969740662,3544.653756151139,75.0,2523.5035866758003,3204.646428547724,0.7874514842560641,1030.1412205714287,712.713984,84.18524309465492,69.58168507236854,582.7091739286373,776.5851057576696,774.1544734864752,161.0,549.1285944497204,726.8623364434471,0.7554781241474393,859.3406036891192,712.713984,84.18524309465492,76.60121415066446,348.93587714797405,438.44880936640214,437.3055249970753,193.0,310.0301263061508,442.1008404350168,0.7012656343314989,921.4040917333333,712.713984,84.18524309465492,74.23391869724507,431.38629996763467,576.1589253290203,574.5472888145358,180.0,407.405883141304,537.7717943425996,0.7575813522152799,deceptive
1784137672156686800,1784137682156686800,1725.9593754947368,1635.0497279999997,26.502761714983965,56.607319248357015,1180.7691765020788,1739.4107037164047,1730.1855177342948,95.0,1229.9491038663343,1425.497912065814,0.8628206982666901,2304.042602057143,1530.238848,25.55623451087739,73.97235566297775,2886.353163344313,4028.2426202788965,3999.5352858930128,70.0,2848.3976730638747,3550.4062464931526,0.8022737330065612,1013.5979004878048,712.713984,65.05223330041517,69.90199609083167,554.6932876119401,722.8628536023026,720.6432190245351,164.0,511.1412256500467,696.2302854400756,0.7341554028017653,852.1016491546391,712.713984,84.18524309465492,77.0052973685273,344.2723437102114,432.5379939922755,431.4160286476245,194.0,305.8505486727642,436.20478473502374,0.7011627551461997,927.4884576536314,712.713984,84.18524309465492,74.0925164379395,455.27728717864534,617.0131955652286,615.2775713237709,179.0,436.29421466575457,565.1358204591969,0.7720165646397126,deceptive
1784137673156686800,1784137683156686800,1882.3081221818181,1676.97408,59.631213858713906,54.81142355078563,1358.519734113434,1865.9084917952348,1855.1719739769014,88.0,1319.396547621974,1679.5082944162195,0.7855850143809996,2156.8379468108105,1362.54144,19.877071286237967,77.29500042808573,2770.7823896668856,3844.63391904022,3818.3869129406203,74.0,2718.5667153331515,3414.552329210615,0.7961707577524919,1001.2975603435582,712.713984,84.18524309465492,70.72153630270752,550.2152583946142,708.248521635541,706.0608929664379,163.0,500.80733241383825,692.8706005025555,0.7228006673260358,879.9630032085562,712.713984,29.207125155288445,75.79942594853654,380.4365741318513,483.82419117759156,482.57574148418985,187.0,342.1153664837716,480.56478427179457,0.7119026979935349,912.9145413033708,712.713984,84.18524309465492,74.30276781966602,386.49787944021887,518.3829803954201,516.9165475271097,178.0,366.5521206892946,481.22862865031453,0.7617005698878531,deceptive
1784137674156686800,1784137684156686800,1821.8460074666664,1676.97408,25.107879519458486,56.28551487601062,1317.503465198311,1764.2854184481062,1754.3618931428578,90.0,1247.5381833332015,1641.1748847036267,0.7601494483986632,2027.3788491851853,1341.579264,44.723410394035426,75.16556464217662,2455.3349275375645,3327.0444923856153,3306.2807647867967,81.0,2352.5757218752233,3047.955535960692,0.7718536881915863,1020.4180242962962,712.713984,36.69613160536241,69.97760950518081,560.8251945680211,731.2389557022171,728.9870003901725,162.0,517.0640242448071,703.8268218392932,0.7346466605145517,883.7743079358289,712.713984,65.05223330041517,76.05424238345896,407.3517904071048,502.01794071506225,500.67275055869754,187.0,354.9802901569267,518.5223805158266,0.6845997463094879,932.3975884799999,712.713984,36.69613160536241,73.65657874362766,438.440047202314,582.2719888718657,580.6251791786648,175.0,411.72847182627413,547.4478812867351,0.7520870678292467,deceptive
1784137675156686800,1784137685156686800,1867.7534346067414,1676.97408,89.44682078807085,57.25414025631134,1363.2010939206893,1827.1627279762154,1816.8514020207217,89.0,1291.999155283293,1697.6464697653503,0.761053127546558,1961.1280213333337,1341.579264,59.631213858713906,72.86754204084477,2224.668641134059,2937.982461312932,2919.565337119212,81.0,2077.467321401518,2782.1513060840025,0.74671255903966,1006.1844479999999,712.713984,84.18524309465492,70.0642506437876,532.4034398557308,688.3863215631386,686.2843736896708,165.0,486.76263605335856,669.6550706233936,0.7268856123201198,888.751182451613,712.713984,62.2238753308319,75.91164867804191,418.28655014269947,526.0902058592065,524.6681756733853,186.0,372.0019520788717,529.8438919958562,0.7020972737414911,923.5003093333332,712.713984,65.05223330041517,73.80940694850602,425.0915943563464,562.0702872601863,560.4980596007118,180.0,397.44371162514847,531.4367085831143,0.7478665007631667,deceptive
1784137676156686800,1784137686156686800,1907.317071448276,1676.97408,29.815606929356953,54.822871219121254,1333.5247677493965,1749.0421122360824,1738.8589043960544,87.0,1236.7595381429765,1670.864906211256,0.7401912228483938,1957.6627293658537,1341.579264,89.44682078807085,73.89043671107895,2218.0142849588933,2938.740411237001,2920.570118587781,82.0,2078.0032729326267,2771.304013529383,0.7498286953679232,1003.6280850731706,712.713984,65.05223330041517,69.39028648462566,490.58438339114133,632.1420819467083,630.2013247549011,164.0,446.99195281789963,617.6124768109473,0.7237417791912986,903.3208739672132,712.713984,42.09262154732746,74.85671462175806,410.17730979901586,512.4630238838727,511.0532192213539,183.0,362.36607929565,520.4193148182194,0.6962963690581376,939.2484087272728,712.713984,84.18524309465492,73.20205967074122,449.179113400952,591.171029420781,589.493618063882,176.0,418.0210437444662,562.2748040991381,0.7434461595948774,deceptive
1784137677156686800,1784137687156686800,1819.3325939340655,1676.97408,19.877071286237967,56.11309107283854,1238.57713730128,1576.9417344100536,1568.2671715959773,91.0,1115.0661939374245,1564.1164731757735,0.7129048335341678,2019.015439609756,1341.579264,17.88936415761417,73.5022399379095,2270.9630235925197,3015.9109784542497,2997.3079308818556,82.0,2132.5711043199553,2835.5980588861216,0.7520710128986585,978.1521889704143,712.713984,42.09262154732746,69.92319880949039,408.95362922109246,554.1419112602182,552.4902178358665,169.0,391.8375031917744,507.659164452316,0.7718515307696752,907.4445807213114,712.713984,79.50828514495187,74.89936074839022,426.02910106375424,547.5352962023583,546.0698688363407,183.0,387.1659208836724,536.7055661715556,0.7213748939579966,928.9305858876405,712.713984,79.50828514495187,73.88464947395315,465.9086635646779,622.5704228965667,620.8157650031895,178.0,440.2237677963389,580.7265128292714,0.7580569477559929,deceptive
1784137678156686800,1784137688156686800,1754.9623907096773,1676.97408,35.77872831522834,56.14760968637804,1087.5870062508654,1395.997075671598,1388.46598349571,93.0,987.1189987239769,1370.579816541352,0.7202200023745894,2061.7228800000003,1341.579264,29.815606929356953,70.26956170420056,2281.1463076049918,3093.045317620911,3073.2624385275335,79.0,2187.113318607045,2831.170185486138,0.7725121329050368,982.0162921411766,712.713984,42.09262154732746,69.83943509728314,414.7981220357111,566.7849622324411,565.1213315869327,170.0,400.77749026912034,513.6182100894573,0.7803023381887425,922.3357440000001,712.713984,42.09262154732746,74.24085046150407,444.3234169545699,574.1830989884387,572.5996147452059,181.0,406.00876293743164,558.9499440176887,0.7263776788652526,917.2679651868133,712.713984,42.09262154732746,74.17649161805258,446.05772273347213,597.2434497200873,595.6043372124439,182.0,422.3148933163206,555.6618121321228,0.7600214448710476,deceptive
1784137679156686800,1784137689156686800,1739.198644547368,1676.97408,34.906076405100826,56.452713482906056,1097.0243665977891,1410.8682912685028,1403.3436776027677,95.0,997.6345361170354,1381.769730451436,0.7219976774213309,2035.3761623414632,1341.579264,29.815606929356953,67.8019100092392,2261.144738113523,2993.611721431203,2975.0867735893253,82.0,2116.8031484635376,2825.7960416003793,0.7490997642082808,997.344976192771,712.713984,79.50828514495187,69.15949253068057,433.33247009670254,603.2307511508826,601.4000547732921,166.0,426.5485547590439,533.462486494322,0.7995849109505921,920.6962442011175,712.713984,44.723410394035426,73.9998269710114,427.2079964675851,558.9297961028368,557.3687544116027,179.0,395.2230490315302,535.642338924778,0.7378487851144879,924.9121008268157,712.713984,79.50828514495187,73.62070761365844,428.65706634667197,572.0930893647005,570.4838715360995,179.0,404.53090295974124,534.4821188151747,0.7568651760633158,deceptive
1784137680156686800,1784137690156686800,1662.3005567999996,1676.97408,57.24596530436536,61.00451716304568,1108.659747277392,1345.9219355528912,1339.1221631234087,100.0,951.7105275771728,1416.1131333038793,0.6720582594674293,1872.1391668965523,1341.579264,7.120144938353899,72.66760557451897,2066.3143377249785,2703.212944254128,2689.097079148398,87.0,1911.460203873347,2590.843459007098,0.7377752589521119,991.5361804337348,712.713984,84.18524309465492,69.25582200560122,416.1543186922426,572.2108294563432,570.4756366387224,166.0,404.6141577769593,514.3078121083037,0.7867159476312895,927.4598314666666,712.713984,65.05223330041517,73.88525173323005,439.54227059669614,584.4361073286714,582.8024943765954,180.0,413.2587346623724,548.6377897987213,0.7532451142565016,944.4889527272727,712.713984,65.05223330041517,72.4559450469991,442.8910219999641,600.9494592992255,599.2438406312381,176.0,424.93543782087147,549.5633280872528,0.7732237871472486,deceptive
1784137681156686800,1784137691156686800,1656.9435562666663,1509.2766719999997,57.24596530436536,62.788410354624276,1160.2466963636468,1411.9387708192796,1404.0069607258295,90.0,998.3914794665112,1481.199520560903,0.6740425348561001,1842.4649431578946,1341.579264,7.120144938353899,66.99430503651524,1802.68726751018,2230.884649102919,2217.7889747043555,76.0,1577.4736634256456,2292.4116535835956,0.6881284436674676,997.4029958918919,712.713984,84.18524309465492,69.03476634602364,420.7027252468076,573.0657122476949,571.1337624005013,148.0,405.21865119584385,521.4216033323631,0.7771420451437462,944.6246400000001,712.713984,65.05223330041517,73.10395888885851,456.7079786714774,613.3081192031913,611.3532464603542,158.0,433.674330045344,568.4431750792988,0.7629158886195541,940.1137919999999,712.713984,65.05223330041517,72.74822843056057,446.8609765882714,606.4542344271814,604.5212406888481,158.0,428.82790164275616,554.4571941829076,0.7734193119717946,deceptive
1784137682156686800,1784137692156686800,1591.0291584000001,1362.54144,57.24596530436536,63.08112174292555,1036.526754396362,1343.4927136092733,1335.6206675085996,80.0,949.9928082678334,1302.893801228101,0.7291406309342904,1878.6970490434783,1341.579264,7.120144938353899,67.39251060289494,1872.7935523792594,2302.19708888779,2288.3023228369025,69.0,1627.8991731804851,2385.3057499293036,0.6824698147098054,990.1081927218046,712.713984,84.18524309465492,69.23253280173488,408.9447086882765,559.5564663802799,557.4329047674439,133.0,395.6661718342783,506.1577716100804,0.7817052192553916,960.9182998260869,712.713984,65.05223330041517,72.41942647920226,474.97027810600275,646.1071467513617,643.7552465357978,138.0,456.86674484097966,588.9226765012456,0.7757669437271419,927.3197578741258,712.713984,65.05223330041517,73.04405464413882,419.3465323205275,608.6381650382538,606.5016346055228,143.0,430.3721737874863,509.0117133752614,0.8455054421708381,deceptive
1784137683156686800,1784137693156686800,1565.9312017297298,1362.54144,57.24596530436536,63.22860569171618,999.0143507343445,1350.2320083836785,1341.0227894664959,74.0,954.7582093032303,1241.0792588833206,0.7692967249829702,1838.4859278688525,1341.579264,7.120144938353899,65.06127111560788,1744.5070984894696,2216.285154030226,2199.364186015326,61.0,1567.1502614578446,2204.230038441224,0.7109740064000278,1016.9437949734514,712.713984,84.18524309465492,68.0005312357798,429.1500926343625,582.7917099279033,580.2856727419392,113.0,412.09597010932384,532.3796199386219,0.7740641352064425,941.7641022439025,712.713984,65.05223330041517,73.23295517281215,459.33018204599847,628.8090451208318,626.409169107539,123.0,444.63513987637793,568.434893783252,0.7822094398834006,904.9764419999999,712.713984,65.05223330041517,73.45328770565891,344.2136859265611,485.78067499536786,483.8671881569738,128.0,343.498809458603,421.86538979698213,0.8142379483273274,deceptive
1784137684156686800,1784137694156686800,1511.8175418181818,1341.579264,57.24596530436536,66.28304828235328,989.6518707953693,1350.0911358767391,1339.6731737470302,66.0,954.6585973982909,1226.0241155639283,0.7786621692666961,1945.115248,1341.579264,7.120144938353899,65.14945225103317,1875.6666183666118,2419.085020228072,2396.3297673315137,48.0,1710.5514220700663,2360.774754765206,0.7245720578031983,1002.3342524081633,712.713984,84.18524309465492,68.57994690884686,420.19704600223736,587.5021465454263,584.4659394163172,98.0,415.42675178392375,516.5669577984463,0.8042069774544399,944.2961188571428,712.713984,65.05223330041517,72.74074903874684,441.8953692132987,624.0678710715467,621.063568264291,105.0,441.28262355534275,541.4590083638575,0.8149880540149832,893.2530854054052,712.713984,65.05223330041517,74.14946683193686,337.3800042351199,469.61680091787673,467.49967771597096,111.0,332.0692244881635,415.34991222978954,0.7994927041285818,deceptive
1784137685156686800,1784137695156686800,1521.4728471272729,1383.5036159999997,57.24596530436536,65.95058735522014,997.4339195268454,1356.8145269727734,1344.2575170878283,55.0,959.412752834866,1236.7345844983406,0.7757628555556524,1903.5652205714287,1341.579264,7.120144938353899,66.23356177264779,1875.0525644047943,2316.6418796603593,2294.731935993006,42.0,1638.1131826885899,2385.358849086007,0.6867365819261375,1018.2376991999997,712.713984,84.18524309465492,68.0520184523609,435.90474966658394,611.2272381945309,607.4133928195694,80.0,432.20292497327785,535.3748382078168,0.8072903209648217,946.912088275862,712.713984,65.05223330041517,72.27271458019717,434.165862628437,619.6184838297642,616.0103396230904,87.0,438.13643166455336,530.1115223874272,0.8264986010704845,905.2895789010988,712.713984,65.05223330041517,73.30276910305031,336.61411353489177,460.99059560335087,458.42829971740014,91.0,325.96957621435484,416.5213566590301,0.7825999099517911,deceptive
1784137686156686800,1784137696156686800,1512.1351505454547,1656.011904,57.24596530436536,63.88105927274981,969.4136480375115,1329.2423728888343,1314.0427895554665,44.0,939.9162957101921,1199.084784546951,0.7838614148250741,2036.7120681290323,1341.579264,7.120144938353899,59.75584632774889,1925.1686234943413,2398.906912462921,2362.4784647930223,31.0,1696.2833452378147,2444.148085552223,0.6940182369737887,995.8646075076923,712.713984,84.18524309465492,69.31434243342535,424.84174342318255,562.7717326177689,558.3577685263324,65.0,397.9397083941269,530.851210935133,0.7496256958576532,921.7534613333332,712.713984,65.05223330041517,73.75259091634449,430.1722384420006,636.9879305085138,632.496115407741,72.0,450.4184851965554,518.3222005172295,0.8689932338361863,889.6002910684932,712.713984,65.05223330041517,74.66144129953848,351.476692713016,504.1190553594002,500.61140603687926,73.0,356.46600256998846,428.41303148579203,0.8320615302800619,deceptive
1784137687156686800,1784137697156686800,1614.7637512258066,1676.97408,57.24596530436536,62.108633880819696,1081.1753629425475,1401.176102898416,1378.3062443732692,31.0,990.7811239960098,1359.0646463779788,0.7290169210394256,1796.2972356923078,1173.881856,7.120144938353899,73.74843484270203,1932.2966967904115,2585.3278637496073,2547.4417526458888,26.0,1828.102864047878,2407.60482805718,0.7593035379992439,1020.4565678297872,712.713984,84.18524309465492,68.15972635886537,447.90919094916245,602.9829394461806,596.5939878598597,47.0,426.37332542219167,557.0890237275165,0.7653594080337498,918.4538595555558,712.713984,65.05223330041517,72.91170400916468,368.0440856164182,533.8166090741663,528.7714138795313,54.0,377.4653441863513,446.84768644761994,0.8447293241846028,940.0729698461538,712.713984,65.05223330041517,71.93574361253806,389.52957593209453,578.3892415849331,572.7054359179704,52.0,408.9829548900505,468.86357542080003,0.872285620658403,deceptive
1784137688156686800,1784137698156686800,1261.224256,1006.184448,57.24596530436536,82.74646977473144,1046.5339346225896,1438.051241384087,1406.783186428058,24.0,1016.8557844764206,1293.6261861224436,0.7860507118554677,1679.4402183529412,1299.6549119999997,7.120144938353899,69.88135636901279,1897.827861568035,2302.355736849589,2285.3098485031996,17.0,1628.0113542300949,2424.5186531632926,0.6714781724223953,983.1936743225808,712.713984,84.18524309465492,69.78616182558193,426.0139557202779,579.7302564405304,570.2328373258437,31.0,409.9311955881152,528.1609493125434,0.7761482482218411,882.807069257143,712.713984,65.05223330041517,75.02433180288972,354.2754187481455,499.0670901511661,491.7117486013794,35.0,352.89372371292757,434.4596120934139,0.8122589853922976,872.2594346666668,712.713984,65.05223330041517,75.51728996985463,330.6932028140562,447.83741624050333,441.4730103025501,36.0,316.6688738927224,410.58056569764057,0.7712709766343969,deceptive
1784137689156686800,1784137699156686800,1057.0925897142856,1027.146624,57.24596530436536,81.51224598732946,550.1224563684495,683.6501337442689,658.3797149487177,14.0,483.4136455296627,698.8741357780915,0.6917034424109201,2154.9116928,670.789632,7.120144938353899,102.79709254748441,3517.100830673576,4073.4098242473156,4066.5000620895985,5.0,2880.3357092771794,4537.8221215888225,0.634739668523783,946.2925165714286,712.713984,84.18524309465492,73.63686988028813,485.78681469077196,683.9796672319027,657.1464081243746,14.0,483.64666089339664,595.8360616462776,0.8117109588115481,930.19656,712.713984,65.05223330041517,73.27494660226068,440.2971880540814,612.0025492292094,591.4157647825773,16.0,432.7511526634279,542.2973792587417,0.7979960243491294,944.6953983999999,712.713984,65.05223330041517,73.06456077496325,468.1567538466699,793.3494427182634,764.6372650954406,15.0,560.9827707966525,530.0855193071758,1.0582872958496576,deceptive
1784137690156686800,1784137700156686800,,,,,,,,0.0,,,,,,,,,,,0.0,,,,,,,,,,,0.0,,,,,,,,,,,0.0,,,,,,,,,,,0.0,,,,deceptive
1784137691156686800,1784137701156686800,,,,,,,,0.0,,,,,,,,,,,0.0,,,,,,,,,,,0.0,,,,,,,,,,,0.0,,,,,,,,,,,0.0,,,,deceptive
1784137692156686800,1784137702156686800,,,,,,,,0.0,,,,,,,,,,,0.0,,,,,,,,,,,0.0,,,,,,,,,,,0.0,,,,,,,,,,,0.0,,,,deceptive
1784137693156686800,1784137703156686800,,,,,,,,0.0,,,,,,,,,,,0.0,,,,,,,,,,,0.0,,,,,,,,,,,0.0,,,,,,,,,,,0.0,,,,deceptive
1784137694156686800,1784137704156686800,,,,,,,,0.0,,,,,,,,,,,0.0,,,,,,,,,,,0.0,,,,,,,,,,,0.0,,,,,,,,,,,0.0,,,,deceptive
1784137695156686800,1784137705156686800,,,,,,,,0.0,,,,,,,,,,,0.0,,,,,,,,,,,0.0,,,,,,,,,,,0.0,,,,,,,,,,,0.0,,,,deceptive
1784137696156686800,1784137706156686800,,,,,,,,0.0,,,,,,,,,,,0.0,,,,,,,,,,,0.0,,,,,,,,,,,0.0,,,,,,,,,,,0.0,,,,deceptive
1784137697156686800,1784137707156686800,,,,,,,,0.0,,,,,,,,,,,0.0,,,,,,,,,,,0.0,,,,,,,,,,,0.0,,,,,,,,,,,0.0,,,,deceptive
1784137698156686800,1784137708156686800,,,,,,,,0.0,,,,,,,,,,,0.0,,,,,,,,,,,0.0,,,,,,,,,,,0.0,,,,,,,,,,,0.0,,,,deceptive
1784137699156686800,1784137709156686800,,,,,,,,0.0,,,,,,,,,,,0.0,,,,,,,,,,,0.0,,,,,,,,,,,0.0,,,,,,,,,,,0.0,,,,deceptive
1784137700156686800,1784137710156686800,,,,,,,,0.0,,,,,,,,,,,0.0,,,,,,,,,,,0.0,,,,,,,,,,,0.0,,,,,,,,,,,0.0,,,,deceptive
1784137701156686800,1784137711156686800,,,,,,,,0.0,,,,,,,,,,,0.0,,,,,,,,,,,0.0,,,,,,,,,,,0.0,,,,,,,,,,,0.0,,,,deceptive
1784137702156686800,1784137712156686800,,,,,,,,0.0,,,,,,,,,,,0.0,,,,,,,,,,,0.0,,,,,,,,,,,0.0,,,,,,,,,,,0.0,,,,deceptive
1784137703156686800,1784137713156686800,,,,,,,,0.0,,,,,,,,,,,0.0,,,,,,,,,,,0.0,,,,,,,,,,,0.0,,,,,,,,,,,0.0,,,,deceptive
1784137704156686800,1784137714156686800,,,,,,,,0.0,,,,,,,,,,,0.0,,,,,,,,,,,0.0,,,,,,,,,,,0.0,,,,,,,,,,,0.0,,,,deceptive
1784137705156686800,1784137715156686800,,,,,,,,0.0,,,,,,,,,,,0.0,,,,,,,,,,,0.0,,,,,,,,,,,0.0,,,,,,,,,,,0.0,,,,deceptive
1784137706156686800,1784137716156686800,,,,,,,,0.0,,,,,,,,,,,0.0,,,,,,,,,,,0.0,,,,,,,,,,,0.0,,,,,,,,,,,0.0,,,,deceptive
1784137707156686800,1784137717156686800,,,,,,,,0.0,,,,,,,,,,,0.0,,,,,,,,,,,0.0,,,,,,,,,,,0.0,,,,,,,,,,,0.0,,,,deceptive
1784137708156686800,1784137718156686800,,,,,,,,0.0,,,,,,,,,,,0.0,,,,,,,,,,,0.0,,,,,,,,,,,0.0,,,,,,,,,,,0.0,,,,deceptive
1784137709156686800,1784137719156686800,,,,,,,,0.0,,,,,,,,,,,0.0,,,,,,,,,,,0.0,,,,,,,,,,,0.0,,,,,,,,,,,0.0,,,,deceptive
1784137710156686800,1784137720156686800,,,,,,,,0.0,,,,,,,,,,,0.0,,,,,,,,,,,0.0,,,,,,,,,,,0.0,,,,,,,,,,,0.0,,,,deceptive
1784137711156686800,1784137721156686800,,,,,,,,0.0,,,,,,,,,,,0.0,,,,,,,,,,,0.0,,,,,,,,,,,0.0,,,,,,,,,,,0.0,,,,deceptive
1784137712156686800,1784137722156686800,,,,,,,,0.0,,,,,,,,,,,0.0,,,,,,,,,,,0.0,,,,,,,,,,,0.0,,,,,,,,,,,0.0,,,,deceptive
1784137713156686800,1784137723156686800,,,,,,,,0.0,,,,,,,,,,,0.0,,,,,,,,,,,0.0,,,,,,,,,,,0.0,,,,,,,,,,,0.0,,,,deceptive
1784137714156686800,1784137724156686800,,,,,,,,0.0,,,,,,,,,,,0.0,,,,,,,,,,,0.0,,,,,,,,,,,0.0,,,,,,,,,,,0.0,,,,deceptive
1784137715156686800,1784137725156686800,,,,,,,,0.0,,,,,,,,,,,0.0,,,,,,,,,,,0.0,,,,,,,,,,,0.0,,,,,,,,,,,0.0,,,,deceptive
1784137716156686800,1784137726156686800,,,,,,,,0.0,,,,,,,,,,,0.0,,,,,,,,,,,0.0,,,,,,,,,,,0.0,,,,,,,,,,,0.0,,,,deceptive
1784137717156686800,1784137727156686800,,,,,,,,0.0,,,,,,,,,,,0.0,,,,,,,,,,,0.0,,,,,,,,,,,0.0,,,,,,,,,,,0.0,,,,deceptive
1784137718156686800,1784137728156686800,,,,,,,,0.0,,,,,,,,,,,0.0,,,,,,,,,,,0.0,,,,,,,,,,,0.0,,,,,,,,,,,0.0,,,,deceptive
1784137719156686800,1784137729156686800,,,,,,,,0.0,,,,,,,,,,,0.0,,,,,,,,,,,0.0,,,,,,,,,,,0.0,,,,,,,,,,,0.0,,,,deceptive
1784137720156686800,1784137730156686800,,,,,,,,0.0,,,,,,,,,,,0.0,,,,,,,,,,,0.0,,,,,,,,,,,0.0,,,,,,,,,,,0.0,,,,deceptive
1784137721156686800,1784137731156686800,,,,,,,,0.0,,,,,,,,,,,0.0,,,,,,,,,,,0.0,,,,,,,,,,,0.0,,,,,,,,,,,0.0,,,,deceptive
1784137722156686800,1784137732156686800,,,,,,,,0.0,,,,,,,,,,,0.0,,,,,,,,,,,0.0,,,,,,,,,,,0.0,,,,,,,,,,,0.0,,,,deceptive
1784137723156686800,1784137733156686800,,,,,,,,0.0,,,,,,,,,,,0.0,,,,,,,,,,,0.0,,,,,,,,,,,0.0,,,,,,,,,,,0.0,,,,deceptive
1784137724156686800,1784137734156686800,,,,,,,,0.0,,,,,,,,,,,0.0,,,,,,,,,,,0.0,,,,,,,,,,,0.0,,,,,,,,,,,0.0,,,,deceptive
1784137725156686800,1784137735156686800,,,,,,,,0.0,,,,,,,,,,,0.0,,,,,,,,,,,0.0,,,,,,,,,,,0.0,,,,,,,,,,,0.0,,,,deceptive
1784137726156686800,1784137736156686800,,,,,,,,0.0,,,,,,,,,,,0.0,,,,,,,,,,,0.0,,,,,,,,,,,0.0,,,,,,,,,,,0.0,,,,deceptive
1784137727156686800,1784137737156686800,,,,,,,,0.0,,,,,,,,,,,0.0,,,,,,,,,,,0.0,,,,,,,,,,,0.0,,,,,,,,,,,0.0,,,,deceptive
1784137728156686800,1784137738156686800,,,,,,,,0.0,,,,,,,,,,,0.0,,,,,,,,,,,0.0,,,,,,,,,,,0.0,,,,,,,,,,,0.0,,,,deceptive
1784137729156686800,1784137739156686800,,,,,,,,0.0,,,,,,,,,,,0.0,,,,,,,,,,,0.0,,,,,,,,,,,0.0,,,,,,,,,,,0.0,,,,deceptive
1784137730156686800,1784137740156686800,,,,,,,,0.0,,,,,,,,,,,0.0,,,,,,,,,,,0.0,,,,,,,,,,,0.0,,,,,,,,,,,0.0,,,,deceptive
1784137731156686800,1784137741156686800,,,,,,,,0.0,,,,,,,,,,,0.0,,,,,,,,,,,0.0,,,,,,,,,,,0.0,,,,,,,,,,,0.0,,,,deceptive
1784137732156686800,1784137742156686800,,,,,,,,0.0,,,,,,,,,,,0.0,,,,,,,,,,,0.0,,,,,,,,,,,0.0,,,,,,,,,,,0.0,,,,deceptive
1784137733156686800,1784137743156686800,,,,,,,,0.0,,,,,,,,,,,0.0,,,,,,,,,,,0.0,,,,,,,,,,,0.0,,,,,,,,,,,0.0,,,,deceptive
1784137734156686800,1784137744156686800,,,,,,,,0.0,,,,,,,,,,,0.0,,,,,,,,,,,0.0,,,,,,,,,,,0.0,,,,,,,,,,,0.0,,,,deceptive
1784137735156686800,1784137745156686800,,,,,,,,0.0,,,,,,,,,,,0.0,,,,,,,,,,,0.0,,,,,,,,,,,0.0,,,,,,,,,,,0.0,,,,deceptive
1784137736156686800,1784137746156686800,,,,,,,,0.0,,,,,,,,,,,0.0,,,,,,,,,,,0.0,,,,,,,,,,,0.0,,,,,,,,,,,0.0,,,,deceptive
1784137737156686800,1784137747156686800,,,,,,,,0.0,,,,,,,,,,,0.0,,,,,,,,,,,0.0,,,,,,,,,,,0.0,,,,,,,,,,,0.0,,,,deceptive
1784137738156686800,1784137748156686800,,,,,,,,0.0,,,,,,,,,,,0.0,,,,,,,,,,,0.0,,,,,,,,,,,0.0,,,,,,,,,,,0.0,,,,deceptive
1784137739156686800,1784137749156686800,,,,,,,,0.0,,,,,,,,,,,0.0,,,,,,,,,,,0.0,,,,,,,,,,,0.0,,,,,,,,,,,0.0,,,,deceptive
1784137740156686800,1784137750156686800,,,,,,,,0.0,,,,,,,,,,,0.0,,,,,,,,,,,0.0,,,,,,,,,,,0.0,,,,,,,,,,,0.0,,,,deceptive
1784137741156686800,1784137751156686800,,,,,,,,0.0,,,,,,,,,,,0.0,,,,,,,,,,,0.0,,,,,,,,,,,0.0,,,,,,,,,,,0.0,,,,deceptive
1784137742156686800,1784137752156686800,,,,,,,,0.0,,,,,,,,,,,0.0,,,,,,,,,,,0.0,,,,,,,,,,,0.0,,,,,,,,,,,0.0,,,,deceptive
1784137743156686800,1784137753156686800,,,,,,,,0.0,,,,,,,,,,,0.0,,,,,,,,,,,0.0,,,,,,,,,,,0.0,,,,,,,,,,,0.0,,,,deceptive
1784137744156686800,1784137754156686800,,,,,,,,0.0,,,,,,,,,,,0.0,,,,,,,,,,,0.0,,,,,,,,,,,0.0,,,,,,,,,,,0.0,,,,deceptive
1784137745156686800,1784137755156686800,,,,,,,,0.0,,,,,,,,,,,0.0,,,,,,,,,,,0.0,,,,,,,,,,,0.0,,,,,,,,,,,0.0,,,,deceptive
1784137746156686800,1784137756156686800,,,,,,,,0.0,,,,,,,,,,,0.0,,,,,,,,,,,0.0,,,,,,,,,,,0.0,,,,,,,,,,,0.0,,,,deceptive
1784137747156686800,1784137757156686800,,,,,,,,0.0,,,,,,,,,,,0.0,,,,,,,,,,,0.0,,,,,,,,,,,0.0,,,,,,,,,,,0.0,,,,deceptive
1784137748156686800,1784137758156686800,,,,,,,,0.0,,,,,,,,,,,0.0,,,,,,,,,,,0.0,,,,,,,,,,,0.0,,,,,,,,,,,0.0,,,,deceptive
1784137749156686800,1784137759156686800,,,,,,,,0.0,,,,,,,,,,,0.0,,,,,,,,,,,0.0,,,,,,,,,,,0.0,,,,,,,,,,,0.0,,,,deceptive
1784137750156686800,1784137760156686800,,,,,,,,0.0,,,,,,,,,,,0.0,,,,,,,,,,,0.0,,,,,,,,,,,0.0,,,,,,,,,,,0.0,,,,deceptive
1784137751156686800,1784137761156686800,,,,,,,,0.0,,,,,,,,,,,0.0,,,,,,,,,,,0.0,,,,,,,,,,,0.0,,,,,,,,,,,0.0,,,,deceptive
1784137752156686800,1784137762156686800,,,,,,,,0.0,,,,,,,,,,,0.0,,,,,,,,,,,0.0,,,,,,,,,,,0.0,,,,,,,,,,,0.0,,,,deceptive
1784137753156686800,1784137763156686800,,,,,,,,0.0,,,,,,,,,,,0.0,,,,,,,,,,,0.0,,,,,,,,,,,0.0,,,,,,,,,,,0.0,,,,deceptive
1784137754156686800,1784137764156686800,,,,,,,,0.0,,,,,,,,,,,0.0,,,,,,,,,,,0.0,,,,,,,,,,,0.0,,,,,,,,,,,0.0,,,,deceptive
1784137755156686800,1784137765156686800,,,,,,,,0.0,,,,,,,,,,,0.0,,,,,,,,,,,0.0,,,,,,,,,,,0.0,,,,,,,,,,,0.0,,,,deceptive
1784137756156686800,1784137766156686800,,,,,,,,0.0,,,,,,,,,,,0.0,,,,,,,,,,,0.0,,,,,,,,,,,0.0,,,,,,,,,,,0.0,,,,deceptive
1784137757156686800,1784137767156686800,,,,,,,,0.0,,,,,,,,,,,0.0,,,,,,,,,,,0.0,,,,,,,,,,,0.0,,,,,,,,,,,0.0,,,,deceptive
1784137758156686800,1784137768156686800,,,,,,,,0.0,,,,,,,,,,,0.0,,,,,,,,,,,0.0,,,,,,,,,,,0.0,,,,,,,,,,,0.0,,,,deceptive
1784137759156686800,1784137769156686800,,,,,,,,0.0,,,,,,,,,,,0.0,,,,,,,,,,,0.0,,,,,,,,,,,0.0,,,,,,,,,,,0.0,,,,deceptive
1784137760156686800,1784137770156686800,,,,,,,,0.0,,,,,,,,,,,0.0,,,,,,,,,,,0.0,,,,,,,,,,,0.0,,,,,,,,,,,0.0,,,,deceptive
1784137761156686800,1784137771156686800,,,,,,,,0.0,,,,,,,,,,,0.0,,,,,,,,,,,0.0,,,,,,,,,,,0.0,,,,,,,,,,,0.0,,,,deceptive
1784137762156686800,1784137772156686800,,,,,,,,0.0,,,,,,,,,,,0.0,,,,,,,,,,,0.0,,,,,,,,,,,0.0,,,,,,,,,,,0.0,,,,deceptive
1784137763156686800,1784137773156686800,,,,,,,,0.0,,,,,,,,,,,0.0,,,,,,,,,,,0.0,,,,,,,,,,,0.0,,,,,,,,,,,0.0,,,,deceptive
1784137764156686800,1784137774156686800,,,,,,,,0.0,,,,,,,,,,,0.0,,,,,,,,,,,0.0,,,,,,,,,,,0.0,,,,,,,,,,,0.0,,,,deceptive
1784137765156686800,1784137775156686800,,,,,,,,0.0,,,,,,,,,,,0.0,,,,,,,,,,,0.0,,,,,,,,,,,0.0,,,,,,,,,,,0.0,,,,deceptive
1784137766156686800,1784137776156686800,,,,,,,,0.0,,,,,,,,,,,0.0,,,,,,,,,,,0.0,,,,,,,,,,,0.0,,,,,,,,,,,0.0,,,,deceptive
1784137767156686800,1784137777156686800,,,,,,,,0.0,,,,,,,,,,,0.0,,,,,,,,,,,0.0,,,,,,,,,,,0.0,,,,,,,,,,,0.0,,,,deceptive
1784137768156686800,1784137778156686800,,,,,,,,0.0,,,,,,,,,,,0.0,,,,,,,,,,,0.0,,,,,,,,,,,0.0,,,,,,,,,,,0.0,,,,deceptive
1784137769156686800,1784137779156686800,,,,,,,,0.0,,,,,,,,,,,0.0,,,,,,,,,,,0.0,,,,,,,,,,,0.0,,,,,,,,,,,0.0,,,,deceptive
1784137770156686800,1784137780156686800,,,,,,,,0.0,,,,,,,,,,,0.0,,,,,,,,,,,0.0,,,,,,,,,,,0.0,,,,,,,,,,,0.0,,,,deceptive
1784137771156686800,1784137781156686800,,,,,,,,0.0,,,,,,,,,,,0.0,,,,,,,,,,,0.0,,,,,,,,,,,0.0,,,,,,,,,,,0.0,,,,deceptive
1784137772156686800,1784137782156686800,,,,,,,,0.0,,,,,,,,,,,0.0,,,,,,,,,,,0.0,,,,,,,,,,,0.0,,,,,,,,,,,0.0,,,,deceptive
1784137773156686800,1784137783156686800,,,,,,,,0.0,,,,,,,,,,,0.0,,,,,,,,,,,0.0,,,,,,,,,,,0.0,,,,,,,,,,,0.0,,,,deceptive
1784137774156686800,1784137784156686800,,,,,,,,0.0,,,,,,,,,,,0.0,,,,,,,,,,,0.0,,,,,,,,,,,0.0,,,,,,,,,,,0.0,,,,deceptive
1784137775156686800,1784137785156686800,,,,,,,,0.0,,,,,,,,,,,0.0,,,,,,,,,,,0.0,,,,,,,,,,,0.0,,,,,,,,,,,0.0,,,,deceptive
1784137776156686800,1784137786156686800,,,,,,,,0.0,,,,,,,,,,,0.0,,,,,,,,,,,0.0,,,,,,,,,,,0.0,,,,,,,,,,,0.0,,,,deceptive
1784137777156686800,1784137787156686800,,,,,,,,0.0,,,,,,,,,,,0.0,,,,,,,,,,,0.0,,,,,,,,,,,0.0,,,,,,,,,,,0.0,,,,deceptive
1784137778156686800,1784137788156686800,,,,,,,,0.0,,,,,,,,,,,0.0,,,,,,,,,,,0.0,,,,,,,,,,,0.0,,,,,,,,,,,0.0,,,,deceptive
1784137779156686800,1784137789156686800,,,,,,,,0.0,,,,,,,,,,,0.0,,,,,,,,,,,0.0,,,,,,,,,,,0.0,,,,,,,,,,,0.0,,,,deceptive
1784137780156686800,1784137790156686800,,,,,,,,0.0,,,,,,,,,,,0.0,,,,,,,,,,,0.0,,,,,,,,,,,0.0,,,,,,,,,,,0.0,,,,deceptive
1784137781156686800,1784137791156686800,,,,,,,,0.0,,,,,,,,,,,0.0,,,,,,,,,,,0.0,,,,,,,,,,,0.0,,,,,,,,,,,0.0,,,,deceptive
1784137782156686800,1784137792156686800,,,,,,,,0.0,,,,,,,,,,,0.0,,,,,,,,,,,0.0,,,,,,,,,,,0.0,,,,,,,,,,,0.0,,,,deceptive
1784137783156686800,1784137793156686800,,,,,,,,0.0,,,,,,,,,,,0.0,,,,,,,,,,,0.0,,,,,,,,,,,0.0,,,,,,,,,,,0.0,,,,deceptive
1784137784156686800,1784137794156686800,,,,,,,,0.0,,,,,,,,,,,0.0,,,,,,,,,,,0.0,,,,,,,,,,,0.0,,,,,,,,,,,0.0,,,,deceptive
1784137785156686800,1784137795156686800,,,,,,,,0.0,,,,,,,,,,,0.0,,,,,,,,,,,0.0,,,,,,,,,,,0.0,,,,,,,,,,,0.0,,,,deceptive
1784137786156686800,1784137796156686800,,,,,,,,0.0,,,,,,,,,,,0.0,,,,,,,,,,,0.0,,,,,,,,,,,0.0,,,,,,,,,,,0.0,,,,deceptive
1784137787156686800,1784137797156686800,,,,,,,,0.0,,,,,,,,,,,0.0,,,,,,,,,,,0.0,,,,,,,,,,,0.0,,,,,,,,,,,0.0,,,,deceptive
1784137788156686800,1784137798156686800,,,,,,,,0.0,,,,,,,,,,,0.0,,,,,,,,,,,0.0,,,,,,,,,,,0.0,,,,,,,,,,,0.0,,,,deceptive
1784137789156686800,1784137799156686800,,,,,,,,0.0,,,,,,,,,,,0.0,,,,,,,,,,,0.0,,,,,,,,,,,0.0,,,,,,,,,,,0.0,,,,deceptive
1784137790156686800,1784137800156686800,,,,,,,,0.0,,,,,,,,,,,0.0,,,,,,,,,,,0.0,,,,,,,,,,,0.0,,,,,,,,,,,0.0,,,,deceptive
1784137791156686800,1784137801156686800,,,,,,,,0.0,,,,,,,,,,,0.0,,,,,,,,,,,0.0,,,,,,,,,,,0.0,,,,,,,,,,,0.0,,,,deceptive
1784137792156686800,1784137802156686800,,,,,,,,0.0,,,,,,,,,,,0.0,,,,,,,,,,,0.0,,,,,,,,,,,0.0,,,,,,,,,,,0.0,,,,deceptive
1784137793156686800,1784137803156686800,,,,,,,,0.0,,,,,,,,,,,0.0,,,,,,,,,,,0.0,,,,,,,,,,,0.0,,,,,,,,,,,0.0,,,,deceptive
1784137794156686800,1784137804156686800,,,,,,,,0.0,,,,,,,,,,,0.0,,,,,,,,,,,0.0,,,,,,,,,,,0.0,,,,,,,,,,,0.0,,,,deceptive
1784137795156686800,1784137805156686800,,,,,,,,0.0,,,,,,,,,,,0.0,,,,,,,,,,,0.0,,,,,,,,,,,0.0,,,,,,,,,,,0.0,,,,deceptive
1784137796156686800,1784137806156686800,,,,,,,,0.0,,,,,,,,,,,0.0,,,,,,,,,,,0.0,,,,,,,,,,,0.0,,,,,,,,,,,0.0,,,,deceptive
1784137797156686800,1784137807156686800,,,,,,,,0.0,,,,,,,,,,,0.0,,,,,,,,,,,0.0,,,,,,,,,,,0.0,,,,,,,,,,,0.0,,,,deceptive
1784137798156686800,1784137808156686800,,,,,,,,0.0,,,,,,,,,,,0.0,,,,,,,,,,,0.0,,,,,,,,,,,0.0,,,,,,,,,,,0.0,,,,deceptive
1784137799156686800,1784137809156686800,,,,,,,,0.0,,,,,,,,,,,0.0,,,,,,,,,,,0.0,,,,,,,,,,,0.0,,,,,,,,,,,0.0,,,,deceptive
1784137800156686800,1784137810156686800,,,,,,,,0.0,,,,,,,,,,,0.0,,,,,,,,,,,0.0,,,,,,,,,,,0.0,,,,,,,,,,,0.0,,,,deceptive
1784137801156686800,1784137811156686800,,,,,,,,0.0,,,,,,,,,,,0.0,,,,,,,,,,,0.0,,,,,,,,,,,0.0,,,,,,,,,,,0.0,,,,deceptive
1784137802156686800,1784137812156686800,,,,,,,,0.0,,,,,,,,,,,0.0,,,,,,,,,,,0.0,,,,,,,,,,,0.0,,,,,,,,,,,0.0,,,,deceptive
1784137803156686800,1784137813156686800,,,,,,,,0.0,,,,,,,,,,,0.0,,,,,,,,,,,0.0,,,,,,,,,,,0.0,,,,,,,,,,,0.0,,,,deceptive
1784137804156686800,1784137814156686800,,,,,,,,0.0,,,,,,,,,,,0.0,,,,,,,,,,,0.0,,,,,,,,,,,0.0,,,,,,,,,,,0.0,,,,deceptive
1784137805156686800,1784137815156686800,,,,,,,,0.0,,,,,,,,,,,0.0,,,,,,,,,,,0.0,,,,,,,,,,,0.0,,,,,,,,,,,0.0,,,,deceptive
1784137806156686800,1784137816156686800,,,,,,,,0.0,,,,,,,,,,,0.0,,,,,,,,,,,0.0,,,,,,,,,,,0.0,,,,,,,,,,,0.0,,,,deceptive
1784137807156686800,1784137817156686800,,,,,,,,0.0,,,,,,,,,,,0.0,,,,,,,,,,,0.0,,,,,,,,,,,0.0,,,,,,,,,,,0.0,,,,deceptive
1784137808156686800,1784137818156686800,,,,,,,,0.0,,,,,,,,,,,0.0,,,,,,,,,,,0.0,,,,,,,,,,,0.0,,,,,,,,,,,0.0,,,,deceptive
1784137809156686800,1784137819156686800,,,,,,,,0.0,,,,,,,,,,,0.0,,,,,,,,,,,0.0,,,,,,,,,,,0.0,,,,,,,,,,,0.0,,,,deceptive
1784137810156686800,1784137820156686800,,,,,,,,0.0,,,,,,,,,,,0.0,,,,,,,,,,,0.0,,,,,,,,,,,0.0,,,,,,,,,,,0.0,,,,deceptive
1784137811156686800,1784137821156686800,,,,,,,,0.0,,,,,,,,,,,0.0,,,,,,,,,,,0.0,,,,,,,,,,,0.0,,,,,,,,,,,0.0,,,,deceptive
1784137812156686800,1784137822156686800,,,,,,,,0.0,,,,,,,,,,,0.0,,,,,,,,,,,0.0,,,,,,,,,,,0.0,,,,,,,,,,,0.0,,,,deceptive
1784137813156686800,1784137823156686800,,,,,,,,0.0,,,,,,,,,,,0.0,,,,,,,,,,,0.0,,,,,,,,,,,0.0,,,,,,,,,,,0.0,,,,deceptive
1784137814156686800,1784137824156686800,,,,,,,,0.0,,,,,,,,,,,0.0,,,,,,,,,,,0.0,,,,,,,,,,,0.0,,,,,,,,,,,0.0,,,,deceptive
1784137815156686800,1784137825156686800,,,,,,,,0.0,,,,,,,,,,,0.0,,,,,,,,,,,0.0,,,,,,,,,,,0.0,,,,,,,,,,,0.0,,,,deceptive
1784137816156686800,1784137826156686800,,,,,,,,0.0,,,,,,,,,,,0.0,,,,,,,,,,,0.0,,,,,,,,,,,0.0,,,,,,,,,,,0.0,,,,deceptive
1784137817156686800,1784137827156686800,,,,,,,,0.0,,,,,,,,,,,0.0,,,,,,,,,,,0.0,,,,,,,,,,,0.0,,,,,,,,,,,0.0,,,,deceptive
1784137818156686800,1784137828156686800,,,,,,,,0.0,,,,,,,,,,,0.0,,,,,,,,,,,0.0,,,,,,,,,,,0.0,,,,,,,,,,,0.0,,,,deceptive
1784137819156686800,1784137829156686800,,,,,,,,0.0,,,,,,,,,,,0.0,,,,,,,,,,,0.0,,,,,,,,,,,0.0,,,,,,,,,,,0.0,,,,deceptive
1784137820156686800,1784137830156686800,,,,,,,,0.0,,,,,,,,,,,0.0,,,,,,,,,,,0.0,,,,,,,,,,,0.0,,,,,,,,,,,0.0,,,,deceptive
1784137821156686800,1784137831156686800,,,,,,,,0.0,,,,,,,,,,,0.0,,,,,,,,,,,0.0,,,,,,,,,,,0.0,,,,,,,,,,,0.0,,,,deceptive
1784137822156686800,1784137832156686800,,,,,,,,0.0,,,,,,,,,,,0.0,,,,,,,,,,,0.0,,,,,,,,,,,0.0,,,,,,,,,,,0.0,,,,deceptive
1784137823156686800,1784137833156686800,,,,,,,,0.0,,,,,,,,,,,0.0,,,,,,,,,,,0.0,,,,,,,,,,,0.0,,,,,,,,,,,0.0,,,,deceptive
1784137824156686800,1784137834156686800,,,,,,,,0.0,,,,,,,,,,,0.0,,,,,,,,,,,0.0,,,,,,,,,,,0.0,,,,,,,,,,,0.0,,,,deceptive
1784137825156686800,1784137835156686800,,,,,,,,0.0,,,,,,,,,,,0.0,,,,,,,,,,,0.0,,,,,,,,,,,0.0,,,,,,,,,,,0.0,,,,deceptive
1784137826156686800,1784137836156686800,,,,,,,,0.0,,,,,,,,,,,0.0,,,,,,,,,,,0.0,,,,,,,,,,,0.0,,,,,,,,,,,0.0,,,,deceptive
1784137827156686800,1784137837156686800,,,,,,,,0.0,,,,,,,,,,,0.0,,,,,,,,,,,0.0,,,,,,,,,,,0.0,,,,,,,,,,,0.0,,,,deceptive
1784137828156686800,1784137838156686800,,,,,,,,0.0,,,,,,,,,,,0.0,,,,,,,,,,,0.0,,,,,,,,,,,0.0,,,,,,,,,,,0.0,,,,deceptive
1784137829156686800,1784137839156686800,,,,,,,,0.0,,,,,,,,,,,0.0,,,,,,,,,,,0.0,,,,,,,,,,,0.0,,,,,,,,,,,0.0,,,,deceptive
1784137830156686800,1784137840156686800,,,,,,,,0.0,,,,,,,,,,,0.0,,,,,,,,,,,0.0,,,,,,,,,,,0.0,,,,,,,,,,,0.0,,,,deceptive
1784137831156686800,1784137841156686800,,,,,,,,0.0,,,,,,,,,,,0.0,,,,,,,,,,,0.0,,,,,,,,,,,0.0,,,,,,,,,,,0.0,,,,deceptive
1784137832156686800,1784137842156686800,,,,,,,,0.0,,,,,,,,,,,0.0,,,,,,,,,,,0.0,,,,,,,,,,,0.0,,,,,,,,,,,0.0,,,,deceptive
1784137833156686800,1784137843156686800,,,,,,,,0.0,,,,,,,,,,,0.0,,,,,,,,,,,0.0,,,,,,,,,,,0.0,,,,,,,,,,,0.0,,,,deceptive
1784137834156686800,1784137844156686800,,,,,,,,0.0,,,,,,,,,,,0.0,,,,,,,,,,,0.0,,,,,,,,,,,0.0,,,,,,,,,,,0.0,,,,deceptive
1784137835156686800,1784137845156686800,,,,,,,,0.0,,,,,,,,,,,0.0,,,,,,,,,,,0.0,,,,,,,,,,,0.0,,,,,,,,,,,0.0,,,,deceptive
1784137836156686800,1784137846156686800,,,,,,,,0.0,,,,,,,,,,,0.0,,,,,,,,,,,0.0,,,,,,,,,,,0.0,,,,,,,,,,,0.0,,,,deceptive
1784137837156686800,1784137847156686800,,,,,,,,0.0,,,,,,,,,,,0.0,,,,,,,,,,,0.0,,,,,,,,,,,0.0,,,,,,,,,,,0.0,,,,deceptive
1784137838156686800,1784137848156686800,,,,,,,,0.0,,,,,,,,,,,0.0,,,,,,,,,,,0.0,,,,,,,,,,,0.0,,,,,,,,,,,0.0,,,,deceptive
1784137839156686800,1784137849156686800,,,,,,,,0.0,,,,,,,,,,,0.0,,,,,,,,,,,0.0,,,,,,,,,,,0.0,,,,,,,,,,,0.0,,,,deceptive
1784137840156686800,1784137850156686800,,,,,,,,0.0,,,,,,,,,,,0.0,,,,,,,,,,,0.0,,,,,,,,,,,0.0,,,,,,,,,,,0.0,,,,deceptive
1784137841156686800,1784137851156686800,,,,,,,,0.0,,,,,,,,,,,0.0,,,,,,,,,,,0.0,,,,,,,,,,,0.0,,,,,,,,,,,0.0,,,,deceptive
1784137842156686800,1784137852156686800,,,,,,,,0.0,,,,,,,,,,,0.0,,,,,,,,,,,0.0,,,,,,,,,,,0.0,,,,,,,,,,,0.0,,,,deceptive
1784137843156686800,1784137853156686800,,,,,,,,0.0,,,,,,,,,,,0.0,,,,,,,,,,,0.0,,,,,,,,,,,0.0,,,,,,,,,,,0.0,,,,deceptive
1784137844156686800,1784137854156686800,,,,,,,,0.0,,,,,,,,,,,0.0,,,,,,,,,,,0.0,,,,,,,,,,,0.0,,,,,,,,,,,0.0,,,,deceptive
1784137845156686800,1784137855156686800,,,,,,,,0.0,,,,,,,,,,,0.0,,,,,,,,,,,0.0,,,,,,,,,,,0.0,,,,,,,,,,,0.0,,,,deceptive
1784137846156686800,1784137856156686800,,,,,,,,0.0,,,,,,,,,,,0.0,,,,,,,,,,,0.0,,,,,,,,,,,0.0,,,,,,,,,,,0.0,,,,deceptive
1784137847156686800,1784137857156686800,,,,,,,,0.0,,,,,,,,,,,0.0,,,,,,,,,,,0.0,,,,,,,,,,,0.0,,,,,,,,,,,0.0,,,,deceptive
1784137848156686800,1784137858156686800,,,,,,,,0.0,,,,,,,,,,,0.0,,,,,,,,,,,0.0,,,,,,,,,,,0.0,,,,,,,,,,,0.0,,,,deceptive
1784137849156686800,1784137859156686800,,,,,,,,0.0,,,,,,,,,,,0.0,,,,,,,,,,,0.0,,,,,,,,,,,0.0,,,,,,,,,,,0.0,,,,deceptive
1784137850156686800,1784137860156686800,,,,,,,,0.0,,,,,,,,,,,0.0,,,,,,,,,,,0.0,,,,,,,,,,,0.0,,,,,,,,,,,0.0,,,,deceptive
1784137851156686800,1784137861156686800,,,,,,,,0.0,,,,,,,,,,,0.0,,,,,,,,,,,0.0,,,,,,,,,,,0.0,,,,,,,,,,,0.0,,,,deceptive
1784137852156686800,1784137862156686800,,,,,,,,0.0,,,,,,,,,,,0.0,,,,,,,,,,,0.0,,,,,,,,,,,0.0,,,,,,,,,,,0.0,,,,deceptive
1784137853156686800,1784137863156686800,,,,,,,,0.0,,,,,,,,,,,0.0,,,,,,,,,,,0.0,,,,,,,,,,,0.0,,,,,,,,,,,0.0,,,,deceptive
1784137854156686800,1784137864156686800,,,,,,,,0.0,,,,,,,,,,,0.0,,,,,,,,,,,0.0,,,,,,,,,,,0.0,,,,,,,,,,,0.0,,,,deceptive
1784137855156686800,1784137865156686800,,,,,,,,0.0,,,,,,,,,,,0.0,,,,,,,,,,,0.0,,,,,,,,,,,0.0,,,,,,,,,,,0.0,,,,deceptive
1784137856156686800,1784137866156686800,,,,,,,,0.0,,,,,,,,,,,0.0,,,,,,,,,,,0.0,,,,,,,,,,,0.0,,,,,,,,,,,0.0,,,,deceptive
1784137857156686800,1784137867156686800,,,,,,,,0.0,,,,,,,,,,,0.0,,,,,,,,,,,0.0,,,,,,,,,,,0.0,,,,,,,,,,,0.0,,,,deceptive
1784137858156686800,1784137868156686800,,,,,,,,0.0,,,,,,,,,,,0.0,,,,,,,,,,,0.0,,,,,,,,,,,0.0,,,,,,,,,,,0.0,,,,deceptive
1784137859156686800,1784137869156686800,,,,,,,,0.0,,,,,,,,,,,0.0,,,,,,,,,,,0.0,,,,,,,,,,,0.0,,,,,,,,,,,0.0,,,,deceptive
1784137860156686800,1784137870156686800,,,,,,,,0.0,,,,,,,,,,,0.0,,,,,,,,,,,0.0,,,,,,,,,,,0.0,,,,,,,,,,,0.0,,,,deceptive
1784137861156686800,1784137871156686800,,,,,,,,0.0,,,,,,,,,,,0.0,,,,,,,,,,,0.0,,,,,,,,,,,0.0,,,,,,,,,,,0.0,,,,deceptive
1784137862156686800,1784137872156686800,,,,,,,,0.0,,,,,,,,,,,0.0,,,,,,,,,,,0.0,,,,,,,,,,,0.0,,,,,,,,,,,0.0,,,,deceptive
1784137863156686800,1784137873156686800,,,,,,,,0.0,,,,,,,,,,,0.0,,,,,,,,,,,0.0,,,,,,,,,,,0.0,,,,,,,,,,,0.0,,,,deceptive
1784137864156686800,1784137874156686800,,,,,,,,0.0,,,,,,,,,,,0.0,,,,,,,,,,,0.0,,,,,,,,,,,0.0,,,,,,,,,,,0.0,,,,deceptive
1784137865156686800,1784137875156686800,,,,,,,,0.0,,,,,,,,,,,0.0,,,,,,,,,,,0.0,,,,,,,,,,,0.0,,,,,,,,,,,0.0,,,,deceptive
1784137866156686800,1784137876156686800,,,,,,,,0.0,,,,,,,,,,,0.0,,,,,,,,,,,0.0,,,,,,,,,,,0.0,,,,,,,,,,,0.0,,,,deceptive
1784137867156686800,1784137877156686800,,,,,,,,0.0,,,,,,,,,,,0.0,,,,,,,,,,,0.0,,,,,,,,,,,0.0,,,,,,,,,,,0.0,,,,deceptive
1784137868156686800,1784137878156686800,,,,,,,,0.0,,,,,,,,,,,0.0,,,,,,,,,,,0.0,,,,,,,,,,,0.0,,,,,,,,,,,0.0,,,,deceptive
1784137869156686800,1784137879156686800,,,,,,,,0.0,,,,,,,,,,,0.0,,,,,,,,,,,0.0,,,,,,,,,,,0.0,,,,,,,,,,,0.0,,,,deceptive
1784137870156686800,1784137880156686800,,,,,,,,0.0,,,,,,,,,,,0.0,,,,,,,,,,,0.0,,,,,,,,,,,0.0,,,,,,,,,,,0.0,,,,deceptive
1784137871156686800,1784137881156686800,,,,,,,,0.0,,,,,,,,,,,0.0,,,,,,,,,,,0.0,,,,,,,,,,,0.0,,,,,,,,,,,0.0,,,,deceptive
1784137872156686800,1784137882156686800,,,,,,,,0.0,,,,,,,,,,,0.0,,,,,,,,,,,0.0,,,,,,,,,,,0.0,,,,,,,,,,,0.0,,,,deceptive
1784137873156686800,1784137883156686800,,,,,,,,0.0,,,,,,,,,,,0.0,,,,,,,,,,,0.0,,,,,,,,,,,0.0,,,,,,,,,,,0.0,,,,deceptive
1784137874156686800,1784137884156686800,,,,,,,,0.0,,,,,,,,,,,0.0,,,,,,,,,,,0.0,,,,,,,,,,,0.0,,,,,,,,,,,0.0,,,,deceptive
1784137875156686800,1784137885156686800,,,,,,,,0.0,,,,,,,,,,,0.0,,,,,,,,,,,0.0,,,,,,,,,,,0.0,,,,,,,,,,,0.0,,,,deceptive
1784137876156686800,1784137886156686800,,,,,,,,0.0,,,,,,,,,,,0.0,,,,,,,,,,,0.0,,,,,,,,,,,0.0,,,,,,,,,,,0.0,,,,deceptive
1784137877156686800,1784137887156686800,,,,,,,,0.0,,,,,,,,,,,0.0,,,,,,,,,,,0.0,,,,,,,,,,,0.0,,,,,,,,,,,0.0,,,,deceptive
1784137878156686800,1784137888156686800,,,,,,,,0.0,,,,,,,,,,,0.0,,,,,,,,,,,0.0,,,,,,,,,,,0.0,,,,,,,,,,,0.0,,,,deceptive
1784137879156686800,1784137889156686800,,,,,,,,0.0,,,,,,,,,,,0.0,,,,,,,,,,,0.0,,,,,,,,,,,0.0,,,,,,,,,,,0.0,,,,deceptive
1784137880156686800,1784137890156686800,,,,,,,,0.0,,,,,,,,,,,0.0,,,,,,,,,,,0.0,,,,,,,,,,,0.0,,,,,,,,,,,0.0,,,,deceptive
1784137881156686800,1784137891156686800,,,,,,,,0.0,,,,,,,,,,,0.0,,,,,,,,,,,0.0,,,,,,,,,,,0.0,,,,,,,,,,,0.0,,,,truth
1784137882156686800,1784137892156686800,1212.581257846154,1006.184448,59.631213858713906,91.001793397722,1146.0338825358833,1286.1633548173183,1262.7282615329489,13.0,909.4548299049654,1487.6939456829843,0.6113184990394274,1125.9683108571428,1173.881856,25.55623451087739,86.12974409593726,689.8400236453391,1157.9464844469398,1113.7149524882582,14.0,818.7918114035543,785.2060247064124,1.042773215742581,1025.7491456,712.713984,79.50828514495187,71.63132429404267,725.0898908857206,1104.4325991166318,1064.2747344007419,15.0,780.9517801988541,864.0415836239902,0.9038358743376236,977.361456,712.713984,59.631213858713906,72.55158221351252,589.8720569914655,921.364257119415,890.4032282187012,16.0,651.5029141520441,695.4639197430607,0.9367889485808868,852.461824,712.713984,84.18524309465492,76.27331784759849,298.53518981799795,405.51669130302196,393.416706339399,18.0,286.7436023046987,370.31820423522055,0.7743167876310058,truth
1784137883156686800,1784137893156686800,1399.9087972173913,1006.184448,22.361705197017713,78.31105279292032,1125.9946904985811,1525.30890368389,1492.1878609121195,23.0,1078.5562691990972,1397.8863591678878,0.7715621961152289,1121.8378328275862,1006.184448,178.8936415761417,81.88235203358326,723.6098715331783,1215.7641375884866,1194.8177633202636,29.0,859.6750660122337,823.2265075900779,1.0442752487755234,970.6122705454546,712.713984,79.50828514495187,73.49675035931949,587.8873196099904,898.4793492059301,884.3330657168675,33.0,635.3208405795892,699.5760972753859,0.9081511547549304,942.0648508235295,712.713984,79.50828514495187,74.81506040956022,529.4247370112449,809.2146199813358,796.8635236705728,34.0,572.2011452240976,629.9793877746853,0.9082855031897451,889.7279146666667,712.713984,79.50828514495187,73.51183976685883,299.83740352708884,405.5731431936537,399.7444328836875,36.0,286.7835198193752,372.4010519423081,0.7700932054934243,truth
1784137884156686800,1784137894156686800,1332.5145392432432,1006.184448,178.8936415761417,82.49198379507044,1075.8829944503211,1612.924295976309,1594.2895159989691,37.0,1140.5097072253861,1290.219841483269,0.8839654069450891,1297.4483671578946,1006.184448,8.131529162551896,81.8927446363202,1240.4625945081568,1662.5017090914232,1647.1061043892375,38.0,1175.5662322327703,1544.8355619821937,0.760965284048996,910.4703613584905,712.713984,65.05223330041517,75.44066904458516,490.8068244900701,734.8626507456222,727.77843897098,53.0,519.626363582951,588.8776605262186,0.8824012157612076,919.9626674716982,712.713984,84.18524309465492,74.45780020496522,455.2973858303363,672.8155051328544,666.3152075506877,53.0,475.75240616689365,549.0184360302318,0.8665508750615003,898.2680604444445,712.713984,51.11246902175478,72.88343731638157,297.9676614423432,400.3249213333186,396.64388577971374,54.0,283.0724665527608,370.8159164204064,0.7633773363488315,truth
1784137885156686800,1784137895156686800,1376.516224,1194.844032,22.361705197017713,77.12131714671203,1058.328951009343,1565.714982599767,1549.3797774035527,48.0,1107.1276816016725,1275.6388538315714,0.8679005647062643,1475.7371904,1006.184448,5.963121385871391,83.55442417965317,1815.0387913234488,2393.6352812679515,2373.9396138930724,45.0,1692.5557390719375,2270.7618023661344,0.7453691255984198,952.7157092173912,712.713984,40.88997521740383,72.49059659745001,483.2751239737855,691.9592403697822,686.952344575915,69.0,489.2890711701652,589.4130922540439,0.8301292889491432,966.7262343529411,712.713984,84.18524309465492,72.18709738805403,501.0482934126065,736.040533010605,730.527311135345,68.0,520.4592521199597,605.5244570657215,0.8595181351419318,942.3865210434782,712.713984,26.020893320166067,72.41414295657502,437.5027715062978,577.7654649636298,574.0052905260891,69.0,408.5418782111813,547.1417704994052,0.7466837668750524,truth
1784137886156686800,1784137896156686800,1341.579264,1048.1087999999997,29.815606929356953,76.15552757961188,1016.8420063585766,1496.2297843132235,1484.2246969075402,61.0,1057.9942267011656,1228.1121446855625,0.8614801435515869,1748.3346791489362,1341.579264,5.421019441701265,79.22125334047789,2201.361157030844,2720.307327277004,2698.310475527163,47.0,1923.5477580290221,2800.3506742297677,0.686895314836986,947.8758664827587,712.713984,84.18524309465492,73.67275064819313,540.5491977887237,788.5002959249169,783.9027389470617,87.0,557.5539062161082,654.945563609408,0.8512980882616046,926.5752852134831,712.713984,84.18524309465492,74.02318901744607,459.5645510369536,655.6037073474204,651.8682173702614,89.0,463.5818272364017,561.1996951778154,0.8260550232293272,937.1045498181818,712.713984,84.18524309465492,72.15836348266329,409.938084034555,549.7023944184547,546.5342669617287,88.0,388.69829072777145,510.4461625641809,0.7614873403596183,truth
1784137887156686800,1784137897156686800,1346.2375253333332,1194.844032,44.723410394035426,75.98949956685377,1013.6254607976576,1479.358471401362,1469.518640088783,72.0,1046.0644069336684,1227.9038145668349,0.8519107071124186,1991.40672,1341.579264,25.55623451087739,75.35054769623457,2487.055270787163,3134.7319048030404,3102.6101597004867,50.0,2216.590187088053,3148.6904914825927,0.703972077625308,945.0946779428573,712.713984,42.09262154732746,73.35249717714595,511.2903228458563,740.5879802981539,737.0545792185152,105.0,523.6747829340738,621.0619528928779,0.8431925035736304,910.4123044403669,712.713984,84.18524309465492,74.42693882962975,429.22124911416375,606.499601869818,603.6853281891545,109.0,428.8599812690896,525.833927790119,0.8155806588430415,927.4293568598131,712.713984,84.18524309465492,72.3321188923061,388.6074497826432,519.8006293651251,517.3430805923217,107.0,367.5545498891152,484.2347844600221,0.7590420219377282,truth
1784137888156686800,1784137898156686800,1434.980352,1341.579264,25.55623451087739,73.5263518542264,1079.0616739277882,1558.9328414964675,1549.1222984192398,79.0,1102.3319836365654,1311.9376094943,0.840232016872716,1812.573156,1341.579264,178.8936415761417,81.30661131467892,2278.333637226545,2869.3997853521882,2846.615330069576,64.0,2028.9720461577563,2885.0033869981985,0.7032823792518561,952.4796995702478,712.713984,84.18524309465492,72.73863866736434,477.71148470441165,689.6908646640229,686.8112296112496,121.0,487.68508732634405,580.9459123160561,0.839467284281407,900.3909659999999,712.713984,84.18524309465492,74.87838561386482,415.2620982064601,583.5920679307377,581.2900143570505,128.0,412.6619086805049,509.64722600613135,0.8097010787527378,936.9922247804878,712.713984,84.18524309465492,72.38877915303608,420.2726248637964,574.6480948500115,572.2882369442628,123.0,406.3375646643734,520.2913128153533,0.7809808748595788,truth
1784137889156686800,1784137899156686800,1571.4055309879518,1341.579264,25.55623451087739,71.20847414639356,1496.6316455362849,2104.409978068334,2091.6828198133503,83.0,1488.042565888753,1836.4850192399892,0.8102666508570618,1689.710592,1048.1087999999997,57.24596530436536,82.85855906311417,2108.109245708061,2653.4226044833854,2636.3709444668757,79.0,1876.2531169838724,2669.847618157967,0.7027566308366218,953.4019904460432,712.713984,84.18524309465492,72.59010215618574,471.8251478893101,678.5764927111109,676.1134802681295,139.0,479.82603954981033,574.5619429152183,0.8351162924492771,895.4248423783785,712.713984,84.18524309465492,74.87675432222478,398.54049523810767,564.6850120747879,562.7611093724447,148.0,399.29260127248995,487.8029950438972,0.8185529923541321,926.7334033006991,712.713984,84.18524309465492,72.73528753103501,403.03782765654137,550.2745615310977,548.3336312227402,143.0,389.10287397309327,499.1777817342709,0.7794875657751646,truth
1784137890156686800,1784137900156686800,1650.7137716043962,1341.579264,178.8936415761417,69.3810566259639,1579.6903017943168,2230.748447345416,2218.771486999266,91.0,1577.3773542393058,1935.660931137616,0.8149037514087026,1601.5994471489362,1006.184448,59.631213858713906,80.37022120082767,1947.3576516791059,2429.8410141837085,2416.7528086683137,94.0,1718.1570583344983,2471.5120490408285,0.695184576988528,968.8582507354838,712.713984,25.55623451087739,72.52468536570386,527.5776557460722,760.0959429836535,757.70233344556,155.0,537.4689956361248,642.0591133610594,0.8371020431788205,903.3940186987952,712.713984,21.68407776680506,74.72198343269685,419.58785013629813,580.7810802392705,579.1578203241875,166.0,410.6742402220366,517.4758566088158,0.7936104360758313,938.5814303999999,712.713984,25.55623451087739,72.25373171325357,416.2264372639482,575.2240589549283,573.5093146316034,160.0,406.7448327886802,513.5836978085783,0.7919738000334293,truth
1784137891156686800,1784137901156686800,1617.9543611650483,1341.579264,89.44682078807085,70.11038041303733,1537.0442980202076,2156.179687782734,2145.888999673415,103.0,1524.6492786878641,1887.5202347660154,0.8077525478167209,1591.9042783689322,1006.184448,13.761049352010902,79.13426187673504,1882.1923551536793,2467.29636845561,2455.3921701697773,103.0,1744.6419933319041,2358.6878303729277,0.7396663394223143,964.9871078843931,712.713984,84.18524309465492,72.33409500533311,498.08008686304044,704.6351773678074,702.5838756242396,173.0,498.25231217936226,609.9507050270107,0.8168730818292897,892.7420837647059,712.713984,84.18524309465492,75.07266173443577,402.204424768099,573.5056755544339,571.9619603016438,187.0,405.5297522335122,491.2327438524308,0.8255348555415837,927.4598314666667,712.713984,84.18524309465492,72.83231583989652,405.18096345174945,558.37761417474,556.815764949933,180.0,394.83259744572433,500.39667893033334,0.789039204436235,truth
1784137892156686800,1784137902156686800,1605.3363523106798,1341.579264,43.36815553361012,67.85402002667507,1486.6565251582795,2118.0630233947622,2107.658034593428,103.0,1497.6967268229173,1816.2454417901067,0.8246114166963991,1742.9175919999998,1341.579264,178.8936415761417,78.62669461438497,2034.7306752338818,2640.972000719956,2627.0567263413477,96.0,1867.4492106328848,2556.6725571196566,0.7304217372039031,948.062050909091,712.713984,84.18524309465492,72.68281938613421,454.66156646829677,635.1305706319872,633.3134933015413,176.0,449.1051334327596,559.0944192253957,0.8032724312558475,871.143903663158,712.713984,84.18524309465492,75.76958342402584,357.31431353316,499.06204781012684,497.7400268181178,190.0,352.8901582393857,439.41017901300074,0.8030996437816813,929.8727061573034,712.713984,84.18524309465492,72.88446278747763,415.12856202795734,566.4902238423689,564.8877023182531,178.0,400.56907875482426,514.2330722498845,0.7789640541831453,truth
1784137893156686800,1784137903156686800,1679.5408770612244,1341.579264,14.907803464678477,65.11961376340267,1534.3740831390103,2168.493629012327,2157.5709172660395,98.0,1533.3565500344416,1879.6320116582913,0.8157748647202754,1923.2194118620694,1341.579264,19.877071286237967,74.01256430746191,2168.2576725834774,2795.0615420066474,2778.80745569162,87.0,1976.4069701866283,2729.393781324544,0.7241193937312704,942.9426288813559,712.713984,84.18524309465492,73.00840912419898,452.99907052292485,622.8551714477642,621.0833586248361,177.0,440.4251154278237,559.8474565803276,0.7866877133246938,876.8433620425532,712.713984,84.18524309465492,75.78038142976686,383.7613056497055,542.5390579636924,541.0876353720439,188.0,383.6330469446882,470.06204066474106,0.8161327947310343,919.7737002666667,712.713984,84.18524309465492,73.62177032612156,413.39809415538116,564.2270122939585,562.6487518253696,180.0,398.9687465216836,512.0624357947584,0.7791408207916187,truth
1784137894156686800,1784137904156686800,1696.6528574693878,1341.579264,19.877071286237967,63.51197371212013,1511.6663900926465,2120.6696150994667,2109.7582213109454,98.0,1499.5398654930984,1856.3298860304803,0.8077981595715561,2065.680109037037,1341.579264,34.906076405100826,68.78900330965838,2294.415377175772,2680.221500717004,2663.421614581239,81.0,1895.2027982389784,2955.1289350576317,0.6413266019480864,958.2364822068964,712.713984,84.18524309465492,72.59499028219705,474.0350149086178,657.841481047995,655.9489096035852,174.0,465.16417219483895,584.148557450904,0.7963114284227855,868.4018120000001,712.713984,84.18524309465492,76.32203472058023,378.9526669838877,538.8599965018136,537.4589915565836,192.0,381.0315576365917,463.26852221030396,0.8224853176266955,921.1776127292818,712.713984,42.09262154732746,73.64255054754744,420.4861548106437,585.290697057593,583.6626716780116,181.0,413.86302085482527,517.663899416736,0.799482098947086,truth
1784137895156686800,1784137905156686800,1903.943847724138,1341.579264,10.523155386831865,62.74614774100595,1801.7894886606034,2434.771648518786,2421.378754714448,87.0,1721.643543308383,2238.4955835980454,0.769107411211015,1902.1955988837208,1341.579264,59.631213858713906,74.01146817520214,2203.961667161058,2405.5033832550926,2394.239595566258,86.0,1700.9477544668584,2875.462124410227,0.5915389182237036,953.8994802758622,712.713984,84.18524309465492,72.6126953175274,462.4589734118519,644.9893788642376,643.1227286983549,174.0,456.0763635882016,568.9760798718776,0.8015738793288133,851.1718439384614,712.713984,84.18524309465492,77.34846367236699,358.1404631112327,515.2013956841498,513.8720232413347,195.0,364.302400565036,436.08607304789325,0.8353910456686986,911.9698327912089,712.713984,84.18524309465492,74.05127847768755,409.13715180683596,573.8174442401845,572.2303052166187,182.0,405.7502059853681,502.4637331675148,0.8075213775679534,truth
1784137896156686800,1784137906156686800,2057.3987555555555,1425.427968,19.604782638481286,59.95332079022451,2021.907854508568,2828.350953738471,2810.671375116063,81.0,1999.946138963912,2485.222417585306,0.8047352723089877,1714.5313119999998,1341.579264,178.8936415761417,75.64970308015931,1863.9927026735213,2152.087550959213,2143.32753398583,96.0,1521.7557009904092,2406.4636678104803,0.632361801819754,973.8217903157895,712.713984,84.18524309465492,71.39834465659865,464.4530087255646,655.0301210626895,653.100766905456,171.0,463.17624048487295,569.356724517774,0.8135079828505893,858.3686914639176,712.713984,84.18524309465492,76.80068546881324,359.08259110856096,518.0368515563557,516.6930898924462,194.0,366.307370640028,436.7952261436365,0.8386249407395557,920.0194814585635,712.713984,84.18524309465492,73.89301114016953,424.8362781234227,596.5040972046189,594.8565068311483,181.0,421.7920921389455,521.5529138295077,0.8087234889398521,truth
1784137897156686800,1784137907156686800,1983.4211291428571,1341.579264,44.723410394035426,63.155568146042555,2028.9480228536568,2783.4933723943072,2766.701086170026,84.0,1968.2270390078268,2509.2431768050633,0.7843907107934853,1545.766385777778,1341.579264,89.44682078807085,76.69563626138982,1560.698304548141,1903.8923350034488,1895.1355235548458,108.0,1346.2551807300288,1991.3203885406444,0.676061566223727,990.9619154285714,712.713984,84.18524309465492,71.35701900319371,553.1044043315882,767.8288098952943,765.5564768653421,168.0,542.936958267359,681.5120643508051,0.7966652193964462,871.6314229947644,712.713984,84.18524309465492,76.26591359528938,378.0004125923327,533.776846172711,532.403651752495,191.0,377.43722756909256,463.1837577705267,0.8148757836108855,935.2898977078652,712.713984,84.18524309465492,73.52300299204421,448.69321959821156,618.4815837321245,616.8200368850602,178.0,437.33252189598073,554.0950669992186,0.7892734441120687,truth
1784137898156686800,1784137908156686800,1789.0761516521736,1341.579264,178.8936415761417,65.69421135780897,1753.3931102910215,2299.0033148905145,2287.298839975268,92.0,1625.6408339294344,2197.1392167913828,0.7398897718932246,1589.9311396571427,1341.579264,8.944682078807086,76.92008154822439,1640.2375461859176,1986.632660689742,1977.922360094841,105.0,1404.76142610039,2096.206355229895,0.6701446270285385,994.3853788742514,712.713984,84.18524309465492,71.29041946976699,560.2841658517399,778.0602253153365,775.7131302985952,167.0,550.1716614920075,690.2841910792408,0.7970219637100899,879.5193845106384,712.713984,84.18524309465492,76.24952293380642,416.3178303788766,585.7160513141295,584.1478663010683,188.0,414.1637917340288,510.75948213517887,0.8108783218329272,932.9345970337077,712.713984,84.18524309465492,73.39248640164807,439.22754283625954,588.7926152429693,587.1270033763296,178.0,416.3392509508654,546.9666194849486,0.761178536531007,truth
1784137899156686800,1784137909156686800,1600.9348141176463,1341.579264,59.631213858713906,68.36471337776133,1526.197508057671,2010.9193548725432,2000.9430320825995,102.0,1421.9347122496526,1909.871331857892,0.7445185906143832,1691.100763826087,1341.579264,22.361705197017713,74.46432467455827,1738.560174837373,2209.0926339452167,2197.072715961257,92.0,1562.0643817319144,2196.624773766189,0.7111202606777949,966.9569841403508,712.713984,84.18524309465492,72.2319643022101,528.4923389612912,730.2023550760206,728.0636042786689,171.0,516.3310369126414,652.1575230279192,0.7917274871189931,887.4747339130433,712.713984,84.18524309465492,75.78567130383836,409.4355302368499,578.705601178879,577.1222723535637,184.0,409.206654904223,501.5474689714912,0.8158881865028074,935.4371039999999,712.713984,95.40994217394226,73.08712826113843,432.1005698611445,572.10730116361,570.4705682588022,176.0,404.540952219123,539.99547584908,0.7491561879903337,truth
1784137900156686800,1784137910156686800,1591.4972458252435,1341.579264,35.77872831522834,70.98733702904951,1529.3621868307596,2046.3227160693673,2036.292941892628,103.0,1446.9686690287238,1905.528334200294,0.7593530062285759,2040.8360485925928,1341.579264,2.2361705197017714,75.91472528920143,3337.135145986477,3568.2437770910697,3560.158851180097,81.0,2523.1293717077947,4369.1934097690255,0.5774817306247787,965.4788271627908,712.713984,42.09262154732746,72.29777697248804,526.8136982496653,725.9040723999315,723.7904341502418,172.0,513.2916920849221,650.6390433606622,0.7889039204190431,893.7818610162162,712.713984,37.66181927918773,75.70691351916973,434.70492777615016,598.6599816787409,597.0501454254207,185.0,423.316532670052,536.9714192113378,0.7883409014427374,938.2054139661016,712.713984,42.09262154732746,73.18695371092437,442.735196850714,588.4223075348361,586.7622458928607,177.0,416.0774038593188,552.6922344847316,0.7528193412147772,truth
1784137901156686800,1784137911156686800,1721.9875947789476,1341.579264,44.723410394035426,67.5141981865025,1697.2477520836353,2303.566236323783,2291.2902288867126,95.0,1628.8673066169201,2105.871675250697,0.7734883971137552,1881.831709090909,1341.579264,30.44998154487519,81.91364985187414,3215.2441641954692,4308.498409873336,4283.706585612625,88.0,3046.568442352893,4004.347691424382,0.7608151631980792,989.8665864431139,712.713984,43.36815553361012,71.2523798601889,544.4694255628493,751.2744754850265,749.019082569282,167.0,531.2312761478289,672.1536850800215,0.7903419827038284,907.2154859016395,712.713984,28.62298265218268,75.09522312278592,447.2431996840889,603.3313942412852,601.7196261075638,183.0,426.61972017074714,555.9233458922555,0.7674074552239277,944.6155424914286,712.713984,79.50828514495187,72.74888197006149,443.4530913158879,598.6552327657066,596.9325289498714,175.0,423.3131746814422,551.0937002595781,0.7681328501524364,truth
1784137902156686800,1784137912156686800,1800.0129391304347,1341.579264,22.361705197017713,67.57687436237462,1783.3390805376118,2444.4557047109893,2431.0881064929526,92.0,1728.4912051112813,2206.0724442483624,0.7835151604462385,1649.3040076800005,1006.184448,178.8936415761417,88.3225753872611,2999.6625050367693,3931.1145777360334,3911.2467530585614,100.0,2779.7177755384405,3759.3263801410944,0.7394191124831552,996.0821945060242,712.713984,65.05223330041517,71.21910896505202,561.0554498252183,785.553779158379,783.1707258535397,166.0,555.4704042296094,689.4147884761779,0.8057129227781326,903.5499687868853,712.713984,84.18524309465492,75.2194688375113,441.4080007371891,603.3554040125557,601.6955510629982,183.0,426.63669764282724,546.5094787300729,0.7806574528848159,938.2054139661016,712.713984,84.18524309465492,72.8411652761999,430.54463210696014,580.6268692220144,578.9750113393363,177.0,410.5651965660011,535.2153493282827,0.7671028065269003,truth
1784137903156686800,1784137913156686800,1799.020526933333,1341.579264,178.8936415761417,66.93792844164535,1768.0604904329243,2415.5584192018114,2402.1387226075462,90.0,1708.0577385698577,2189.370954524527,0.7801591297445537,1415.0396329911505,670.789632,178.8936415761417,91.80852498085518,2669.405049336198,3631.542198972552,3615.417627625854,113.0,2567.888115058598,3309.7465082863337,0.7758564314909292,994.3853788742514,712.713984,28.62298265218268,71.0904983355952,548.9054013636908,760.5852673743162,758.2915602138753,167.0,537.8150002309624,676.7361317794063,0.794718908855708,902.5128166956522,712.713984,84.18524309465492,75.3222251637171,442.7740380975455,598.7382642500727,597.1370867323255,184.0,423.3718868070894,549.9780180671913,0.7697978335478959,927.7226719106146,712.713984,84.18524309465492,73.70316069436916,433.3504874113398,574.3719687036177,572.9364626129553,179.0,406.14231399379554,541.3958812839031,0.7501762167651552,truth
1784137904156686800,1784137914156686800,1686.682877305263,1341.579264,89.44682078807085,66.02463052127494,1605.185823675807,2186.225109570082,2174.8022506394045,95.0,1545.894600177308,1989.5597502037674,0.7770033546461622,1349.3956686101699,670.789632,19.877071286237967,93.41007525780995,2564.1111296963118,3498.197243634088,3483.246584510891,118.0,2473.598992901753,3176.4737968418235,0.7787248222733973,985.4718217142859,712.713984,44.723410394035426,71.5038357775611,550.0049152354522,770.1765177164408,767.8763710935671,168.0,544.5970383879364,675.8090310552666,0.8058445705254272,885.3436687058825,712.713984,84.18524309465492,75.80209433250707,408.7368484986687,538.5368731758961,537.0872423548522,187.0,380.80307494167585,511.4940192208796,0.7444917450290515,909.666296967033,712.713984,84.18524309465492,74.20802283664248,391.08627716329727,531.5564031187489,530.0859814827371,182.0,375.8671372283974,485.0349471396461,0.77492794992395,truth
1784137905156686800,1784137915156686800,1489.8672497777775,1341.579264,44.723410394035426,70.33182056528211,1220.3498933912635,1726.3459221852363,1718.2628074321067,108.0,1220.7109082509244,1494.4698604651546,0.8168186863741618,1518.205006222222,670.789632,29.815606929356953,89.71136542485385,2850.787084538074,3948.73902838992,3930.27491078506,108.0,2792.1801441104913,3515.087342322484,0.7943416115133133,973.8780355764707,712.713984,42.09262154732746,72.23874636181591,547.9384197991301,757.5530621806729,755.3202289140899,170.0,535.670907376588,676.018759561528,0.7923905953793784,881.5323639786095,712.713984,84.18524309465492,75.75913551761778,396.2876915942542,516.2159793086142,514.8264317563583,187.0,365.01981952597566,497.46169168571925,0.7337646810331353,914.6920776132596,712.713984,42.09262154732746,74.21626128703433,408.23335813306625,557.647452847405,556.1103708658669,181.0,394.31629541980556,505.53563570573436,0.7799970319982188,truth
1784137906156686800,1784137916156686800,1384.2202715897436,1299.6549119999997,89.44682078807085,71.40744686950522,1117.081594894553,1545.644022783613,1538.9917877544096,117.0,1092.9353698107475,1377.856566560046,0.7932141823291285,1616.785653861386,670.789632,22.361705197017713,88.70881821651137,3055.784403997553,4228.6793719027355,4207.48418737616,101.0,2990.1278593360953,3768.9792172205503,0.7933521749534023,954.2665004651163,712.713984,44.723410394035426,73.00054801408412,492.7627982056572,647.4457404677304,645.6958332412063,172.0,457.81327353507766,617.1173744746509,0.7418576959120815,893.7099767741935,712.713984,84.18524309465492,75.58996811321667,430.29599609797907,569.7216316036734,568.1798021656939,186.0,402.8540290956215,537.739345907119,0.7491622700883869,918.398097679558,712.713984,84.18524309465492,74.04678949603468,411.7632022171238,565.8420623185448,564.2681377641268,181.0,400.110759346024,508.9730440091833,0.7861138503413648,truth
