window_start_ns,window_end_ns,red_Mean_NN,red_Median_NN,red_Heart_Rate,red_Mean_HR,red_SDNN,red_SDSD,red_RMSSD,red_NN_Count,red_SD1,red_SD2,red_SD1_SD2,infrared_Mean_NN,infrared_Median_NN,infrared_Heart_Rate,infrared_Mean_HR,infrared_SDNN,infrared_SDSD,infrared_RMSSD,infrared_NN_Count,infrared_SD1,infrared_SD2,infrared_SD1_SD2,ppg0_Mean_NN,ppg0_Median_NN,ppg0_Heart_Rate,ppg0_Mean_HR,ppg0_SDNN,ppg0_SDSD,ppg0_RMSSD,ppg0_NN_Count,ppg0_SD1,ppg0_SD2,ppg0_SD1_SD2,ppg1_Mean_NN,ppg1_Median_NN,ppg1_Heart_Rate,ppg1_Mean_HR,ppg1_SDNN,ppg1_SDSD,ppg1_RMSSD,ppg1_NN_Count,ppg1_SD1,ppg1_SD2,ppg1_SD1_SD2,ppg2_Mean_NN,ppg2_Median_NN,ppg2_Heart_Rate,ppg2_Mean_HR,ppg2_SDNN,ppg2_SDSD,ppg2_RMSSD,ppg2_NN_Count,ppg2_SD1,ppg2_SD2,ppg2_SD1_SD2,label
1783770845051196280,1783770855051196280,1285.15053,1325.249856,46.004715004838964,59.99118591710016,571.7546748100043,803.6132268374479,800.4547274202058,128.0,568.2403621479626,701.6824507903583,0.8098255293515041,1524.794226841121,1472.4998399999997,89.1341353218755,54.90718585250805,860.9059891840155,1129.3500457980194,1124.0103694306001,107.0,798.5710757171175,1078.6381983500396,0.7403511918441862,771.8937653333331,715.2142079999999,83.89095089117694,80.52680225725793,176.66173344111888,265.03960056955043,264.42258342822686,216.0,187.41129884570304,211.79527534231062,0.8848700639936496,797.746666564593,715.2142079999999,83.89095089117694,79.21084162207158,231.5342609276492,347.6561142439448,346.8194545289948,209.0,245.82999590285846,277.4888007178412,0.8859096124489206,786.4577986415092,715.2142079999999,83.89095089117694,80.15995848982827,237.37552909805322,356.83431447294566,355.9877871166298,212.0,252.31996352387287,284.36174432018305,0.8873203536118696,truth
1783770846051196280,1783770856051196280,1298.6265329999997,1346.2855679999998,95.07641101000053,59.80925312496453,575.2180392224715,799.8367984294243,796.6849861778705,128.0,565.5700240119836,708.3903297359667,0.798387555943606,1498.890096872727,1430.4284159999997,25.02010816052645,56.6357865630707,881.9060213537165,1169.2466337621238,1163.889254832971,110.0,826.7822236127413,1101.6950750361323,0.7504637556681691,775.7656032897196,715.2142079999999,89.1341353218755,80.34174813611216,186.12223836377729,279.45891221306186,278.80213360306436,214.0,197.60729188887214,223.06647960475482,0.8858672636023436,798.1434572307691,715.2142079999999,89.1341353218755,79.23660925314276,236.5111196758847,350.64965716093735,349.80165191188763,208.0,247.94675039923683,284.84420995328406,0.8704644213758159,783.2825968301886,715.2142079999999,83.89095089117694,80.27531797586744,229.48718284096773,340.3441286642813,339.53672669211676,212.0,240.6596413155401,276.3515925365825,0.8708458638018611,truth
1783770847051196280,1783770857051196280,1334.168997888,1346.2855679999998,49.17745397068992,58.94314222318042,628.0970942600852,911.1876873358531,907.5290015296465,125.0,644.3069926488694,762.5261761066369,0.8449637702126112,1553.0705859622637,1472.4998399999997,44.56706766093775,55.847490826122005,895.733601887203,1199.7808825504171,1194.0959880864848,106.0,848.3731979893806,1115.7100114125892,0.7603886218743021,774.5860306542055,715.2142079999999,83.89095089117694,80.39211455423175,182.44953068761865,274.5152617987876,273.8703865599014,214.0,194.1116031571231,218.48570950098858,0.8884407296040788,800.7797611594202,715.2142079999999,83.89095089117694,79.03194893839053,235.53802770031857,339.38127749881585,338.55678081338584,207.0,239.97880272716617,286.6381204702717,0.8372187283863217,793.1167969377988,715.2142079999999,32.41241284431836,80.00802561212757,258.89250575585936,371.9897520453778,371.1408241461252,209.0,263.036476203189,315.3673495566717,0.8340637563557327,truth
1783770848051196280,1783770858051196280,1329.120427008,1346.2855679999998,118.84551376250066,58.49284934381554,619.7990490892837,885.2713325459878,881.7289967157692,125.0,625.9813624333191,756.5549480685612,0.8274103077792452,1553.8903518504671,1472.4998399999997,158.46068501666755,55.895105557146785,897.4750061675979,1181.6618621680461,1176.4821684504266,107.0,835.561115808549,1123.3172233458572,0.7438336192511924,775.7656032897194,715.2142079999999,64.82482568863672,80.3465940978162,184.64299458032949,279.6355868798816,278.98091023804557,214.0,197.7322197438442,220.53810449164837,0.896589821516908,809.8236053853657,715.2142079999999,64.82482568863672,78.84188289488084,261.7153991016759,370.9520576092457,370.04381331620374,205.0,262.3027154306005,320.2944629442815,0.8189423976281185,790.5420909714284,715.2142079999999,38.54449095000021,80.05657497625612,238.5034477735672,346.54809988661987,345.7438869154025,210.0,245.04651143714196,289.3853707705362,0.8467826510533869,truth
1783770849051196280,1783770859051196280,1396.84198507563,1346.2855679999998,35.6536541287502,56.57014399363729,684.4476923132916,979.9842989696843,975.8240301789393,119.0,692.9535432578087,834.7724123790894,0.8301107379470065,1539.8920284444446,1556.642688,158.46068501666755,56.40588932424317,898.2881802340229,1234.13589210241,1228.408286736803,108.0,872.6658582113236,1110.437057852651,0.7858760224545043,775.7656032897194,715.2142079999999,79.23034250833378,80.32061413708368,180.96086504164543,276.2279473249827,275.57939912415185,214.0,195.32265470673576,215.44883297989307,0.9065848814551918,809.8236053853657,715.2142079999999,79.23034250833378,78.6783568553727,254.5900956297613,361.70670082059996,360.81960611757376,205.0,255.76526095085998,311.3266760669751,0.821533394381655,790.5420909714284,715.2142079999999,79.23034250833378,80.03010015912868,235.60969678867386,348.92266384274285,348.0874435844841,210.0,246.72558171287767,283.87867497563593,0.8691233384615912,truth
1783770850051196280,1783770860051196280,1388.7075871999996,1346.2855679999998,25.466895806250143,57.90544369133779,700.2504400022827,988.565720837622,984.5495810680068,120.0,699.02152485285,858.1292509540618,0.8145876906954086,1457.6073005309734,1472.4998399999997,62.00635500652208,58.889211977632286,822.6227657560257,1114.6707664795847,1109.6925554712677,113.0,788.191257768121,1021.1727082473072,0.7718491215075023,783.084146716981,715.2142079999999,83.89095089117694,79.83496172130486,192.34425284849465,297.87206642875884,297.1654370322121,212.0,210.62735809782512,227.61959761421372,0.9253480820874296,825.9394980298505,715.2142079999999,83.89095089117694,77.9301635371113,283.5182653229404,397.88577635918574,396.88987115310107,201.0,281.34773060125434,348.1191473995943,0.80819378279789,805.8924228349513,715.2142079999999,44.56706766093775,79.04217981093673,252.6854444698336,375.86857886941607,374.9650833691868,206.0,265.77922095351477,303.9417222898267,0.8744413861683599,truth
1783770851051196280,1783770861051196280,1458.1069844210524,1346.2855679999998,142.6146165150008,55.925988853350844,798.9126830808856,1151.8685629425595,1146.8113009790934,114.0,814.4940718922874,972.019883439202,0.8379397230131171,1469.149018619469,1514.5712639999997,39.61517125416689,57.863915818521875,810.6480949936889,1098.7294624759343,1093.8136803280747,113.0,776.9190536061834,1006.2301227381487,0.7721087215040183,779.1077257570091,715.2142079999999,83.89095089117694,80.1096754028137,187.3840498636154,292.8792914704778,292.19123960127166,214.0,207.09693306788623,220.8641990987166,0.937666375596359,817.2992809411763,715.2142079999999,83.89095089117694,78.2414603774115,266.8013070992737,389.49118212733396,388.53071514553426,204.0,275.41185609460246,323.17182689867144,0.8522149307927023,801.1687441148322,715.2142079999999,83.89095089117694,79.33874587422642,246.6761516737473,371.19636856868993,370.3029945452324,209.0,262.4754693667417,295.3837531068584,0.888591422534293,truth
1783770852051196280,1783770862051196280,1517.6310039272723,1409.3927039999999,34.78405280853678,54.54371866104451,838.0193676281096,1213.8805842973334,1208.3626201671386,110.0,858.343192707333,1017.9275037084541,0.8432262509660728,1425.7538133333333,1472.4998399999997,34.78405280853678,58.19398816008786,667.6067080284622,925.2874442728391,921.2916458065088,117.0,654.2770263920943,823.0177516779089,0.7949731643797497,782.2532527850466,715.2142079999999,83.89095089117694,80.00864643992158,195.8027698024319,299.53333790864235,298.85549055858627,214.0,211.80205442664257,232.9107000438903,0.90937021951645,824.6413600788176,715.2142079999999,83.89095089117694,77.8336411805837,273.49917662428305,391.2139356817845,390.2666136005731,203.0,276.6300268152677,333.6787577302662,0.8290309778690957,812.632019883495,715.2142079999999,44.56706766093775,78.71948568304303,260.7151978797558,388.14224762464085,387.19984071202964,206.0,274.45801536037163,313.49836955426656,0.8754687169524911,truth
1783770853051196280,1783770863051196280,1550.7448248224298,1430.4284159999997,178.268270643751,52.21987059179257,820.1932473986222,1185.0471934199238,1179.5793265404473,107.0,837.9549064933143,997.1708547177286,0.8403323287366998,1412.4491749743593,1472.4998399999997,35.6536541287502,58.61909909542389,669.6044773485465,897.2733047232388,893.4009832725668,117.0,634.4680383474656,833.9457214520618,0.760802558280092,788.8391999999998,715.2142079999999,44.56706766093775,79.67502817676427,207.7640132149815,312.9531942409178,312.225043555963,212.0,221.29132584174377,248.69025901307756,0.8898270753343298,819.774070588235,715.2142079999999,79.23034250833378,77.94266537908305,258.3512332465244,364.6736834877326,363.774422576896,204.0,257.8632345144524,316.6133218657616,0.8144421497961537,811.8150990291261,715.2142079999999,44.56706766093775,78.76326781429745,259.99301334986257,386.5337957349231,385.602166007825,206.0,273.32066812193995,312.79488514068095,0.873801590454437,truth
1783770854051196280,1783770864051196280,1456.4029473391306,1346.2855679999998,62.00635500652208,57.77716158328397,830.481111811598,1160.0705294437744,1154.986387511957,115.0,820.2937380243613,1021.2525866947246,0.8032231680109962,1427.5269384827582,1514.5712639999997,29.711378440625165,58.59624520496919,680.1651029803746,896.5512261414187,892.659359679048,116.0,633.9574516857111,851.0570541101736,0.7449059362401362,811.815099029126,715.2142079999999,79.23034250833378,79.036836461484,301.16673816951817,435.59866698413174,434.5349808510089,206.0,308.01477130030025,366.0140143351701,0.8415381904427348,836.1695519999997,715.2142079999999,79.23034250833378,77.1303016398993,281.3536976596209,403.6788346060735,402.6633442596441,200.0,285.4440413714373,342.900358699511,0.8324401947376685,840.371409045226,715.2142079999999,79.23034250833378,77.63177076430006,315.5268175634955,471.5174649555253,470.32530506517406,199.0,333.41319691794223,378.8563913463432,0.8800516621432483,truth
1783770855051196280,1783770865051196280,1401.6616303589744,1262.1427199999998,57.04584660600032,60.90218841881156,841.7847345401561,1171.5645208436154,1166.538981681584,117.0,828.4212172860888,1036.3697322793637,0.7993491043626694,1447.2569855999998,1556.642688,35.6536541287502,59.331890050158506,695.9108580169586,962.7085195844875,958.4774527320743,115.0,680.7377225042533,858.4182670421571,0.7930140219986979,819.7740705882351,715.2142079999999,83.89095089117694,78.69065953426845,313.9595000835871,455.48008980487106,454.3625518678383,204.0,322.07306019648195,381.1503736497034,0.8450026091079829,848.9030984771572,715.2142079999999,44.56706766093775,76.45112193756637,296.7723450871882,408.6303720710135,407.5875189670082,197.0,288.9453070901956,366.6100849299901,0.7881542788037984,848.9030984771573,715.2142079999999,83.89095089117694,77.16843181294462,325.5342470176024,487.7232344722144,486.4831814771292,197.0,344.8724064375393,390.48252662779305,0.8831954899899294,deceptive
1783770856051196280,1783770866051196280,1396.0700863999998,1283.1784319999997,44.56706766093775,60.25782854772556,835.3963601097878,1164.092750149232,1159.2198049717076,120.0,823.1378775606192,1028.1031924042761,0.8006374103709043,1425.672515895652,1598.714112,26.90841821037751,61.411405983082545,714.0358717273383,963.9089344393179,959.6754285991362,115.0,681.586543988341,887.3637043252639,0.7681027978337334,826.9860508656715,715.2142079999999,83.89095089117694,78.45792785510825,326.6882433190486,477.7369476985862,476.5412943710667,201.0,337.81103534103335,395.4646240141858,0.8542130315274816,856.8257537319586,715.2142079999999,23.002357502419482,76.49550567182432,330.3422115043364,431.69739268831063,430.6994276610754,194.0,305.2561537904564,414.3202791195237,0.7367637288697512,856.8257537319586,715.2142079999999,83.89095089117694,76.78792822025062,337.2657189611188,510.08872011966474,508.7657173473276,194.0,360.6871930033819,403.04925849626784,0.8948960589806464,deceptive
1783770857051196280,1783770867051196280,1353.4684940487805,1262.1427199999998,64.82482568863672,61.23222023162955,792.4430376544223,1082.0405898496122,1077.601341987889,123.0,765.1182386017525,981.4422939395938,0.7795855582405177,1390.1246988907567,1430.4284159999997,30.34353542872357,63.41734070390012,734.1411888565269,952.6774595751687,948.8347587600961,119.0,673.6446919491748,922.5117803343761,0.7302288234248929,851.9463359999999,715.2142079999999,83.89095089117694,77.6604948272649,376.7412310899155,525.7496509304647,524.3998421540379,196.0,371.7611433793918,463.42716422639046,0.8021997243083089,878.849904505263,715.2142079999999,83.89095089117694,75.90114712444068,381.3252786792772,517.0733618285216,515.7036286625846,190.0,365.6260805198729,473.26178901480574,0.7725662392499524,897.7499024516127,715.2142079999999,83.89095089117694,75.57029668825328,433.1480802297787,643.044051832631,641.3128122604836,186.0,454.70080965252714,521.400139685591,0.8720765014115951,deceptive
1783770858051196280,1783770868051196280,1384.532317090909,1262.1427199999998,25.02010816052645,60.528039678554116,808.5853341017391,1088.8713802097407,1084.3904435195693,121.0,769.9483367862632,1005.5895108785073,0.765668623684845,1382.3968736,1430.4284159999997,178.268270643751,65.76572000129265,753.9845280234572,1016.1519004301019,1011.877299896856,120.0,718.5278995097225,937.4668878475571,0.7664568304481421,874.468865340314,715.2142079999999,83.89095089117694,76.66878510893993,407.55714005948994,556.0896913313504,554.624366804589,191.0,393.214791688332,504.87296285867023,0.7788390756001033,903.8496688695649,715.2142079999999,95.07641101000053,74.68574231079548,403.03068160397817,555.0300988737056,553.511736800423,184.0,392.4655466762372,497.8482278409712,0.7883236792430711,912.6970124590164,715.2142079999999,83.89095089117694,74.85129217451707,453.0894422981656,655.493012856567,653.6897274238544,183.0,463.5035544112793,550.6017734880451,0.8418126797431086,deceptive
1783770859051196280,1783770869051196280,1343.9295682559998,1220.071296,57.04584660600032,61.05521880908584,750.9883946681758,1028.5988906235555,1024.4434241707174,125.0,727.3292506808759,929.2272157037618,0.7827248689977554,1395.7813609411764,1430.4284159999997,62.00635500652208,63.98465337942929,753.2867475928572,1013.4676036303549,1009.1643643416056,119.0,716.6298150399041,937.0713432263236,0.7647548078597277,884.6129046349205,715.2142079999999,64.82482568863672,76.15581810214066,421.0371230921754,574.7573273943466,573.2277713793961,189.0,406.4148037371991,521.495946000636,0.7793249532503623,913.6166064262294,715.2142079999999,83.89095089117694,74.36865306616339,420.7515021163998,573.4859021193128,571.9187325074028,183.0,405.51577030345067,521.3848224526805,0.7777667335919702,923.7118175469611,715.2142079999999,83.89095089117694,74.26942120552881,463.3340355629469,660.8228674726253,658.9846918188235,181.0,467.2723307530325,565.8490447799718,0.8257897314905419,deceptive
1783770860051196280,1783770870051196280,1311.8333782677162,1135.928448,83.89095089117694,61.40800274820503,727.2785483374834,977.179677476882,973.5911200964268,127.0,690.9703763815867,905.0680323739748,0.7634457871295991,1448.3545010086957,1640.7855359999999,101.86758322500057,61.865099372227675,764.8758254340313,1011.0521076501517,1006.6572174374163,115.0,714.9218014523735,956.3019740494254,0.7475900090690637,884.8355047619045,715.2142079999999,38.54449095000021,75.92694516621887,415.46519264830926,561.8916265384261,560.4131139720199,189.0,397.3173794172601,516.0349819644923,0.7699427234655944,894.2989860962565,715.2142079999999,44.56706766093775,75.09543848842121,397.9746479757872,545.1131069470349,543.6563614458814,187.0,385.4531744359161,492.42315747895236,0.7827681711991612,913.8465049180325,715.2142079999999,83.89095089117694,74.55974476681442,449.20840428223954,635.4184890260658,633.6704293481395,183.0,449.3087224816409,550.1247284994103,0.8167397304739095,deceptive
1783770861051196280,1783770871051196280,1268.5658381679386,1093.857024,15.334905001612988,62.66961052189723,668.972751402155,815.5496472030992,812.4084737815673,131.0,576.6806859316079,853.6795519829816,0.6755236020261431,1432.2418394482759,1430.4284159999997,31.692137003333507,63.200039604776194,789.5909762308291,1071.1365595714378,1066.4702796408715,116.0,757.407924849792,979.8338824401172,0.7729962582673612,885.7377457021273,715.2142079999999,64.82482568863672,76.01138141292341,420.2355242675445,572.9041697220532,571.372457392222,188.0,405.10442338051257,520.7120075354584,0.7779817202562331,891.8689507096773,715.2142079999999,37.53016224078968,75.37110535914408,400.2214346283932,546.7478446620398,545.2728877808601,186.0,386.60910855965744,495.601747435753,0.7800801965690713,921.5979157333331,715.2142079999999,37.53016224078968,74.89296685552796,492.79866605677785,708.4350900247258,706.4573593192229,180.0,500.93925618698586,600.1924535847597,0.834631047416598,deceptive
1783770862051196280,1783770872051196280,1268.291620430769,1093.857024,43.21655045909115,62.8619688154323,664.5495454085469,892.9010091192812,889.443524273198,130.0,631.3763584765551,827.0031097788298,0.7634510088425275,1394.4181293559323,1430.4284159999997,35.6536541287502,64.97357420276933,791.8418997396848,1059.9972127131186,1055.489991908215,118.0,749.5312171482855,986.4728407953312,0.7598092782199513,885.5139615319148,715.2142079999999,64.82482568863672,76.04158419347509,420.8556071566562,575.3729970210823,573.8519537537027,188.0,406.85014790523445,521.0329766196569,0.7808529712356892,870.2141911578947,715.2142079999999,64.82482568863672,76.55155979994275,383.6802937105406,522.9017841275013,521.5183216349451,190.0,369.7473974511003,475.46247654539724,0.7776584182575274,890.2493303101603,715.2142079999999,64.82482568863672,76.11237871427136,455.1889835344502,667.0809809690355,665.2862970520918,187.0,471.6974852437793,550.585835878112,0.8567192515795177,deceptive
1783770863051196280,1783770873051196280,1219.4480156444445,1051.7856,129.64965137727344,65.086202064314,651.422777557717,870.246873170484,867.0047446766467,135.0,615.3574653252386,812.0165424277209,0.757813952269344,1442.8669239652172,1430.4284159999997,44.56706766093775,63.80966496414006,851.4981016168131,1220.5344039249953,1215.1875483771412,115.0,863.0481536868449,1038.1098093761261,0.8313649923080023,865.785620210526,715.2142079999999,83.89095089117694,76.74604622135853,391.69132802538434,525.9912558186159,524.5978990509419,190.0,371.9319838341713,487.5217867964132,0.7629033079284483,866.1892659999997,715.2142079999999,83.89095089117694,76.78080341488744,380.61392626651167,512.9342254335971,511.621758024888,192.0,362.6992691067658,473.2425824360357,0.7664130037490633,890.6992920641708,715.2142079999999,83.89095089117694,76.02105184276888,449.69241483476367,648.2977407050881,646.5931697524404,187.0,458.41572868048587,547.1508437067532,0.8378233058636657,deceptive
1783770864051196280,1783770874051196280,1274.7641471999998,1156.96416,46.004715004838964,62.98553602426125,688.1738773320892,951.0525350732669,947.3659057882619,130.0,672.4956968149638,849.141531057833,0.791971270062825,1441.3089566896551,1430.4284159999997,36.56785038846174,62.925889075776475,862.2990258076846,1263.1325560453176,1257.62873751422,116.0,893.1695959171409,1043.18898397288,0.856191552671113,852.6475263999997,715.2142079999999,83.89095089117694,76.95873799042742,346.16811033422954,466.2258311004248,465.0277223280719,195.0,329.67144673544436,430.491683808668,0.7658021261148609,875.0856191999998,715.2142079999999,83.89095089117694,76.499617248883,403.1680750047201,549.5343038316665,548.0831016573878,190.0,388.57943273399997,499.5918390387143,0.7777937955945838,860.0538499999999,715.2142079999999,83.89095089117694,76.60408472623332,367.3428946012433,535.6296148329155,534.2256483528939,192.0,378.74733285269315,445.14810272147173,0.8508344313660359,deceptive
1783770865051196280,1783770875051196280,1305.8704992755904,1262.1427199999998,44.56706766093775,60.184678615557054,659.6814269254518,898.9095591190178,895.3533451969133,127.0,635.6250449264672,817.5264957124715,0.7774977915211448,1454.7855562105258,1367.3212799999997,44.56706766093775,62.04625745637727,868.91955468945,1271.97823960914,1266.3552429987592,114.0,899.4244387493501,1051.4562399518263,0.8554083418541111,860.1753321450775,715.2142079999999,95.07641101000053,76.82163070742975,370.93997864363,485.61129406611445,484.34507995422894,193.0,343.3790390549242,465.01435814513496,0.7384267454119183,872.9269806910992,715.2142079999999,83.89095089117694,76.99414764240208,416.37329270045547,566.7406229817547,565.247276081095,191.0,400.7461376842872,516.1731340490335,0.7763793023102566,883.0523356595743,715.2142079999999,95.07641101000053,75.98480651482846,422.4203957695892,621.8278303723197,620.1630011779484,188.0,439.69867558678544,510.1083403237847,0.8619711555935203,deceptive
1783770866051196280,1783770876051196280,1324.4084275200005,1262.1427199999998,36.56785038846174,59.77621391507048,677.9519436301327,935.81037157965,932.041407994307,125.0,661.7178596486733,836.8407332669334,0.7907333299436802,1522.2907913394492,1598.714112,35.6536541287502,58.43201822102286,904.7288328857983,1321.8142865380487,1315.680602124824,109.0,934.6638454803124,1095.56846891729,0.8531313852104618,829.4977776716415,715.2142079999999,83.89095089117694,78.0782137059106,316.66727692430953,425.94592471378417,424.8797254828468,201.0,301.1892517838914,393.95284724728737,0.7645312221714506,855.0207862153845,715.2142079999999,83.89095089117694,77.18439669034115,366.28036315381587,517.6116825935628,516.2759082825995,195.0,366.00673078328714,448.7116505896049,0.815683591683782,855.0207862153843,715.2142079999999,83.89095089117694,76.68250197571473,337.98678340727145,492.5730518568804,491.3018934748933,195.0,348.30174519775306,409.6499464934512,0.8502423793269582,deceptive
1783770867051196280,1783770877051196280,1319.573552761905,1262.1427199999998,44.56706766093775,59.715457338063196,706.7118316601351,956.5411316980416,952.7110889857697,126.0,676.3767207075397,877.5764877543744,0.770732500409527,1476.5952883539824,1430.4284159999997,41.94547544558847,58.41280116921439,857.8150938209086,1228.3549907298805,1222.97579281285,113.0,868.5781436494373,1046.1737305826396,0.8302427390962159,813.9362623366334,715.2142079999999,83.89095089117694,78.4900675594623,274.35627669954573,375.0022648952756,374.0684945346796,202.0,265.1666444677634,339.68523438578956,0.7806245830709455,828.8070527999998,715.2142079999999,44.56706766093775,77.97256255340929,304.0256619614937,429.6243185044203,428.5585716015569,200.0,303.7902689771247,372.4499194517996,0.815654006380956,847.0380031999997,715.2142079999999,83.89095089117694,76.80773154986632,314.4934983593561,438.7998228672087,437.66748806727145,195.0,310.2783303328592,386.87982615217766,0.8020018345717836,deceptive
1783770868051196280,1783770878051196280,1325.9176563809522,1262.1427199999998,50.933791612500286,60.51149806593718,732.3373948272463,1034.6187928203908,1030.5214749616755,126.0,731.585964346338,897.2330288784711,0.8153801083992753,1390.8317816470583,1304.2141439999998,50.933791612500286,61.23708247744716,838.5229260284153,1174.2618884602025,1169.2769748277067,119.0,830.3285442191304,1030.3002714150764,0.8059092744668573,811.8150990291261,715.2142079999999,83.89095089117694,78.64243812944811,272.09824940297335,376.8270818487096,375.9194724969291,206.0,266.45698490996074,335.5223573067402,0.7941556772813242,815.7751726829266,715.2142079999999,83.89095089117694,78.65172974872854,286.2345638330656,409.2409675042625,408.2484142369319,205.0,289.37706326160753,349.27196952296987,0.828514992648377,840.3714090452261,715.2142079999999,83.89095089117694,77.13536595519551,305.8592549914853,423.1099211232972,422.0401627325895,199.0,299.1838944135887,377.2853911691415,0.7929909331672506,deceptive
1783770869051196280,1783770879051196280,1317.464986204724,1262.1427199999998,33.955861075000186,62.690299716807665,757.0388912687204,1047.7389051393704,1043.5729821965178,127.0,740.8632847370177,933.6897570665992,0.7934790749601986,1346.9641393548386,1283.1784319999997,83.89095089117694,62.31032886985448,776.0922560304135,1121.3911759906698,1116.8674212842884,124.0,792.9433049057596,943.5352867504848,0.8403960255017481,807.6900433623186,715.2142079999999,83.89095089117694,78.94685380861975,269.5938705305777,374.7577867072347,373.8470738502003,207.0,264.99377228314745,332.0404499167074,0.7980767775420775,807.6900433623186,715.2142079999999,83.89095089117694,79.13723398100842,277.66395978811806,396.8901430851602,395.9256455644716,207.0,280.64371156161593,338.8422977004133,0.8282428535818348,840.1599948542712,715.2142079999999,83.89095089117694,77.13743929682637,305.55140639869376,423.01440586703467,421.9448354933017,199.0,299.1163549281787,376.8129867874505,0.7938058544062382,deceptive
1783770870051196280,1783770880051196280,1353.8105381463415,1304.2141439999998,44.56706766093775,62.67792033526929,780.6067063117574,1100.5949477736274,1096.076387761938,123.0,778.238150910386,957.0090648011502,0.8131983066138359,1325.418141696,1262.1427199999998,142.6146165150008,63.41457878532446,768.7278150814439,1094.4813097367503,1090.380345451659,125.0,773.9151559967902,939.3681775635222,0.8238677597149668,811.815099029126,715.2142079999999,83.89095089117694,78.75302497899062,275.4412845435888,385.0505480613737,384.1102522791634,206.0,272.271853633794,338.62932732038047,0.8040409724353113,811.815099029126,715.2142079999999,83.89095089117694,78.9454336088949,283.5351935334527,408.2377876106729,407.2408684483399,206.0,288.66770795610034,345.1374930890452,0.836384669113953,844.6157090909089,715.2142079999999,41.94547544558847,76.80641135445751,306.883367810105,423.1705338723565,422.11074370579917,198.0,299.2267540994749,378.92806400752454,0.789666383996127,truth
1783770871051196280,1783770881051196280,1336.18842624,1304.2141439999998,59.42275688125033,63.03411949453214,746.280670507003,1049.0226128824247,1044.7934305510078,125.0,741.7710031871931,915.8370858182675,0.8099377221926402,1295.3397029999996,1241.107008,35.6536541287502,64.2318700355893,724.2024492819112,1016.5504476544324,1012.5742396971006,128.0,718.8097149546696,889.1539079007815,0.8084199018499729,807.8932869565216,715.2142079999999,83.89095089117694,78.90233974719969,266.1714847891152,370.30781475160705,369.4079159371815,207.0,261.84716693723317,327.7385378821916,0.7989514099539808,807.8932869565217,715.2142079999999,83.89095089117694,79.06868438890571,276.743358118109,397.58567946639886,396.6194916968418,207.0,281.1355300533517,337.1278383577754,0.8339137207500436,836.1695519999998,715.2142079999999,83.89095089117694,77.18917127985304,283.9028206088132,389.16785037769296,388.18881020938426,200.0,275.1832260218584,351.1961263416517,0.783559969434725,truth
1783770872051196280,1783770882051196280,1289.0037060923078,1262.1427199999998,44.56706766093775,64.06448642011117,699.7670817895387,991.9317515945471,988.0797901944829,130.0,701.4016680267542,856.3677875522509,0.8190425635130029,1326.7890544390243,1304.2141439999998,158.46068501666755,63.19487043574662,744.4421186315482,1019.3999315025904,1015.5882385267499,123.0,720.8246043065838,921.1916634980935,0.7824914541338287,807.8932869565215,715.2142079999999,83.89095089117694,78.94139144035978,267.4274766657211,373.61554306305806,372.70766197021203,207.0,264.1860840565829,328.84307358832064,0.8033804123462185,807.8932869565216,715.2142079999999,83.89095089117694,78.98889302945894,274.06024565052894,392.0418431000539,391.08918093916753,207.0,277.2154457649206,334.3558505645366,0.8291030209187655,836.1695519999998,715.2142079999999,83.89095089117694,77.15138234978238,283.0242388380764,387.40655638220125,386.43200498080415,200.0,273.93780309398306,350.26344307930015,0.7820907619867231,truth
1783770873051196280,1783770883051196280,1341.5355685161287,1304.2141439999998,25.92993027545469,60.677632838022625,695.0244811346935,970.4578999777615,966.5267472552715,124.0,686.2173619303314,854.79291342745,0.8027878462150747,1298.9959828837207,1262.1427199999998,79.23034250833378,63.39964909894477,676.1355228820016,870.8003665437894,867.7709271193993,129.0,615.7488442428447,851.3196644108698,0.7232874676622855,813.1746315294115,715.2142079999999,83.89095089117694,78.50445671724665,268.96737824495347,378.79018675647205,377.8706039894097,204.0,267.8451097024202,329.87330859615935,0.811963571233719,798.9466030829266,715.2142079999999,83.89095089117694,79.06879005908965,228.6577831940181,319.7526392784927,318.9679690422635,205.0,226.0992595361182,281.0841974373776,0.8043826782062004,833.6061549346732,715.2142079999999,83.89095089117694,77.2450207869888,279.7121062742564,386.80895527423695,385.8459063556254,199.0,273.5152352980969,345.0687363738929,0.7926398611832934,truth
1783770874051196280,1783770884051196280,1348.6605677419352,1325.249856,35.6536541287502,59.22548118432588,680.4633903764324,958.3257720308113,954.4359787853696,124.0,677.6386519888201,834.5440551286465,0.8119866744295013,1279.163983145038,1304.2141439999998,34.78405280853678,64.23448312014777,634.2302160541591,863.4000834720194,860.0731466910593,131.0,610.5160539000962,786.2130804542354,0.776527469559995,808.1389551844659,715.2142079999999,83.89095089117694,78.94383070521219,268.4739378915369,381.1093484197305,380.1788986399427,206.0,269.4850046411781,328.3982746464264,0.8206042036345108,796.538874488038,715.2142079999999,83.89095089117694,79.18452382673837,222.18222187881764,322.4810471479705,321.70517269512266,209.0,228.0285352424687,269.6875469790984,0.8455286044785064,820.6010423762373,715.2142079999999,95.07641101000053,78.0889831039584,270.0659152022947,385.86629397585335,384.90523073016624,202.0,272.84867310164776,329.617957492369,0.8277724768923261,truth
1783770875051196280,1783770885051196280,1318.9057523809524,1304.2141439999998,71.3073082575004,61.4007177338433,686.7482853554785,960.5052363948666,956.6564478189929,126.0,679.179766019998,844.1586566468948,0.804564119164265,1276.5947358778626,1262.1427199999998,142.6146165150008,64.10564600823015,630.5915848010308,897.2514733653338,893.7959532586943,131.0,634.4526012462485,770.7311087724988,0.8231828117807601,790.5420909714284,715.2142079999999,89.1341353218755,79.6302136156217,216.65959490171025,326.5750344786115,325.7928798924513,210.0,230.92342144605675,259.2680983842204,0.8906742591363536,809.3643364660192,715.2142079999999,89.1341353218755,78.45487539703652,241.6166278443393,355.17249297259804,354.30521902010184,206.0,251.14487827185548,291.92518692406,0.860305617744409,801.5819870769228,715.2142079999999,89.1341353218755,78.77106237304851,221.74393840591176,301.6059876842227,300.8766574687814,208.0,213.26763913798024,274.9530968870613,0.7756509803036743,truth
1783770876051196280,1783770886051196280,1327.5871573333332,1304.2141439999998,25.02010816052645,63.004238352623595,710.5076204899277,965.7629947047043,961.9261022029565,126.0,682.8975625747241,881.1739993118662,0.7749860562250115,1211.2301996521737,1199.035584,79.23034250833378,67.14438745130619,593.5112140203454,876.8143104225544,873.6103403438505,138.0,620.0013447411947,715.7585407072442,0.8662157829490496,809.3643364660192,715.2142079999999,83.89095089117694,79.15389764489723,304.93334618919465,450.2415238577381,449.1422188640117,206.0,318.36883469157135,367.8169840897018,0.8655631698995411,813.7933289411761,715.2142079999999,89.1341353218755,78.33949489710552,251.66714628230986,366.3757035754923,365.472245047171,204.0,259.06674446022305,305.1473676654509,0.8489889539019441,809.3643364660192,715.2142079999999,83.89095089117694,78.48432111022316,241.83094277430104,339.42055656603276,338.5919382835469,206.0,240.0065772219539,296.92226459347177,0.8083145181132058,truth
1783770877051196280,1783770887051196280,1258.3180450909092,1283.1784319999997,29.105023778571592,66.36266090807113,651.7563903558822,871.2934161669235,867.9786689468559,132.0,616.0974829748243,812.2713404248,0.7584872841292405,1241.1070079999997,1304.2141439999998,29.711378440625165,66.61062184608365,600.0745733150557,873.9407075248257,870.731991559213,134.0,617.9694006457735,727.486011557091,0.8494588085935684,813.3124551804879,715.2142079999999,83.89095089117694,78.86395124745171,306.3900079869807,446.09310581580564,444.9984449462871,205.0,315.4354601629243,371.48339024029906,0.8491239943699249,816.268118588235,715.2142079999999,83.89095089117694,78.53284636005856,284.6238831910567,423.40275160693506,422.3586510460989,204.0,299.3909568343072,342.35075178598856,0.8745152603650874,820.8093167524751,715.2142079999999,95.07641101000053,78.4245823267575,311.83330508459295,450.68486474904626,449.56240895575746,202.0,318.68232404219265,379.07889481148266,0.8406754593939464,truth
1783770878051196280,1783770888051196280,1274.346644519084,1262.1427199999998,36.56785038846174,64.23419132159967,644.403918607377,860.7680597517292,857.4571294012757,131.0,608.6549320792351,803.2947201749162,0.7576981608278235,1312.5616487619047,1346.2855679999998,178.268270643751,65.17720068531845,692.6550083429127,958.2952752750629,954.5745589261041,126.0,677.6170875260262,854.3766514315649,0.7931128342407693,805.4543638260868,715.2142079999999,64.82482568863672,79.27373944125667,296.3852827140785,433.4583088767835,432.40730896907905,207.0,306.5013095684267,358.77143871193016,0.8543079980637117,825.3913530297027,715.2142079999999,64.82482568863672,78.19179114467788,312.01918254166935,463.00320072110065,461.852339421675,202.0,327.39270294096644,375.65802211379327,0.8715179329826572,817.2992809411762,715.2142079999999,64.82482568863672,78.58479151470672,305.78453071746645,445.5053288956468,444.4090383500811,204.0,315.019839116855,370.6610431831187,0.8498865605394222,truth
1783770879051196280,1783770889051196280,1247.591701172932,1220.071296,75.06032448157936,65.30486602740616,631.3060050755846,848.7165347489823,845.5220796515322,133.0,600.1332170261535,785.5027721147189,0.7640115838299129,1308.5206677165352,1346.2855679999998,23.002357502419482,65.09008887270117,686.3654728154814,974.4050204265101,970.5418888914663,127.0,689.0083975658016,839.5408498627937,0.8206966911477939,794.9071938461536,715.2142079999999,83.89095089117694,79.53241113943257,232.90158058757712,341.009421346778,340.1849727382707,208.0,241.13007428280736,281.80567084174737,0.8556608302542568,821.6424142574255,715.2142079999999,95.07641101000053,78.48551142289503,310.98272545908407,459.0607385218089,457.91737251596925,202.0,324.6049611852756,375.14839817713863,0.865270817528595,824.1417067722771,715.2142079999999,52.82022833888918,78.19225695006845,311.75444839906345,454.92890795018405,453.80278400457297,202.0,321.68331576936583,377.6792215240625,0.8517368640807552,truth
1783770880051196280,1783770890051196280,1266.3177468091599,1220.071296,23.002357502419482,64.27064220567067,650.6356255264055,884.3247123966455,880.9302726137386,131.0,625.3120009065115,806.9361097196119,0.7749213269484125,1361.8037161967213,1409.3927039999999,20.08656570633814,62.8472899849228,726.3499887262733,1013.6015110988201,1009.4388777758018,122.0,716.7245019189073,893.488447837946,0.8021642626194326,790.1850867867296,715.2142079999999,83.89095089117694,79.76104579721819,224.91816482015273,327.5684380439058,326.7878281327644,211.0,231.62586384353125,272.6739652616284,0.8494608703155366,817.2992809411762,715.2142079999999,83.89095089117694,78.69303298223767,305.44216733227364,449.7845140726258,448.67549419253015,204.0,318.0456799734498,368.7998208979856,0.8623802451938418,817.2992809411762,715.2142079999999,83.89095089117694,78.69276018642309,308.28357821467125,451.24324819126366,450.13063031531715,204.0,319.07716076068687,373.058188402469,0.8553013194189819,truth
1783770881051196280,1783770891051196280,1249.4896601503754,1135.928448,54.85177558269261,64.8265109559036,639.4928781420892,875.0257349555675,871.7119925479274,133.0,618.7366308998244,791.5079110029623,0.7817188208716573,1399.4096542372881,1409.3927039999999,39.61517125416689,63.02723308287134,820.8500134036299,1177.2663031231102,1172.2646594255339,118.0,832.4529862007688,1000.5500996412873,0.8319953058814508,791.1431113142855,715.2142079999999,44.56706766093775,79.57528840241717,221.15149729883004,317.0681514073187,316.3231172804358,210.0,224.201039958398,269.59769352836696,0.8316133458864613,830.7002668799997,715.2142079999999,83.89095089117694,77.96477158266362,318.65266769875626,467.66632873057034,466.48980780072395,200.0,330.6900323780034,385.2286288763927,0.8584253806435322,835.4789856969696,715.2142079999999,44.56706766093775,77.51050521970105,322.5589793209474,455.50698829977745,454.3607010481308,198.0,322.092080304634,395.24288252119015,0.8149218987829988,truth
1783770882051196280,1783770892051196280,1261.823997090909,1241.107008,34.78405280853678,64.79669745045219,636.8470653752878,857.4779776954977,854.2018494723153,132.0,606.3284927466135,792.042453910169,0.7655252439478217,1365.2521935737702,1325.249856,46.004715004838964,63.16482011573187,791.404675900821,1085.2104217151416,1080.732941759216,122.0,767.3596482090895,978.8883017104546,0.7839093049413792,803.4219278840577,715.2142079999999,83.89095089117694,78.80566674702129,234.06154062272114,335.40207302317185,334.58706228248275,207.0,237.16508025871042,285.3874067829609,0.8310285409302454,835.7202968442208,715.2142079999999,83.89095089117694,77.70712239768342,323.0645634470708,476.8607180626388,475.65504749122005,199.0,337.19144742357827,389.7337401389428,0.8651841313594435,844.2047668629439,715.2142079999999,83.89095089117694,77.10087962331234,335.3367962425539,476.5650546337486,475.3478212768527,197.0,336.9823818080611,410.02801246246975,0.8218520968464452,truth
1783770883051196280,1783770893051196280,1240.951187911111,1177.9998719999999,101.86758322500057,66.42871188060526,636.8402589353227,866.8248819333979,863.5853169084996,135.0,612.9377521163341,789.4838103576953,0.7763778611731472,1335.1787120640001,1304.2141439999998,79.23034250833378,67.36358861533269,812.5191210680246,1119.5721778887598,1115.0783674261322,125.0,791.6570790129338,1003.5009610491986,0.7888951876889345,823.8123665024627,715.2142079999999,83.89095089117694,78.10235460992004,293.3284579448441,389.0013110133632,388.03746542342446,203.0,275.06546490800633,366.40505385170593,0.750714167330598,833.0141951999997,715.2142079999999,83.89095089117694,78.00997290062824,324.98191688588827,481.04653439562395,479.83635251769664,200.0,340.15126653743346,391.63126859603886,0.8685498166600528,875.5702115183244,715.2142079999999,41.94547544558847,76.30392893324829,444.5219194712019,628.4250319513475,626.783220046108,191.0,444.3636015601706,544.4905587656781,0.8161089194411593,truth
1783770884051196280,1783770894051196280,1281.0909185954197,1220.071296,95.07641101000053,65.60134956807403,706.8695329622474,984.7726877461533,980.9882514193688,131.0,696.3394454326076,869.9912422707689,0.8003982242569341,1348.6605677419357,1304.2141439999998,33.955861075000186,67.44221169871528,828.1082141775585,1152.7700861726075,1148.0757392975802,124.0,815.1315450816516,1019.4639330957667,0.7995687916161713,823.8123665024629,715.2142079999999,83.89095089117694,78.09512331198768,293.029582548383,388.3557764678216,387.39336312790226,203.0,274.6090030533637,366.0978287534332,0.7500973277782339,832.8038380799997,715.2142079999999,41.94547544558847,78.04988750782309,323.4262914116863,478.1719195329126,476.98251006177753,200.0,338.1186068747107,389.9320912610124,0.8671217744127173,871.0099499999998,715.2142079999999,83.89095089117694,76.54248360779361,441.6275086028645,624.0424156211819,622.4066918481744,192.0,441.2646238337716,541.0290921807868,0.8156023958991127,truth
1783770885051196280,1783770895051196280,1278.1233384186046,1262.1427199999998,158.46068501666755,66.38569870407994,707.8523690657136,1003.2973541257381,999.4799850610218,129.0,709.4383626488303,866.2901116744665,0.8189385438990469,1370.4766367999996,1346.2855679999998,36.56785038846174,65.97289290655534,830.8917160339475,1131.658841038187,1126.9232776644096,120.0,800.2036404878113,1029.8539481026924,0.7770069163321969,851.1873154639173,715.2142079999999,83.89095089117694,76.60601797655347,325.15925846252753,434.2781356283206,433.1518210086438,194.0,307.0810146238367,405.348876841418,0.7575721364191025,838.2250720812182,715.2142079999999,83.89095089117694,77.66712833157796,325.7155689636143,476.61252302215553,475.39531379076163,197.0,337.01594702739567,394.1971454173607,0.8549426370669839,892.5475220645159,715.2142079999999,37.53016224078968,75.34754401549198,457.1319357004627,645.7635910476189,644.0371590459343,186.0,456.6238142731478,560.0772798407598,0.8152871589488048,deceptive
1783770886051196280,1783770896051196280,1315.9006506666665,1262.1427199999998,101.86758322500057,62.880685447377466,712.2410303732529,1034.7512317961675,1030.6382638922116,126.0,731.6796128442031,864.2320537728189,0.8466240168367327,1453.4762395826085,1430.4284159999997,37.53016224078968,61.547329207703555,835.4144572937727,1163.704863689561,1158.5901817028516,115.0,822.8636004146556,1028.2423734058095,0.8002622938880788,862.2473289896905,715.2142079999999,79.23034250833378,76.16306160115961,362.17165473828913,499.00728665747124,497.7128904842662,194.0,352.8514362569973,447.3081118842225,0.7888330814539899,857.8255478153844,715.2142079999999,83.89095089117694,77.06849836134798,393.9288747842815,569.6873378406364,568.2171745179005,195.0,402.82977974322563,478.7734339472402,0.841378721501111,919.098801230769,715.2142079999999,83.89095089117694,74.04346051278178,481.5771009952002,656.3082212922951,654.4927040624801,182.0,464.0799938242631,596.7812732248881,0.7776383319075455,deceptive
1783770887051196280,1783770897051196280,1329.793569792,1304.2141439999998,36.56785038846174,61.7157054970641,717.3842601924832,1047.986185746493,1043.754582898003,125.0,741.03813853117,868.7413839371083,0.853002000633156,1421.3612987586207,1388.3569919999998,64.82482568863672,62.58612977122611,826.7735238438999,1146.767265694089,1141.7803396734796,116.0,810.8869100150456,1018.9897590465004,0.7957753282759359,845.9361325714283,715.2142079999999,95.07641101000053,77.17406266134584,350.893887753109,481.8701954965524,480.6332364571518,196.0,340.73368288729955,433.82406525919185,0.7854190446620921,853.2342367346937,715.2142079999999,83.89095089117694,76.94922107947035,368.32067203200535,530.2768455604901,528.915413672125,196.0,374.96235340203407,448.3546048138908,0.836307577475821,894.2989860962565,715.2142079999999,49.17745397068992,74.90968835908681,432.1144850828832,576.13424364146,574.5898194058027,187.0,407.38843055265886,538.9463700247097,0.7558979022977386,deceptive
1783770888051196280,1783770898051196280,1276.8187981395347,1220.071296,46.004715004838964,65.8247623927662,722.2875070879079,1038.6261455542335,1034.5662781422607,129.0,734.4195906390446,879.6092417848497,0.8349384655722863,1435.143316965517,1388.3569919999998,29.711378440625165,60.8303953093245,811.7433373101512,1126.359106437978,1121.4533484537703,116.0,796.4561622135144,1000.3415827460657,0.7961841994282995,862.0304659793815,715.2142079999999,83.89095089117694,76.74051969224311,408.7115761592967,549.0482022829193,547.6239503318859,194.0,388.2357070325355,508.6519663440876,0.7632639461181319,840.3714090452261,715.2142079999999,83.89095089117694,77.71016120684641,357.74924331593877,511.7507399205524,510.4568042470543,199.0,361.86241847505585,436.4594336635941,0.829086028540204,894.2989860962564,715.2142079999999,83.89095089117694,75.32529876149582,448.3270678982948,599.4175423164153,597.8040332192721,187.0,423.85220893411156,558.7208355801685,0.7586117823832164,deceptive
1783770889051196280,1783770899051196280,1337.4641403870967,1346.2855679999998,101.86758322500057,63.106738741640086,740.4188572954108,1086.026248076793,1081.626348174035,124.0,767.9365245616841,895.3082796441373,0.8577341928155962,1402.8521885042016,1346.2855679999998,89.1341353218755,61.97615261777172,788.577685837549,1103.2164107223964,1098.5573341518993,119.0,780.0918051380899,969.2460580162327,0.8048439286250108,865.9701439999999,715.2142079999999,83.89095089117694,76.67266494758736,414.8658246129509,560.7380575874066,559.2684040381254,192.0,396.50168298942805,515.3838497244972,0.7693327666386547,839.9411064242421,715.2142079999999,83.89095089117694,77.78373167730608,358.554341183989,512.9929112202753,511.68928681436626,198.0,362.74076622448524,437.4151339668135,0.8292826152009779,890.4743111871657,715.2142079999999,64.82482568863672,75.59502555666295,447.3940862745629,595.7731235094753,594.1715340570472,187.0,421.2752156822405,558.1993668868166,0.7547038579276291,deceptive
1783770890051196280,1783770900051196280,1305.8704992755906,1346.2855679999998,41.94547544558847,65.73491535490295,758.6645266278915,1072.0684236942425,1067.81092977803,127.0,758.0668522901716,929.4143595062866,0.8156392727705043,1342.5230829268294,1346.2855679999998,36.56785038846174,64.2567822378408,755.7899705733806,1048.3734826913662,1044.1227570512835,123.0,741.3119988272227,931.4854907275887,0.7958384818728412,873.7570479157894,715.2142079999999,83.89095089117694,76.168415926918,418.7486584298424,564.580630708859,563.0852262495722,190.0,399.2187925008121,520.5891429243242,0.7668596203491029,872.9269806910993,715.2142079999999,83.89095089117694,76.45645951281388,408.90053779161025,575.8629585076512,574.3457011550353,191.0,407.19660299490766,501.4925352058991,0.8119694200985941,907.1794486557375,715.2142079999999,83.89095089117694,74.77900885858924,461.9551252790294,613.9722263440636,612.283340670795,183.0,434.14392470808923,576.6841439320626,0.7528279202336355,deceptive
1783770891051196280,1783770901051196280,1266.6048407272724,1220.071296,59.42275688125033,67.54563076143117,755.5575825416785,1067.79731217468,1063.7163178912533,132.0,755.0467203714851,925.5737388779906,0.8157607423983055,1346.2855679999998,1346.2855679999998,142.6146165150008,64.90692146222824,712.5634842538267,997.7780364441501,993.725288455173,124.0,705.5356156886567,875.5587848233386,0.80581181745668,875.5702115183244,715.2142079999999,29.105023778571592,76.00591025591315,417.43778728026905,555.85337967278,554.4311720353072,191.0,393.0476941120834,520.8314195356127,0.754654345666272,869.9143399999998,715.2142079999999,83.89095089117694,76.75672306822614,416.30757450973374,581.5747768690652,580.0503736664302,192.0,411.2354684911693,511.92449435026964,0.803312740510895,902.8300177297297,715.2142079999999,83.89095089117694,75.39240444480912,478.8043121017754,650.5422151669093,648.7720692790665,185.0,460.0028117926396,593.8904319366842,0.7745583815731205,deceptive
1783770892051196280,1783770902051196280,1251.3061410909088,1220.071296,59.42275688125033,67.1531280904835,744.1945923243023,1054.6587386097888,1050.6352327535674,132.0,745.7563459086322,910.8100343968392,0.8187836296758526,1359.967331902439,1346.2855679999998,24.58872698534496,65.10597685510054,746.6839088855655,1090.7356226046736,1086.3574032846566,123.0,771.2665552254956,904.2387239952477,0.8529457263428911,885.9879989677418,715.2142079999999,57.04584660600032,76.2647317892603,486.85818690312357,657.901809149366,656.1567556714193,186.0,465.20683060441456,604.857909503291,0.7691175452866974,868.5215959790576,715.2142079999999,83.89095089117694,77.10899353964052,429.6729650350046,583.2209710218496,581.6949433154207,191.0,412.39950353975274,533.1050914257219,0.7735801255186715,883.7310656703296,715.2142079999999,89.1341353218755,75.95919563322396,405.7702565645632,546.6497130382569,545.1375889818813,182.0,386.5397190230317,504.57162527607596,0.7660750221765578,deceptive
1783770893051196280,1783770903051196280,1260.8678283636364,1220.071296,35.6536541287502,67.93407965754771,765.7831903623314,1085.6158853021332,1081.465567459987,132.0,767.6463542609755,937.1271667590999,0.8191485440719365,1463.7823377297295,1430.4284159999997,19.807585627083444,59.42151405126458,794.5338236879237,1170.3484810691257,1165.2134336044337,111.0,827.5613473153545,959.2388139473417,0.8627271283048648,868.5215959790575,715.2142079999999,83.89095089117694,76.99709544756111,464.81223557158904,638.8515058093835,637.1680997059908,191.0,451.7362319290521,574.5154628514255,0.7862908157197414,877.7123006984124,715.2142079999999,83.89095089117694,76.99638870047968,454.64173862432256,621.9689831823183,620.3126047870146,189.0,439.79848569591906,562.7493820418481,0.7815174920320286,890.4743111871657,715.2142079999999,83.89095089117694,76.05373053555363,440.66463832904566,602.8710638876466,601.2484288049881,187.0,426.2942174561033,545.4422673657419,0.7815569913841223,deceptive
1783770894051196280,1783770904051196280,1233.257861731343,1156.96416,54.85177558269261,68.51806407465575,731.858738079372,1030.312229660811,1026.4333219144073,134.0,728.540764332591,897.6907052872406,0.8115721373092245,1462.0750623716815,1430.4284159999997,49.17745397068992,59.676000594313514,807.354333472303,1181.4868848066046,1176.2008034349933,113.0,835.4373881297195,977.0692016487417,0.8550442350654103,866.1892659999997,715.2142079999999,83.89095089117694,77.48925445958064,476.5918018442229,650.798335531763,649.117703611866,192.0,460.1839162394277,590.2498392947836,0.7796425947175936,889.3494068021388,715.2142079999999,83.89095089117694,76.79343204224148,485.6068058326923,654.1294940379549,652.3952187524048,187.0,462.53940100836326,603.8680244883583,0.7659610746905516,889.3494068021388,715.2142079999999,83.89095089117694,76.03463376488878,437.9843653138584,590.0415869667988,588.4827021474398,187.0,417.22240732629547,544.63137986274,0.7660638419906054,deceptive
1783770895051196280,1783770905051196280,1236.3975202388058,1156.96416,95.07641101000053,67.96534554833721,720.209800516779,998.4625338142944,994.7022856210629,134.0,706.01962842079,887.7907724588727,0.7952545242899522,1435.5060016551724,1409.3927039999999,59.42275688125033,61.496748882211904,814.8731180472863,1197.7883652364371,1192.5694434451734,116.0,846.9642754850338,984.5619102211242,0.8602448121264541,827.1921900606061,715.2142079999999,83.89095089117694,78.86321742944361,376.49313894601397,506.770874631888,505.4884764124113,198.0,358.3411219600457,468.28408845812066,0.7652216481237386,879.9383019682539,715.2142079999999,23.002357502419482,77.13097101313556,453.2752292303753,600.3426478161601,598.8362369851253,189.0,424.50635730629415,566.4044872447331,0.7494756253985548,867.4202498010468,715.2142079999999,50.933791612500286,77.33261226350633,429.49198560479897,602.0056537618466,600.4193383464424,191.0,425.68228008764254,527.5642421612733,0.8068823587128445,deceptive
1783770896051196280,1783770906051196280,1224.0928291764703,1135.928448,25.92993027545469,69.66315471743519,721.5541756875034,988.3811042603797,984.7469647069321,136.0,698.8909812191625,892.7802389666805,0.7828253255561203,1414.9662687179487,1388.3569919999998,35.6536541287502,63.63024420030203,829.1637379425414,1189.9789137889438,1184.8386475840741,117.0,841.4421594091642,1010.4516588249613,0.8327386590543722,828.4512248358207,715.2142079999999,83.89095089117694,78.68504798065165,372.5979324407314,503.5781298881083,502.31765098114397,201.0,356.08351050112145,462.88303629838776,0.7692731912335188,875.6255733048125,715.2142079999999,36.56785038846174,77.13337520404178,435.9379289480563,595.9611409758392,594.3797034707387,187.0,421.4081641076879,539.714123775481,0.780798844321132,854.6571236288657,715.2142079999999,95.07641101000053,77.748396815456,405.8443855118416,580.2879724264353,578.7827243717704,194.0,410.3255603437247,495.2128812614559,0.8285841824196946,deceptive
1783770897051196280,1783770907051196280,1220.6854773722628,1093.857024,35.6536541287502,68.66057124711016,692.4136286132873,927.2962406251272,923.9106041394875,137.0,655.6974599148199,862.4985140331926,0.7602302488020123,1431.1537853793102,1409.3927039999999,40.74703329000023,62.313759074075556,811.2921561350805,1161.0394656325334,1155.9809670778736,116.0,820.9788793739698,989.6397147566108,0.8295734974377812,838.2572671356784,715.2142079999999,64.82482568863672,78.19892440406252,382.3533315637365,518.8879796546622,517.5871632576248,199.0,366.90920908999897,474.42276131974626,0.7733802823231609,891.9141887999999,715.2142079999999,83.89095089117694,76.92193842546415,494.0287555862144,666.659883649666,664.8459970580973,185.0,471.3997244737136,614.0195213306989,0.7677275853577087,864.3170785492224,715.2142079999999,64.82482568863672,77.20936440337164,412.34685858867766,591.7207944758492,590.1882566966262,193.0,418.40978634296437,502.52013782745,0.8326229236342235,deceptive
1783770898051196280,1783770908051196280,1221.927388235294,1030.7498879999998,64.82482568863672,69.8290714090289,723.694942433986,971.914583206637,968.3132235787916,136.0,687.24739251951,900.7298430420898,0.7629894777311114,1416.5234538305085,1409.3927039999999,47.53820550500026,64.12404334915551,820.4744557909638,1188.2983440037242,1183.2215424306385,118.0,840.2538171177781,996.6661560524959,0.8430644624733507,821.0175911287128,715.2142079999999,95.07641101000053,79.04269206441779,363.83472446844866,489.7120982361675,488.49238999543536,202.0,346.27874549188675,452.5449465725437,0.765180891123657,916.2737757348065,715.2142079999999,95.07641101000053,76.14028992162628,541.3004616246959,730.4468462523838,728.4150012977553,181.0,516.5039182813881,672.773535976412,0.7677232986457678,854.8739866391752,715.2142079999999,95.07641101000053,77.02144835649932,354.7482007569653,500.8789585724058,499.5796594744173,194.0,354.1749081602039,434.70983321689863,0.8147386626598074,deceptive
1783770899051196280,1783770909051196280,1220.9925680583938,1009.714176,158.46068501666755,70.77887665571487,753.4687408105282,1021.9312906351568,1018.192118171735,137.0,722.6145455148398,935.0638459818648,0.7727970112629664,1471.3926972631577,1577.6783999999998,57.04584660600032,62.648823953873936,839.2375510430692,1228.0058739633835,1222.5658139353195,114.0,868.3312808164212,1015.6966710290002,0.85491200826396,819.7740705882351,715.2142079999999,83.89095089117694,79.1336070364603,363.67800589055537,494.80315662736024,493.58296854739467,204.0,349.87866740371584,450.90558100888666,0.775946633042052,920.1655025698324,715.2142079999999,83.89095089117694,76.18029385289306,550.9503694553688,757.1173967580693,755.0039825189042,179.0,535.3628454019366,681.0183045172763,0.7861210805213464,857.6097969230767,715.2142079999999,83.89095089117694,77.40448127496252,398.57733114794763,576.973487024435,575.4845615655588,195.0,407.98186523982645,484.2552804335307,0.8424933743098882,deceptive
1783770900051196280,1783770910051196280,1280.4062839069766,1177.9998719999999,89.1341353218755,66.20595194150198,733.9897124979196,992.6965967813253,988.8113269237142,129.0,701.942495244883,911.6579198308162,0.769962592301231,1478.510043428571,1598.714112,158.46068501666755,63.667742277436574,864.2738725183312,1282.6596433675047,1276.9264279700592,112.0,906.9773317794812,1040.4973393789876,0.8716767428937429,833.0560573134325,715.2142079999999,83.89095089117694,78.42659872442718,378.29252390253026,517.4378636389092,516.1428193959828,201.0,365.8838222217528,468.2680659614675,0.7813554859234418,931.91729698324,715.2142079999999,41.94547544558847,75.42323223477302,553.9103434488413,767.4863737763247,765.3380243055378,179.0,542.6948193655124,682.9161761710903,0.7946726674542142,864.3170785492226,715.2142079999999,41.94547544558847,76.79406929413105,395.62003016623123,579.0629570562178,577.5650247423295,193.0,409.45934366838617,478.7503937113646,0.8552668552273744,truth
1783770901051196280,1783770911051196280,1323.0621419520003,1177.9998719999999,41.94547544558847,65.01051735311705,784.2037130355411,1091.9662433794897,1087.5555636063832,125.0,772.136735520437,965.325519142315,0.7998718776299161,1507.3043816727272,1598.714112,43.21655045909115,61.21799065432091,867.4436754303237,1308.8588025226572,1302.8438305584054,110.0,925.5029348794751,1037.6122680716899,0.891954503004711,822.0589630099009,715.2142079999999,83.89095089117694,79.03849048697597,366.772370143254,483.4186040243339,482.2147524694905,202.0,341.8285730573409,458.93415249008365,0.7448314125297679,927.6866509944133,715.2142079999999,83.89095089117694,75.13660413728353,530.2993772897221,739.2301615197279,737.1508992316615,179.0,522.7146600682264,652.5485048504926,0.8010357179317837,847.9010067692305,715.2142079999999,44.56706766093775,77.2568798809481,356.3404808080749,518.8461277152861,517.5202993126057,195.0,366.87961529986035,432.0379039665076,0.8491838607945417,truth
1783770902051196280,1783770912051196280,1367.6661277377045,1283.1784319999997,22.637240716666792,64.35199674115194,803.9689713628327,1131.7306119690847,1127.0727082562926,122.0,800.2543901997411,986.168681976589,0.8114782032986306,1480.690736707964,1514.5712639999997,118.84551376250066,60.13577300558373,813.4838894248403,1204.8459978672831,1199.6812434250753,113.0,851.9547753774285,980.1013248962217,0.8692517331997668,804.0091846153845,715.2142079999999,83.89095089117694,79.19168818368566,253.07904618445903,356.9154242709768,356.0524980288923,208.0,252.3773168120814,310.2432146149828,0.8134821485952112,910.3980275409835,715.2142079999999,83.89095089117694,75.17911224017382,486.65432750633147,666.0660498547754,664.2346831965044,183.0,470.97982057044874,602.2905223137697,0.7819811255889011,847.4386834285712,715.2142079999999,83.89095089117694,76.54848587763558,302.18221245247366,427.3414242772008,426.24426861765977,196.0,302.17601898832623,370.09864336353246,0.8164742681629107,truth
1783770903051196280,1783770913051196280,1353.0712815483869,1241.107008,59.42275688125033,65.36358784244702,814.0007966958185,1156.5533537859073,1151.842373365951,124.0,817.8067192660593,995.384688954224,0.8215986526026108,1432.6045241379309,1451.4641279999996,79.23034250833378,61.07542850176669,767.1768181263249,1144.563432173414,1139.5877135262979,116.0,809.32856438797,921.7451806078066,0.8780393772759321,810.9981781747571,715.2142079999999,83.89095089117694,78.6781567562191,255.71181913035048,357.71603259742596,356.84272392705805,206.0,252.94343238878798,314.30380031363836,0.804773700274639,914.0132444835164,715.2142079999999,83.89095089117694,74.99277330026115,485.788193929728,651.2392645513476,649.4379357420191,182.0,460.4957001391979,604.9398265940746,0.7612256292198112,853.4488868571428,715.2142079999999,64.82482568863672,76.07666824714765,300.8576377010068,415.04573278371544,413.9828998636055,196.0,293.481652153905,371.43626135659895,0.7901265511396763,truth
1783770904051196280,1783770914051196280,1327.5871573333332,1199.035584,83.89095089117694,65.62479177280919,771.449155469272,1089.2300296616118,1084.8685896277752,126.0,770.20194024575,945.3370216855717,0.8147379427417862,1432.6045241379306,1451.4641279999996,59.42275688125033,61.406146086719545,775.8548451489523,1160.3008191316153,1155.2617586272333,116.0,820.4565774242709,931.3039158957914,0.8809761920039818,809.4131524682925,715.2142079999999,83.89095089117694,78.56133364048873,244.20491072969864,332.13816702099996,331.3231028058455,205.0,234.8571501914192,302.80874549950295,0.7755956645307812,924.1531901123592,715.2142079999999,89.1341353218755,74.26169210782575,481.45466589694075,646.6012370461664,644.77213649458,178.0,457.21611943895454,599.2277536049723,0.7630089172077369,850.9215192615383,715.2142079999999,83.89095089117694,75.98610126231739,280.50624117883376,382.89391252609227,381.9057975561714,195.0,270.7468820222486,347.4414563896649,0.7792590004532985,truth
1783770905051196280,1783770915051196280,1343.9295682559996,1220.071296,27.96365029705898,64.24948468524336,786.2188013433113,1125.3440141426718,1120.8877357926174,125.0,795.7383835679733,958.9995931332509,0.8297588333360296,1456.4029473391302,1514.5712639999997,89.1341353218755,60.052481397551524,768.874901706757,1153.9053943337315,1148.8333174319275,115.0,815.9343291811186,921.6630697717195,0.8852848247279907,824.8486084729062,715.2142079999999,83.89095089117694,77.67683076604136,263.2103245724843,344.3308346750451,343.47772576050545,203.0,243.47866817034836,330.0279063899018,0.7377517581276828,937.6936027118641,715.2142079999999,26.41011416944459,74.38391185964397,530.2568625534589,724.734349577953,722.7326419113169,177.0,512.4645731453925,656.5323382785732,0.7805625759259228,881.2856185263157,715.2142079999999,83.89095089117694,75.01663634856965,377.4596245895411,508.92456655290874,507.5766148822578,190.0,359.86401212198615,469.2552426774666,0.7668833065533412,truth
1783770906051196280,1783770916051196280,1340.4708183414632,1262.1427199999998,158.46068501666755,63.82641074594641,786.149634183443,1136.3507472864376,1131.686563900607,123.0,803.5213192126408,955.6355159991236,0.8408240440630271,1436.2313710344824,1451.4641279999996,54.85177558269261,59.89179851626887,743.5621856403025,1113.3223452445106,1108.477281438472,116.0,787.2377799689041,892.1310367447053,0.882423934987683,823.8123665024631,715.2142079999999,64.82482568863672,77.73633639112002,260.5492127942223,331.53407511961365,330.7147890482355,203.0,234.42999271148904,329.0791300493294,0.7123818294899091,934.2676558659216,715.2142079999999,36.56785038846174,73.96296673464165,479.3080332324358,649.3854054493369,647.5815377336302,179.0,459.1848237968017,595.0185125184271,0.7717151889162125,880.1784757894736,715.2142079999999,36.56785038846174,75.13564308419133,378.3807470878933,508.77860405668747,507.45667166676344,190.0,359.76080105110924,470.7760216356784,0.7641867565836201,truth
1783770907051196280,1783770917051196280,1339.2175687679999,1262.1427199999998,17.8268270643751,64.3638548203217,792.1231820365354,1111.5717524393078,1107.3001720599589,125.0,785.9999239252488,972.635764731137,0.8081133271328148,1416.5234538305083,1388.3569919999998,44.56706766093775,61.62741810951858,780.4066708498725,1160.7359632245639,1155.785101687397,118.0,820.7642707631882,938.7449865289553,0.8743208033504336,839.3143380904522,715.2142079999999,83.89095089117694,76.98804349492717,288.72914280132204,370.86260030512824,369.9251372105754,199.0,262.23945956423233,363.7915182206728,0.7208509446478083,930.7711669213481,715.2142079999999,83.89095089117694,74.32784257148975,527.5163984549712,741.8871750774342,739.798255377061,178.0,524.5934523725851,647.2618914641229,0.8104809804049199,888.4231557446807,715.2142079999999,83.89095089117694,74.84922841478233,395.83149658922724,520.5774114328398,519.1838223595132,188.0,368.1038177567003,495.5955377730976,0.7427504682764763,truth
1783770908051196280,1783770918051196280,1383.4892239338842,1346.2855679999998,178.268270643751,60.93738440431129,772.3514079039832,1111.7882003083362,1107.1994026477173,121.0,786.1529756812121,940.2314310829637,0.8361270956191251,1476.5952883539821,1514.5712639999997,36.56785038846174,58.797296261427334,794.4381611033233,1186.0380226460247,1180.8004102705606,113.0,838.6555285580881,954.2496716498972,0.878863837708273,841.2159980606059,715.2142079999999,83.89095089117694,76.91592213568228,291.2480199487407,389.6911344165025,388.7008122706488,198.0,275.5532437141873,362.8856888710534,0.7593389658639901,903.9670832432429,715.2142079999999,83.89095089117694,75.33121624173077,498.3772825853392,700.2632586433109,698.3578142874322,185.0,495.1608988024744,611.6924666389614,0.8094932107358005,880.1784757894736,715.2142079999999,83.89095089117694,75.17322339386676,383.127811619264,501.366996132382,500.0389188532394,190.0,354.5200028283369,480.34531731831265,0.7380523761688,truth
1783770909051196280,1783770919051196280,1344.9284252903226,1304.2141439999998,36.56785038846174,62.20202805760786,737.8228248726392,1069.523146997953,1065.170133888394,124.0,756.2670698782293,895.9883377114801,0.8440590552884598,1445.7936317217386,1472.4998399999997,27.425887791346305,59.020455850547265,773.5405700524058,1153.9361152984948,1148.9008899001465,115.0,815.9560521836274,929.4287963509935,0.8779113100294843,856.39202771134,715.2142079999999,83.89095089117694,75.99565391574457,302.6619305356345,398.0258700324695,396.99343561159685,194.0,281.4467917876346,378.9489940444999,0.7427036255823505,916.5560228571428,715.2142079999999,47.53820550500026,74.27062443919478,496.4644988905624,700.2706562701197,698.3411095463857,182.0,495.1661297145556,608.5714824973878,0.8136531926907715,899.2766879999998,715.2142079999999,49.17745397068992,73.8002658455428,388.62827922465135,512.6909640657713,511.2915581012035,184.0,362.5272573439754,486.1593079100252,0.7456964238789588,truth
1783770910051196280,1783770920051196280,1303.5516018897638,1262.1427199999998,43.21655045909115,64.69195958688086,727.4826238839463,999.9399658679147,995.9936536730166,127.0,707.0643306446474,899.1618053894198,0.7863593920544962,1427.1642537931034,1472.4998399999997,40.74703329000023,60.65886853259026,784.6390626804067,1188.4760727462594,1183.305646721103,116.0,840.3794903168366,937.1222297520113,0.8967661460119503,845.2725695025377,715.2142079999999,79.23034250833378,76.60742622017581,290.5228662923754,372.1134420908991,371.16351781648854,197.0,263.1239382731424,366.31948928672995,0.7182908525710106,900.101060497297,715.2142079999999,79.23034250833378,75.14328159490513,486.0846248442137,685.0140291641045,683.1503863339282,185.0,484.3780652298577,596.0247226264778,0.8126811637869126,904.9929140869563,715.2142079999999,79.23034250833378,73.62096759835569,396.6935629872201,522.2691153959785,520.8406524962882,184.0,369.3000331007959,496.5282555976716,0.7437643858883096,truth
1783770911051196280,1783770921051196280,1297.9691669999997,1199.035584,41.94547544558847,63.84724212536144,704.1299196963705,977.5596730454424,973.7090420341287,128.0,691.2390738249366,867.578330199675,0.7967454346927343,1426.1133981538462,1472.4998399999997,21.608275229545576,60.29573183947722,787.847424380739,1154.1903826901678,1149.2561624998334,117.0,816.1358463805141,953.0835578967404,0.856310907494363,836.777367798995,715.2142079999999,83.89095089117694,76.99573767470558,280.2141723363464,375.6576799695475,374.71513824281544,199.0,265.6300929112729,348.94167367378395,0.7612449671448623,900.101060497297,715.2142079999999,83.89095089117694,75.12409935812745,485.8668866172316,687.2651766006845,685.3996785977603,185.0,485.9698668477141,595.02093011948,0.8167273489860795,904.9929140869563,715.2142079999999,83.89095089117694,73.52002459658473,392.7977049489337,526.5658708074448,525.1312846386561,184.0,372.3382979893437,489.14432425563166,0.7612033494530666,truth
1783770912051196280,1783770922051196280,1292.473281488372,1220.071296,101.86758322500057,64.209446775755,698.4675418798549,950.5766723397077,946.8918557522238,129.0,672.1592110491501,865.9184786227083,0.7762384423511286,1392.9919793898305,1430.4284159999997,101.86758322500057,62.832182999879755,796.062600131202,1155.4469910626035,1150.5309542462958,118.0,817.0244026819591,966.2643993061081,0.8455495237832203,837.8162870303029,715.2142079999999,83.89095089117694,77.1596677844341,294.41667377830976,405.20985852599364,404.1800986439337,198.0,286.52663876737165,363.7493618354586,0.7877034816544406,894.9323561739128,715.2142079999999,79.23034250833378,75.40955663143326,480.55843950278586,684.4878664095078,682.652322074068,184.0,484.0060119780746,587.1472709118602,0.824334942792796,891.8689507096773,715.2142079999999,83.89095089117694,74.316757808889,385.5616872607913,525.6422892954562,524.2323370943329,186.0,371.6852272392381,477.7454084476736,0.7779985336686872,truth
1783770913051196280,1783770923051196280,1311.226048,1220.071296,49.17745397068992,62.77687212373675,718.2616062185003,1010.4857561119738,1006.4483591653753,126.0,714.5213304391925,881.208887897111,0.810842174032429,1424.5750004869565,1430.4284159999997,34.78405280853678,61.74757517603056,848.3910391931208,1215.7285814870042,1210.3867191328957,115.0,859.6499240517629,1034.4253065375315,0.8310410801232392,861.7012387150256,715.2142079999999,83.89095089117694,76.14625822157967,337.9406736898636,466.3760897429747,465.16003474727484,193.0,329.7776956405233,417.17038916602286,0.7905107941620478,894.1308552258063,715.2142079999999,83.89095089117694,75.3420549298777,473.6981563072632,682.1498489693776,680.3037405660078,186.0,482.35278399162604,576.5828496110205,0.8365715080097079,898.9639949837837,715.2142079999999,83.89095089117694,74.24781521984836,400.09956688551046,547.016879302385,545.5284431562945,185.0,386.7993447782196,495.3306575243613,0.7808911863267742,truth
1783770914051196280,1783770924051196280,1305.8970009599998,1262.1427199999998,46.004715004838964,63.085303690703306,696.8649640637451,961.7122045054059,957.8274442040912,125.0,680.0332213556363,860.243549935405,0.7905124326787448,1405.1142541016948,1388.3569919999998,21.608275229545576,61.9023843970197,842.3833520156244,1188.562483232613,1183.5091843822288,118.0,840.4405917577028,1032.4966001731627,0.8139887255965301,877.5213332210525,715.2142079999999,83.89095089117694,75.8729390607107,398.5512042933631,562.5759576104641,561.0858641799659,190.0,397.80127455887487,488.4293171657978,0.8144500352009805,926.2725184,715.2142079999999,83.89095089117694,74.89842197491387,555.4495320088292,795.4287254871904,793.2038849608817,180.0,562.4530457425651,677.4006575765268,0.8303107466042341,920.6078453932583,715.2142079999999,83.89095089117694,74.28532452362101,507.98219699008035,734.9549049768189,732.8856878990752,178.0,519.6915971754232,617.2942141559132,0.841886389435949,truth
1783770915051196280,1783770925051196280,1312.1646493228343,1262.1427199999998,29.711378440625165,61.512950913777345,673.4501583384142,918.9913536104344,915.3921069474833,127.0,649.8250179897426,834.2265606712517,0.7789550808198527,1416.8799913220334,1388.3569919999998,44.56706766093775,58.76735519773716,807.6484987067737,1150.38800748109,1145.4640351969,118.0,813.4471610855594,986.7847044758714,0.8243410719642438,873.3141908210524,715.2142079999999,83.89095089117694,76.0800936882857,385.1154056270848,560.180888611982,558.7023288389,190.0,396.1077050286385,467.09430986804006,0.8480251132593413,896.9172770594593,715.2142079999999,83.89095089117694,75.49390174168708,495.49264952723235,731.0330540519868,729.0481832716321,185.0,516.9184297916719,597.8491448031766,0.864630206942675,916.7386533480661,715.2142079999999,41.94547544558847,74.07172519554695,468.6976311639713,694.0577625218726,692.128559879926,181.0,490.77295041437856,564.7352428246525,0.8690319165484792,deceptive
1783770916051196280,1783770926051196280,1322.434052031496,1220.071296,54.85177558269261,60.109711436962726,668.9264131058815,933.9097451888744,930.196431582795,127.0,660.3739138392538,822.726102212464,0.8026655676334872,1407.8017677983191,1388.3569919999998,89.1341353218755,62.51163657318003,837.5652614255607,1188.9457938930614,1183.8997996331657,119.0,840.711633325007,1024.5160365215056,0.8205939227456491,899.1070451612901,715.2142079999999,83.89095089117694,75.0425651953451,433.89559421480743,629.1706694462754,627.4679452358583,186.0,444.8908468891411,526.8461260512154,0.844441716262886,918.8676395604393,715.2142079999999,83.89095089117694,74.76976795824451,523.4430384114493,757.8372580354404,755.7409211390901,182.0,535.8718641926794,635.9291639059741,0.8426596775358949,918.8676395604393,715.2142079999999,83.89095089117694,73.96252052919552,471.8816130013462,693.866746689206,691.9473719649401,182.0,490.637881823786,570.071704119086,0.8606599455448388,deceptive
1783770917051196280,1783770927051196280,1292.1471464186045,1262.1427199999998,41.94547544558847,61.925696721405544,637.4852000912699,881.9051470487327,878.45351174408,129.0,623.6011098414783,786.3431748117682,0.7930393876576262,1390.109968,1346.2855679999998,36.56785038846174,61.83291372907687,805.2320866655895,1115.7837237039407,1111.0856661061177,120.0,788.9782373686336,992.7507729893646,0.7947394843046734,885.9485053968253,715.2142079999999,79.23034250833378,75.57150122974919,413.58630356012475,598.3504227016042,596.7573210168391,189.0,423.09764141814145,502.5947213195322,0.8418266716119184,900.2379974193547,715.2142079999999,83.89095089117694,74.86871663798225,418.44032160789106,588.9496134044233,587.3733105909835,186.0,416.45026541546326,513.2925030743443,0.8113312836660415,905.1041487567564,715.2142079999999,79.23034250833378,74.44404221041387,415.44768508026993,604.6464971673422,603.0015876779,185.0,427.54963836772026,503.7799236203504,0.8486833601767794,deceptive
1783770918051196280,1783770928051196280,1242.9908031044774,1114.8927359999998,57.04584660600032,64.338398976001,628.5804482714124,877.0402087951496,873.7377602840041,134.0,620.1610790123159,773.25731676934,0.8020112652840345,1356.546890926829,1346.2855679999998,89.1341353218755,63.54704223212399,793.1866283837792,1101.6781855935374,1097.1876919445067,123.0,779.0041157184821,977.1726299587435,0.7972021440585906,879.938301968254,715.2142079999999,52.82022833888918,76.088152153347,415.7691485205794,600.9867136006416,599.386255294673,189.0,424.96178059003114,505.4025249659229,0.8408382617769559,889.3494068021389,715.2142079999999,52.82022833888918,75.56532886270745,416.74150462195,586.4522286933292,584.8736632993266,187.0,414.684347751017,511.23909202474954,0.8111358349156558,889.3494068021389,715.2142079999999,52.82022833888918,75.06865890044365,396.1857071598155,569.0139414288134,567.4823176683437,187.0,402.3536165739989,482.68210318009295,0.8335788999077043,deceptive
1783770919051196280,1783770929051196280,1269.4733469090907,1177.9998719999999,30.34353542872357,64.19692534098589,651.9852536887307,913.0308009540541,909.6168930949049,132.0,645.6102707867966,801.1012615034485,0.8059034504266817,1349.0219207804876,1346.2855679999998,158.46068501666755,63.47159445136629,779.7644491308506,1040.787303358961,1036.8021434365035,123.0,735.9477599779818,972.24258266565,0.756958986470428,875.5702115183245,715.2142079999999,83.89095089117694,76.34293426604984,413.0180085836972,596.8968351170209,595.3241464167609,191.0,422.0697997800341,502.09191676993464,0.8406225746379268,884.8355047619045,715.2142079999999,83.89095089117694,76.2896158173337,437.0447087663666,617.4477931437833,615.8036178698704,189.0,436.6015215606378,535.4490737752978,0.8153931773236355,880.1784757894736,715.2142079999999,83.89095089117694,75.74543920321153,393.9264569830132,561.4367988801922,559.9497234523882,190.0,396.9957676958518,481.19984126989294,0.8250122582089273,deceptive
1783770920051196280,1783770930051196280,1272.098553160305,1135.928448,142.6146165150008,63.190002626678265,639.3841215689462,933.4250595551409,929.8348470348466,131.0,660.0311893408971,774.4698343884069,0.852236149213118,1321.5769539047617,1304.2141439999998,30.34353542872357,63.398954779813025,741.7423732268545,996.9183664814097,992.9355203941841,126.0,704.9277372284206,922.9853406871758,0.7637474899694418,891.1492538181816,715.2142079999999,83.89095089117694,75.79520433056565,451.6487079488371,649.8123978636099,648.0632361501614,187.0,459.4867530284494,549.9173325868119,0.8355560477918074,900.5558867027025,715.2142079999999,83.89095089117694,76.0544100003022,469.6216133302422,669.0913990257192,667.2795530528675,185.0,473.1190654846801,573.7317268124978,0.8246346565374812,868.7418652146595,715.2142079999999,83.89095089117694,76.694666504537,395.5314185932337,553.4646764428242,552.0063133746357,191.0,391.35862585993937,486.1166723856133,0.8050713914816999,deceptive
1783770921051196280,1783770931051196280,1275.4113998769228,1177.9998719999999,30.34353542872357,64.0719996738852,642.4174572404369,936.5838670674348,932.9466914300825,130.0,662.2648035533031,778.5261997658072,0.8506647608680641,1305.8704992755906,1304.2141439999998,32.41241284431836,63.804765612030074,715.3988422632608,960.4028426654764,956.5899558204161,127.0,679.1073627195952,890.5041279933777,0.7626100108596526,867.9422419999997,715.2142079999999,49.17745397068992,76.94970967781977,431.2944899104008,617.8331355627341,616.2193178100728,192.0,436.8739997981568,525.9281587862791,0.8306723884234706,874.1999050105262,715.2142079999999,89.1341353218755,77.28907481134603,447.3061504587075,637.0701026806494,635.382496795127,190.0,450.47658969669726,546.5354568040325,0.8242403746884835,856.1751647010307,715.2142079999999,89.1341353218755,77.48970251526048,388.95562154499004,531.992837630968,530.6128279455136,194.0,376.1757430315314,481.47570680174164,0.7812974522231299,deceptive
1783770922051196280,1783770932051196280,1262.4590464962403,1093.857024,54.85177558269261,65.12510570136274,656.002287082694,931.7684432658008,928.2331828919575,133.0,658.8597847288806,802.265475605773,0.8212490812114159,1343.1819383606555,1367.3212799999997,34.78405280853678,61.37554862605977,652.13046900742,854.6696576281436,851.134117580213,122.0,604.3427105832452,817.2718282787698,0.7394635293572178,866.4969450777198,715.2142079999999,28.52292330300016,77.09621533898458,431.4936449728901,608.8562177740259,607.3170109261287,193.0,430.5263603556071,528.8639312937289,0.8140588436470524,860.4713350736839,715.2142079999999,83.89095089117694,78.02411588551887,432.687520755402,618.5341036855502,616.895760516067,190.0,437.3696591111957,528.0065074214436,0.8283414180766838,880.1784757894735,715.2142079999999,21.285763658955343,76.91547918127722,454.2977481335482,617.816109442461,616.288220718774,190.0,436.8619605130544,563.3371119026075,0.7754894028508125,deceptive
1783770923051196280,1783770933051196280,1244.0675896888886,1093.857024,34.78405280853678,66.38079772132494,649.179417343131,913.0794779877762,909.7085622944214,135.0,645.6446906474295,796.5169794319056,0.8105849684559371,1332.486140928,1346.2855679999998,64.82482568863672,61.534770559503855,650.8203695340329,845.4430929487795,842.0304967150125,125.0,597.8185441314106,817.5822900155865,0.7312029032820827,853.9420317538459,715.2142079999999,83.89095089117694,77.6133408480232,389.25002943966035,550.9381401178501,549.516404693935,195.0,389.5720948916361,476.60042202921306,0.8173977128114196,875.5702115183245,715.2142079999999,83.89095089117694,77.49841405037778,484.5113046430402,685.8842732253078,684.0769692325723,191.0,484.9934207068219,593.2057818239381,0.8175804005409486,889.5420765957447,715.2142079999999,83.89095089117694,76.32819960175367,472.7225612040618,653.0293837146982,651.2810141251505,188.0,461.7615055387351,583.3707189634703,0.7915404228021424,deceptive
1783770924051196280,1783770934051196280,1214.278853565217,1093.857024,35.6536541287502,67.6991812388756,639.9088056453033,906.2533357789038,902.9398363721167,138.0,640.8178792021921,783.3535484902073,0.8180442667774587,1326.7644272639996,1346.2855679999998,52.82022833888918,62.88705676994389,669.646355616109,890.0597684818697,886.4677081506156,125.0,629.3672979548586,835.9431112895019,0.7528829288203771,858.688551384615,715.2142079999999,83.89095089117694,77.28330265202858,371.3090452723129,516.8313226588677,515.4977446461226,195.0,365.45493298169794,457.1237908726086,0.7994660095990126,876.6715576963351,715.2142079999999,83.89095089117694,77.14571646247248,458.68077957759584,641.7327328559749,640.041887783876,191.0,453.773567111835,563.7560554026206,0.804911207184748,895.423890481283,715.2142079999999,83.89095089117694,75.8903708465323,458.9240955825391,626.9720272822927,625.2845108067265,187.0,443.3361721055863,568.2861693406641,0.7801283860558369,deceptive
1783770925051196280,1783770935051196280,1190.1944876521736,1051.7856,83.89095089117694,69.2263337295875,641.6228772612628,896.4756494020473,893.2004348483213,138.0,633.9040108608016,788.9503696414226,0.8034776777516569,1335.851854848,1346.2855679999998,28.52292330300016,61.77553836593232,659.1861174564917,869.7831162427913,866.3860239456402,125.0,615.0295396568448,824.5738339102643,0.7458756443195316,857.6097969230767,715.2142079999999,83.89095089117694,76.73789309867209,343.4429475482876,452.09979876682496,450.93313981065035,195.0,319.6828334810955,429.89249752706866,0.7436343628233854,889.5420765957447,715.2142079999999,83.89095089117694,76.9778757051722,499.9504313140112,695.1955712947887,693.3343043998395,188.0,491.57750271340103,615.6920065707852,0.798414625278857,899.1070451612901,715.2142079999999,83.89095089117694,75.70913530339483,464.66733330689175,620.0998736202504,618.421698896174,186.0,438.47682564980016,579.3966672057352,0.7567817532752626,deceptive
1783770926051196280,1783770936051196280,1200.0949364028775,1093.857024,30.34353542872357,69.68238058473462,689.5081547195092,974.3857985000644,970.8583781234069,139.0,688.9948056112644,844.6810461764567,0.8156863572706841,1380.7076421818178,1346.2855679999998,30.34353542872357,58.81904482910663,682.3919262902373,925.8829677921378,922.0987019376792,121.0,654.6981251109464,846.760098623162,0.773180179575644,862.5731853264247,715.2142079999999,83.89095089117694,76.63776517581952,353.8005283489432,475.62345932976064,474.383290200688,193.0,336.3165733834779,440.2217724667654,0.7639707856768219,899.8736473945945,715.2142079999999,83.89095089117694,76.83919314349357,532.8523582531079,730.4152594887356,728.4277671747985,185.0,516.4815830666167,659.1560198983983,0.7835498235246744,914.7067294945053,715.2142079999999,83.89095089117694,75.2375171085793,491.2589717055534,655.2810517257309,653.4684172502078,182.0,463.35367525831714,612.6356505907082,0.7563282920469088,deceptive
1783770927051196280,1783770937051196280,1203.6758145882352,1051.7856,57.04584660600032,69.45191433169737,711.8271429839563,966.6685123990025,963.0929485991828,136.0,683.5378602768468,883.0536562188497,0.7740615255517879,1441.4035700869565,1514.5712639999997,21.940710233077045,57.48859129704114,746.549942879107,1026.2775223030924,1021.7669903028558,115.0,725.6877953998448,922.6929317110066,0.7864889503967014,854.589284430769,715.2142079999999,83.89095089117694,76.77234853285555,334.74911907370335,449.1590517251244,447.9999296592838,195.0,317.6034113061547,416.7469040132003,0.7621014295431808,900.7832998054051,715.2142079999999,83.89095089117694,76.8141293337378,534.3018490567309,732.4055045496843,730.4125607071173,185.0,517.8888988454366,660.9481644102009,0.7835544854074545,915.6313761758241,715.2142079999999,83.89095089117694,74.94930693098766,484.9276383069447,651.2243317675646,649.4228778828781,182.0,460.48514106652294,603.5613856240094,0.7629466563544933,deceptive
1783770928051196280,1783770938051196280,1275.6312681526715,1093.857024,57.04584660600032,64.85268394336654,735.8247774054414,997.6353498320957,993.7984712508733,131.0,705.4347210176885,913.267284686626,0.7724296411863126,1480.7638697142854,1556.642688,129.64965137727344,56.098446230466,769.8748372313157,1028.1495348399596,1023.5095069856455,112.0,727.0115081591299,959.761253388562,0.7574920383504973,847.8352958375633,715.2142079999999,83.89095089117694,77.08128557474613,321.5238565716062,439.6103251585246,438.4874886976865,197.0,310.8514419992158,398.0463178988868,0.7809428903652852,902.8300177297295,715.2142079999999,83.89095089117694,76.82300668303846,536.7552758384381,737.4919306894883,735.485181747347,185.0,521.4855452608964,663.5049851529138,0.7859557304467168,912.697012459016,715.2142079999999,83.89095089117694,75.0113450489161,478.84453083844716,642.3294076943613,640.5623775345218,183.0,454.1954799362214,596.1857113605944,0.7618355678127076,deceptive
1783770929051196280,1783770939051196280,1277.7972033488372,1093.857024,83.89095089117694,65.10652193596357,764.7188335209563,1056.3335909606478,1052.1996590781616,129.0,746.9406453634109,943.7317547032894,0.7914755878891138,1484.1446091428568,1430.4284159999997,34.78405280853678,57.30787483850827,811.8805761809928,1098.2130652847043,1093.3102212184638,112.0,776.553905650479,1008.3561651368306,0.770118666894949,857.6932057731957,715.2142079999999,79.23034250833378,76.55286130520562,327.40005998401034,430.4749023462,429.39857231012695,194.0,304.39172257961485,409.9444330242509,0.7425194686363946,899.4188211891889,715.2142079999999,79.23034250833378,76.40477549280237,514.0855564586826,698.2714731472073,696.3714487326241,185.0,493.7524937715105,637.708519753401,0.7742604630128548,914.2444061538461,715.2142079999999,79.23034250833378,75.01406589127747,484.5339098312635,646.6355099569937,644.8896458813809,182.0,457.24035404661157,604.1621047934127,0.7568173349815782,deceptive
1783770930051196280,1783770940051196280,1280.9130476307691,1093.857024,95.07641101000053,64.45427960276515,758.0292451124391,1035.6487839272534,1031.6796192241638,130.0,732.3142780425624,938.6557260140529,0.780173452041136,1518.4310276697247,1388.3569919999998,52.82022833888918,55.504809957795835,838.6100635321859,1211.9011735065067,1206.278478220695,109.0,856.9435379143856,1019.488873763859,0.8405619325207827,841.2159980606059,715.2142079999999,83.89095089117694,77.60547409339613,317.4341449435958,430.34903219499154,429.2553861266314,198.0,304.3027189421464,393.99086331329073,0.7723598369340184,895.4879979354837,715.2142079999999,83.89095089117694,76.50379388266526,508.5005338177247,687.9423165516218,686.0804936072332,186.0,486.44867709883425,631.5294356245155,0.7702707897024439,895.4879979354837,715.2142079999999,83.89095089117694,76.00124357835153,468.09832202728956,634.8555880341788,633.1374371489416,186.0,448.91069137314105,580.9231220694976,0.7727540432095875,deceptive
1783770931051196280,1783770941051196280,1281.8636999999999,1093.857024,47.53820550500026,64.86293910553418,781.4676554427647,1081.2192806925248,1076.9655628243968,128.0,764.5374853273254,963.9111005539402,0.7931618225871258,1454.785556210526,1346.2855679999998,89.1341353218755,57.81835290631476,819.2037439807767,1185.2237076997894,1180.145369201271,114.0,838.0797209375835,995.4902003439487,0.841876414903955,851.0877355102039,715.2142079999999,83.89095089117694,77.0151222694982,324.94479125562583,447.5720501518658,446.42295441721507,196.0,316.4812317319499,401.3702152739269,0.7885020354984686,907.6392456393442,715.2142079999999,16.02411421516863,76.3439038868734,548.4268242711742,716.2288116996415,714.4523284676372,183.0,506.45024963399936,687.9665947436405,0.7361552922823524,927.9216868826812,715.2142079999999,28.52292330300016,75.00028810779582,526.8840078232519,691.5562846573596,689.6550824827146,179.0,489.00413845339335,660.0386289358466,0.7408719990249583,deceptive
1783770932051196280,1783770942051196280,1324.0718561279998,1093.857024,29.711378440625165,63.18709988825626,811.5247332249221,1135.056810389223,1130.5562875982123,125.0,802.606367658193,997.5250846814945,0.8045976787786362,1379.5921119999998,1304.2141439999998,44.56706766093775,61.582765835301544,813.6207135731449,1120.9552818332813,1116.2676977600624,120.0,792.6350811911907,1004.8990721177248,0.7887708359813599,849.7998347755099,715.2142079999999,41.94547544558847,76.93299058793352,315.2261384544045,440.3707054801586,439.25922652780423,196.0,311.3891120809241,387.6253954122171,0.8033248485945559,893.0512543135134,715.2142079999999,83.89095089117694,76.34267714157448,482.1130843041008,644.4577022958046,642.7089939625648,185.0,455.70041148126467,600.8615644242267,0.7584116516388227,900.3284735999998,715.2142079999999,41.94547544558847,75.38313868733538,444.44631448632333,600.5059488633253,598.8876731428097,185.0,424.6218285841195,552.1894641025768,0.7689785050032032,deceptive
1783770933051196280,1783770943051196280,1319.5735527619047,1156.96416,46.004715004838964,62.71185195887942,779.3935981789269,1097.2802276434045,1092.9051484033225,126.0,775.8942898285699,955.9826291676533,0.8116196530726911,1405.4707915932202,1346.2855679999998,43.21655045909115,59.42479213050029,796.6791004046645,1152.116800559648,1147.1862656044268,118.0,814.6696023946762,968.2726359400132,0.8413638598841359,851.4041784742266,715.2142079999999,37.53016224078968,76.62065934623226,308.52350360168805,428.9546122563307,427.8687644938651,194.0,303.31671514769755,379.9644584764829,0.7982765450323578,884.6248083850264,715.2142079999999,83.89095089117694,76.67980073337358,473.8685714786635,633.620655061943,631.9152401267436,187.0,448.0374618941622,590.5370965825746,0.7586948635182198,889.3808557419353,715.2142079999999,83.89095089117694,75.66855617090606,422.7148754755221,555.5144162387354,554.0111782158436,186.0,392.8080107692961,529.3643973996614,0.7420370782373046,deceptive
1783770934051196280,1783770944051196280,1374.6837792,1262.1427199999998,24.58872698534496,59.62942720013919,786.973949544429,1108.2016983536457,1103.5972360622459,120.0,783.6169358283116,965.2089118240875,0.8118625162167259,1380.3599444628096,1304.2141439999998,26.41011416944459,59.66315996234124,777.7964880429971,1124.7631552093424,1120.0866456322774,121.0,795.3276542773033,945.3368261074576,0.8413166950791119,875.5702115183245,715.2142079999999,21.285763658955343,75.85172386422985,373.38071824856473,499.2776563762952,498.095137992687,191.0,353.04261651860526,465.3028873545453,0.7587372142171955,885.9485053968252,715.2142079999999,40.74703329000023,76.33664004418092,452.52388810977754,600.9463749874056,599.3626934336525,189.0,424.9332568830684,565.0412393952809,0.7520393685562509,902.0204765217389,715.2142079999999,39.61517125416689,75.5518289453909,483.4973344266182,654.5861557797901,652.8130714833903,184.0,462.8623096227234,600.3487202956704,0.7709890834692955,deceptive
1783770935051196280,1783770945051196280,1373.5285392786884,1262.1427199999998,52.82022833888918,60.40266654929801,773.9260087089043,1049.467146105774,1045.473329804425,122.0,742.0853356438861,960.5090375542235,0.7725958909595302,1384.1498495999997,1304.2141439999998,18.052483103164654,63.25096674524537,896.4838452647979,1335.2570188574393,1329.7386828591339,120.0,944.1692926610291,1077.7934602879636,0.8760206175390663,880.1784757894735,715.2142079999999,64.82482568863672,76.1401268796844,413.0063982811477,590.3599310308759,588.8011523425238,190.0,417.44751057275494,504.0013472210534,0.8282666561795197,869.5499055157893,715.2142079999999,64.82482568863672,76.52898586922373,395.18794871667535,543.2685934713335,541.8536570762445,190.0,384.1489064492576,488.4279255516693,0.7865007022589244,883.4999039999997,715.2142079999999,36.56785038846174,76.24784349798317,450.44804805966714,623.4510278651798,621.7743066686743,187.0,440.84644954119176,555.548460500964,0.7935337434715595,deceptive
1783770936051196280,1783770946051196280,1322.2447542857144,1220.071296,15.671935880769317,63.48538626556491,757.1066403447154,1042.9610272019172,1038.780860387928,126.0,737.484814847763,935.1358209600382,0.7886392525212425,1361.3355082926826,1304.2141439999998,62.00635500652208,63.83747870553936,865.4345256530296,1257.3788206345032,1252.2180643885106,123.0,889.1010905910008,1050.0968820730375,0.8466848209622253,863.9980459999997,715.2142079999999,79.23034250833378,77.0566808612249,401.50600227447217,570.8069344708283,569.3107571185325,192.0,403.621454112628,490.87574865220296,0.8222476975504515,846.3654328163262,715.2142079999999,79.23034250833378,77.56474847924517,364.04142960484387,502.9649806529421,501.6737155941144,196.0,355.649948519056,449.23143478242196,0.7916853563270998,855.0908496494842,715.2142079999999,79.23034250833378,77.44061663119925,399.2916006878435,546.2960199197255,544.878950838926,194.0,386.28962022045914,494.2243715304693,0.7816077928820718,deceptive
1783770937051196280,1783770947051196280,1242.846803729323,1093.857024,142.6146165150008,66.19387317511418,695.9150304216479,1021.9755920823798,1018.105544101517,133.0,722.6458713685877,841.1224235689436,0.8591446989397199,1284.9721748837208,1093.857024,35.6536541287502,66.71888157330092,818.6887195278682,1203.0026395221123,1198.3088013131432,129.0,850.6513241914014,989.2919696884578,0.8598587174009749,880.1784757894736,715.2142079999999,83.89095089117694,76.3397063274681,417.09046115530464,589.4661799215588,587.9097765095474,190.0,416.8155331026638,510.94159280260254,0.8157792181614318,853.2342367346937,715.2142079999999,83.89095089117694,77.14807779602829,368.2713804479428,507.27635742317955,505.97954278055715,196.0,358.6985522695411,454.8794275562861,0.7885574298150828,862.0304659793812,715.2142079999999,83.89095089117694,77.45718880927862,435.01608478388675,593.7884230280631,592.2529673513053,194.0,419.8718205132097,538.8244753264879,0.7792367268743654,deceptive
1783770938051196280,1783770948051196280,1244.4284362105261,1093.857024,39.61517125416689,66.68558732221601,697.4490118927513,1017.6415494660837,1013.8160417993867,133.0,719.5812404446532,844.9684417659735,0.8516072374735527,1313.1584624881887,1135.928448,89.1341353218755,65.44400452252529,820.5276854809414,1187.5891877623583,1182.867144458138,127.0,839.7523679305875,996.9650673714234,0.8423087181426131,880.6213328842105,715.2142079999999,83.89095089117694,76.3031573054684,416.6444633677823,589.9899789576468,588.4272572685754,190.0,417.1859149530605,510.0619314283741,0.8179122754461909,849.3302195329949,715.2142079999999,83.89095089117694,77.3587312944179,364.86997538461884,501.1032667986284,499.82349181330613,197.0,354.33351802804185,451.092093563255,0.7855015042030546,853.6635369795918,715.2142079999999,83.89095089117694,77.93443868231017,429.38886423640304,582.551529335179,581.0560477311127,196.0,411.92613678349903,532.8302003244254,0.7730908205516293,deceptive
1783770939051196280,1783770949051196280,1205.7426226086957,1093.857024,38.54449095000021,68.75218054234108,657.0881065269184,949.6836851712927,946.2504064114775,138.0,671.5277737668514,798.7833148032888,0.84068828344546,1324.40842752,1135.928448,34.78405280853678,64.43165511068285,796.8817952948644,1130.244961127739,1125.6785006699492,125.0,799.20387641535,975.0270628582939,0.819673532006878,872.045903748691,715.2142079999999,83.89095089117694,76.66168825616646,406.4544102546897,573.0754561680278,571.5653732898548,191.0,405.2255411879866,498.30362793725163,0.8132100961524892,845.4861300304567,715.2142079999999,41.94547544558847,77.774478283234,366.365746583001,502.9253480085195,501.6540064028456,197.0,355.62192400742845,453.00578817633976,0.7850273292070982,858.5606578144328,715.2142079999999,83.89095089117694,77.66982359542243,434.53462714933863,587.0716362283661,585.5487500412917,194.0,415.1223350193597,539.886476833479,0.7689067106368711,deceptive
1783770940051196280,1783770950051196280,1170.9389337062935,1051.7856,101.86758322500057,69.56975645189605,631.0908352922011,919.3505605085011,916.1094160223338,143.0,650.0790156232144,765.0162883905102,0.8497583979432541,1333.9719804878043,1304.2141439999998,29.711378440625165,64.25500052282905,796.9709909390843,1114.9733122766281,1110.4757914110094,123.0,788.4051899528298,979.5581396857327,0.8048579844436496,871.0099499999997,715.2142079999999,83.89095089117694,76.75705022647543,406.9203877260733,583.046594125957,581.51833283665,192.0,412.2762004541849,496.1678860666075,0.8309207670059472,875.5702115183243,715.2142079999999,83.89095089117694,76.87046254400501,429.3196777410177,568.2423626630291,566.7450584875611,191.0,401.8080279964933,536.5686588965918,0.7488473680568254,875.5702115183244,715.2142079999999,83.89095089117694,77.1347205072578,465.0068445673069,617.9953642057279,616.3669548666046,191.0,436.9887127717204,580.5025094208848,0.7527766128137237,deceptive
1783770941051196280,1783770951051196280,1183.0723131914892,1051.7856,129.64965137727344,69.49110785563582,638.450323723247,920.6839785480265,917.401002957294,141.0,651.0218845611194,776.7386205383908,0.838147952666327,1389.7593727999997,1304.2141439999998,37.53016224078968,63.348897012468775,865.168567619388,1222.6449291326053,1217.508477116273,120.0,864.5405203730111,1059.8670412413762,0.8157065808560405,871.0099499999998,715.2142079999999,79.23034250833378,76.75905265617011,407.33010618136734,577.2625422740155,575.7528135696718,192.0,408.1862581669424,498.52544581523927,0.8187872085434574,851.7845228307691,715.2142079999999,79.23034250833378,77.49492531663205,363.6998816770572,486.8045612370847,485.5484830246372,195.0,344.2228063632846,453.1120586052673,0.7596858212576448,851.784522830769,715.2142079999999,79.23034250833378,77.57389596857548,384.43198949643875,503.21934443060104,501.92089909774523,195.0,355.82981087112694,481.94240521465736,0.7383243454425642,deceptive
1783770942051196280,1783770952051196280,1213.9739881739129,1114.8927359999998,29.711378440625165,67.06720050695561,633.0755418063839,898.0986760436224,894.8478742751319,138.0,635.0516640051057,774.5475939469866,0.8199001184278051,1384.1498496,1346.2855679999998,37.53016224078968,63.31638430336778,859.0344885164045,1223.4711768395875,1218.3328282513453,120.0,865.124765729558,1049.59995940452,0.8242423772771275,884.6188248510637,715.2142079999999,83.89095089117694,76.68206953267695,461.06306234512044,661.1683095356897,659.3981484626324,188.0,467.5165951783324,562.0252765975481,0.8318426495132692,847.8352958375634,715.2142079999999,83.89095089117694,77.9862866677107,376.0273516956754,473.6568697646771,472.4799780544956,197.0,334.9259845661966,476.1359373936274,0.7034251319057843,856.5310424615384,715.2142079999999,83.89095089117694,78.22738823984926,482.99443816143264,664.6732791206854,662.9819673220329,195.0,469.9949829397355,596.7575827716769,0.7875810823497461,deceptive
1783770943051196280,1783770953051196280,1168.879493370629,1051.7856,101.86758322500057,68.80399525244101,617.254594549266,877.957507107092,874.8656623897896,143.0,620.8097068690613,754.5224469244985,0.8227849408583372,1378.6214558677684,1304.2141439999998,79.23034250833378,61.918865263851586,844.853142326207,1182.8686813431918,1177.9372640505524,121.0,836.4144658309604,1038.1517638916225,0.8056764867359774,869.9143399999997,715.2142079999999,83.89095089117694,77.44897400776905,449.32343495941393,654.5664393187224,652.8757848750962,192.0,462.84836797940136,544.6731061259181,0.8497727586946427,852.1609861224487,715.2142079999999,83.89095089117694,77.86491055381472,379.9858196411558,481.3260451977461,480.123060094773,196.0,340.348910521029,480.47867362693245,0.7083538337963629,860.9461509278349,715.2142079999999,83.89095089117694,77.87188319249967,482.47364381315396,664.4761656726312,662.7767227465922,194.0,469.8556026839533,595.9693702380466,0.7883888437022862,deceptive
1783770944051196280,1783770954051196280,1133.3526465306122,1009.714176,142.6146165150008,70.89209458853851,610.8692431057101,870.4353323803967,867.4923426574874,147.0,615.490726110545,746.2627200798947,0.8247641340634712,1376.5352695537188,1346.2855679999998,25.02010816052645,60.78957200240864,785.8694094042535,1053.4657009149805,1049.2020462716912,121.0,744.9127408644221,978.6388309911413,0.7611722703767976,844.8804942769228,715.2142079999999,83.89095089117694,78.15604037956881,377.7826660728647,549.5965329922651,548.1782169942817,195.0,388.6234353954468,458.17616513843626,0.8481965343570974,837.4116103718591,715.2142079999999,83.89095089117694,77.88608763225817,318.0708300750099,408.07421283978226,407.08589575158663,199.0,288.55204312637255,400.8827323457692,0.7197916493881077,829.0791565373132,715.2142079999999,83.89095089117694,78.84004319235224,386.27526423242716,538.8959175225617,537.5519697081775,201.0,381.0569576339498,475.19991270521285,0.8018876844161712,deceptive
1783770945051196280,1783770955051196280,1151.3348849577462,1051.7856,46.004715004838964,68.67477515943222,604.7209815148944,860.0835960659945,857.0307723857661,142.0,608.1709431655761,739.2151127467711,0.8227252563949053,1358.599155512195,1346.2855679999998,46.004715004838964,58.88682400305893,719.2745574844281,950.139902558592,946.2429640407432,123.0,671.8503681751058,899.4555683747403,0.7469522584524072,812.696775804878,715.2142079999999,44.56706766093775,79.28795351344394,322.14011043718324,465.50992567549446,464.37654412672197,205.0,329.16522515478783,391.62945341146155,0.8405017096836016,804.8446330434782,715.2142079999999,95.07641101000053,79.75561938601712,279.6158898590757,353.4507308652415,352.592329407089,207.0,249.92740861015363,353.7488331232658,0.7065109060672576,837.2001961809043,715.2142079999999,44.56706766093775,77.935609938485,339.5593033392241,456.766929099814,455.62172833304,199.0,322.98299298823343,422.42399800274103,0.7645943282468002,deceptive
1783770946051196280,1783770956051196280,1166.2316415104892,1051.7856,22.283533830468876,67.71239149498446,600.0159156082552,831.4688197028399,828.6206927678163,143.0,587.9372407570529,739.7317746534329,0.7947978725565813,1392.2135391999996,1346.2855679999998,38.54449095000021,57.76587667080771,736.7774336167824,1024.6649503438884,1020.3527574154606,120.0,724.5475348323406,907.3022695100315,0.7985734844723981,820.4963921970442,715.2142079999999,83.89095089117694,78.96769928442497,337.5689637545143,479.9713629081423,478.78297348683884,203.0,339.39100548769676,412.68933022022543,0.8223886120501004,811.9372367058822,715.2142079999999,83.89095089117694,79.4468691684216,292.4761885310208,377.7739522181919,376.8423827529093,204.0,267.12652336912623,367.9760209193369,0.7259345940579165,832.3376697889446,715.2142079999999,83.89095089117694,78.19797283776916,334.8099360972558,450.46815807053184,449.3292225230249,199.0,318.52908928028666,416.49129193781783,0.7647917146076684,deceptive
1783770947051196280,1783770957051196280,1190.0202788571428,1051.7856,57.04584660600032,67.6413011532291,631.5108022135137,848.8679741746972,845.8133671188068,140.0,600.2403008710155,785.7910518896531,0.7638675694099224,1409.7553886896549,1367.3212799999997,19.53624883767134,57.27535610885509,770.433060983001,1095.0305582444141,1090.3477880752446,116.0,774.3035333411159,941.9985254972562,0.8219795598219025,816.9731694975367,715.2142079999999,83.89095089117694,78.80809545355649,288.3574038849371,392.87587881048273,391.9022072297491,203.0,277.8051980715166,357.36832639833125,0.77736379401981,820.4963921970442,715.2142079999999,83.89095089117694,79.17914386382367,311.62713822184946,414.79091519099944,413.7629311689445,203.0,293.30146890612986,388.8573912392982,0.7542648680827971,854.1577826461537,715.2142079999999,83.89095089117694,77.69180135617951,424.4187436156135,594.5480358888134,593.0137158189984,195.0,420.40894791812275,521.4313934926629,0.8062593721143841,deceptive
1783770948051196280,1783770958051196280,1210.2443940437952,1051.7856,101.86758322500057,67.39751755555902,675.1363448016608,914.9579890226818,911.5943177055195,137.0,646.972998538745,838.0519898700717,0.771996256030666,1379.5921119999996,1346.2855679999998,158.46068501666755,59.827023062257076,789.6481985075897,1092.9093807464465,1088.3223372264663,120.0,772.8036343482028,973.8972359451833,0.7935166112245756,817.1804178916253,715.2142079999999,79.23034250833378,78.71137926252557,286.2248027293877,390.2669487100156,389.2999657416252,203.0,275.96040590583453,354.6437685637481,0.7781340893805384,820.7036405911329,715.2142079999999,79.23034250833378,79.23362827471533,313.4773096944903,418.5422170649562,417.50498807119874,203.0,295.95403989948244,390.8217631097053,0.7572608995584694,858.9943838350512,715.2142079999999,75.06032448157936,77.43777252990202,428.07427318403165,603.0211564590827,601.4569361115458,194.0,426.40034893117144,524.9633681884494,0.8122478153144275,deceptive
1783770949051196280,1783770959051196280,1203.9134302608693,1051.7856,89.1341353218755,67.52848018124511,675.3525603085867,910.4506667636374,907.136790498414,138.0,643.7858404043817,839.6261413737299,0.7667529733543911,1351.0741853658535,1346.2855679999998,64.82482568863672,58.38365414711333,724.9297896321892,1024.2176510140425,1020.0142569641262,123.0,724.2312464429863,888.1390378933693,0.8154480498468283,829.0791565373132,715.2142079999999,83.89095089117694,77.92386924361665,296.6510013982124,415.3952620157577,414.35547249507187,201.0,293.72880664410496,364.5069647274787,0.8058249500491971,820.3927679999998,715.2142079999999,83.89095089117694,79.24243390467845,315.17615870712234,427.12441609034704,426.1008993575807,202.0,302.0225710278289,391.23292976131796,0.7719763548842522,857.948672670157,715.2142079999999,62.00635500652208,77.38846175020231,426.68967665501003,602.0508478080217,600.4658830826211,191.0,425.7142371041622,522.9836082434368,0.8140106695390001,deceptive
1783770950051196280,1783770960051196280,1183.7095652571427,1051.7856,95.07641101000053,67.93817452307144,655.5316647413869,862.6775285931253,859.5969598314748,140.0,610.0051304454506,820.603678624671,0.7433614378475821,1303.556778,1346.2855679999998,54.85177558269261,60.92594977890401,661.0248103489037,952.1948998849628,948.4401386742854,128.0,673.3034707199029,804.5115399743341,0.8369096492281303,837.623024562814,715.2142079999999,83.89095089117694,77.74950435916108,318.8734260799849,435.6647334552622,434.5632293197991,199.0,308.06148735004564,394.8538764224229,0.7801911181453745,798.1550153142856,715.2142079999999,83.89095089117694,80.0069672965071,273.6125353210669,412.647376906639,411.6589985366738,210.0,291.7857584495256,327.350232247759,0.8913565035404771,860.2955618969071,715.2142079999999,83.89095089117694,77.25992547691993,438.6011181389543,627.4747766506966,625.8471211414237,194.0,443.69166959322195,535.080118143322,0.8292060469987009,deceptive
1783770951051196280,1783770961051196280,1177.9998719999999,1051.7856,57.04584660600032,66.60889637202449,625.1656624200949,822.2549760921898,819.3496914552464,142.0,581.42206945917,782.712207334995,0.7428299495146696,1296.0607672558137,1346.2855679999998,34.78405280853678,62.11618788903318,675.8096430464182,926.2796546912352,922.6908696316798,129.0,654.978625107306,836.0256261594651,0.7834432397917599,832.218815044776,715.2142079999999,95.07641101000053,78.08719459840405,314.69830338831673,439.128743519959,438.0380821212031,201.0,310.5109123568912,387.1195305905085,0.8021060365599245,815.9803991414632,715.2142079999999,46.004715004838964,79.11520281861459,299.91526802590033,449.8686256333976,448.7650783707837,205.0,318.1051558284477,359.5871117097702,0.8846400370578259,862.2473289896905,715.2142079999999,44.56706766093775,77.03501824775662,437.5387731116394,620.1962478898025,618.58804973593,194.0,438.5449725493324,535.4619589456659,0.8190030406881476,deceptive
1783770952051196280,1783770962051196280,1168.8794933706295,1051.7856,83.89095089117694,67.34041960379027,624.9210817892155,826.0147142255113,823.1268809247545,143.0,584.0806057887272,781.3306853694813,0.7475459709003018,1295.408497116279,1304.2141439999998,95.07641101000053,62.679357366576106,691.0774556802116,951.5731438617785,947.8843898398765,129.0,672.8638228196656,853.6997349590326,0.7881738687103552,792.5129008995215,715.2142079999999,83.89095089117694,79.92328814172265,241.61975764981625,348.42906467356784,347.60372678656483,209.0,246.37655439316597,293.95494773211004,0.838143927475908,813.5870964705882,715.2142079999999,83.89095089117694,79.22210075714813,299.50048606767683,447.32158805231927,446.220183153489,204.0,316.30412828293026,359.6900492439806,0.8793797019065676,839.7199957766497,715.2142079999999,83.89095089117694,78.2685669015404,401.69201614362225,573.6471172962368,572.1858866652159,197.0,405.6297666482839,490.35211620985746,0.8272214052700965,deceptive
1783770953051196280,1783770963051196280,1180.0738154366197,1051.7856,101.86758322500057,66.7919807379457,628.7562178445144,849.1225941998002,846.1074786610459,142.0,600.4203444173918,781.2915383908411,0.7684971805198683,1296.0607672558137,1304.2141439999998,25.92993027545469,63.87881321767723,701.7285711320893,968.4973330172154,964.7087379814442,129.0,684.831031737559,866.2269933861462,0.7905907307973666,792.9765556777247,715.2142079999999,79.23034250833378,79.9656828339524,244.85470524438125,351.2251781510207,350.4108386214069,211.0,248.35370519403997,298.44240971889633,0.832166264265072,816.1856255999998,715.2142079999999,79.23034250833378,79.11490930177587,305.25170151740133,455.0808579888385,453.9648429820291,205.0,321.79076067209996,366.85495189730364,0.8771607388911059,836.5902662399998,715.2142079999999,79.23034250833378,78.68618990261025,402.5678525315441,567.9995574650284,566.5864029961349,200.0,401.6363387944797,493.42261547643017,0.8139804017833169,deceptive
1783770954051196280,1783770964051196280,1193.7388219856114,1051.7856,118.84551376250066,66.78109325385803,637.4468845119352,856.9689047621192,853.9040699726054,139.0,605.9685238233031,793.1444604960992,0.7640077615170879,1275.9524240610685,1304.2141439999998,59.42275688125033,66.1798688779283,714.9560741353457,1002.8284813114766,998.9774224200635,131.0,709.1068195023521,878.0137442851799,0.807626103939477,802.2024663188405,715.2142079999999,83.89095089117694,79.4212515085561,256.36423706558105,358.00201427339397,357.13225382599603,207.0,253.14565197116005,315.2838142634078,0.802913567138167,842.9234036954314,715.2142079999999,83.89095089117694,78.68789262800695,394.26145723400634,587.8428338203026,586.3414742653259,197.0,415.6676540662528,473.8083937649199,0.8772906084742904,855.9583016907216,715.2142079999999,43.21655045909115,77.97812162433628,439.8317693447669,603.5813904670475,602.028464164334,194.0,426.7964941972547,543.8992065818471,0.7846977694258309,deceptive
1783770955051196280,1783770965051196280,1190.5317855319147,1051.7856,26.41011416944459,66.5138237470217,617.9682068868859,822.8588880255576,819.9611526772147,141.0,581.8490996824938,771.0351626516924,0.754633676733286,1305.5288759999999,1346.2855679999998,30.34353542872357,65.84998816347918,736.8376915045806,1040.1921044386306,1036.0921559051385,128.0,735.5268907852611,902.9726815964491,0.8145616204964861,800.5648480765548,715.2142079999999,83.89095089117694,79.51923655398527,254.3399355003454,367.44542102846526,366.56129778839505,209.0,259.8231489251738,309.23061171550137,0.840224541431288,853.6635369795918,715.2142079999999,83.89095089117694,77.87800799339202,397.96786271356075,598.9381031410022,597.4005462911692,196.0,423.51319424201046,476.5240042821176,0.8887552157630174,853.6635369795918,715.2142079999999,83.89095089117694,78.09733149302575,437.3272490479742,613.1198654188655,611.5458947316498,196.0,433.5412145178632,537.1510524767924,0.8071122871654325,deceptive
1783770956051196280,1783770966051196280,1171.2331394685311,1051.7856,158.46068501666755,67.60482309997467,600.4363359444916,809.7619614085626,807.0157881014643,143.0,572.588174058914,746.4040316804513,0.7671289941585538,1310.7878039999998,1304.2141439999998,19.807585627083444,67.32243840618091,852.6571475541308,1183.3154462866341,1178.8041128849918,128.0,836.7303763520648,1050.7090754319959,0.7963482908035658,792.7771650426538,715.2142079999999,83.89095089117694,79.975682636806,247.9791581491028,353.1954998490482,352.35378248844444,211.0,249.74693302783422,302.9860730698207,0.8242851907265125,842.7033716363634,715.2142079999999,83.89095089117694,78.16111807676509,374.54901367638837,561.6084079453635,560.1811924031913,198.0,397.1171136295475,449.13575489286006,0.8841805830495025,835.8475768163263,715.2142079999999,83.89095089117694,78.27883918544092,353.64838618424517,481.36832850037797,480.13251273168083,196.0,340.3788093310509,438.41247151584327,0.7763894310628668,deceptive
1783770957051196280,1783770967051196280,1191.222319542857,1072.821312,142.6146165150008,65.20732922428633,586.4885805156334,803.2520598361574,800.4316162588932,140.0,567.9849785122094,725.6956953453202,0.7826765160043224,1273.3831767938927,1304.2141439999998,62.00635500652208,67.37405519727807,777.5613156725105,1085.0995430096532,1080.9289267983704,131.0,767.2812451245495,956.4742258423861,0.8021975129008725,793.3468525714284,715.2142079999999,64.82482568863672,79.86713443774275,244.27362807636854,349.30007029960626,348.464352504036,210.0,246.99244837778934,298.05465265510713,0.8286817406725597,832.0095044776116,715.2142079999999,36.56785038846174,78.71356664349344,354.3368795064669,524.3461025649696,523.0579596628164,201.0,370.7686848124269,427.0533216566668,0.8682023204364854,845.6996905583754,715.2142079999999,83.89095089117694,77.87630100605875,368.93017695471025,510.9245347292506,509.6195342914195,197.0,361.2782031816348,454.92634666349267,0.7941465818177178,deceptive
1783770958051196280,1783770968051196280,1149.1838281643834,1051.7856,101.86758322500057,66.25805198347878,524.6757521357778,709.5201489060804,707.0692947816298,146.0,501.7065086799784,651.7012960955054,0.7698412013077451,1300.6266582325577,1346.2855679999998,101.86758322500057,66.11415656254975,787.4361149454159,1101.7106527446267,1097.403579325499,129.0,779.0270734611831,967.8169659847426,0.8049322349588406,796.1516141714284,715.2142079999999,83.89095089117694,79.82471088357072,254.745941870786,365.1422275341125,364.26785659653507,210.0,258.19454518693226,310.5781354460168,0.8313352284639831,815.5699462243902,715.2142079999999,83.89095089117694,78.97526379610136,300.02461691065866,439.3475330709682,438.26957208027164,205.0,310.66561993206255,363.0054790232354,0.8558152366404842,853.0195866122448,715.2142079999999,83.89095089117694,77.05743044589538,369.8890882999546,510.0350614305955,508.7257812652105,196.0,360.6492505804714,456.72960744253857,0.7896340519720848,deceptive
1783770959051196280,1783770969051196280,1181.9065042285715,1093.857024,34.78405280853678,65.39371029055866,545.46899880025,739.1361600245084,736.5114687283278,140.0,522.648190973515,677.1205886253573,0.7718687036744204,1323.914255238095,1346.2855679999998,21.940710233077045,64.34912743299542,792.3502225388806,1092.565618968224,1088.3219545532847,126.0,772.5605580637088,978.3725478451308,0.7896384253271173,789.3875242464453,715.2142079999999,83.89095089117694,80.21625800352322,239.19568058652428,345.6581445369417,344.8341668583455,211.0,244.41721797443125,290.79074779181127,0.8405261165648205,816.4743510588233,715.2142079999999,83.89095089117694,78.903078244973,295.2721460255711,434.2630124683858,433.19207862488474,204.0,307.07032093489386,356.68640209231836,0.8608971890535295,858.5606578144328,715.2142079999999,83.89095089117694,76.49852870385705,345.2980258716956,489.0520293762446,487.7834097831017,194.0,345.8120063249852,422.69194631850337,0.8181182758197426,deceptive
1783770960051196280,1783770970051196280,1240.7930421492536,1199.0355839999997,30.34353542872357,63.39055790214916,594.9293712569431,789.4938679732306,786.5345581640048,134.0,558.2564677490682,743.0052299119637,0.7513493112494163,1336.7855690322579,1346.2855679999998,35.6536541287502,63.170347480889944,798.3363696184817,1092.828143346762,1088.3771701023857,124.0,772.7461908319999,987.9846053398562,0.7821439591826266,816.6805835294116,715.2142079999999,79.23034250833378,78.82218378606332,299.4094953999343,405.3494796813826,404.35516055110907,204.0,286.6253658331443,371.77283615373875,0.770969091767147,852.7053565360824,715.2142079999999,79.23034250833378,77.50411354248884,373.24012705673465,558.1156924606834,556.6679617756336,194.0,394.64739082557486,448.04364000389273,0.8808235528622749,886.185314042553,715.2142079999999,79.23034250833378,76.19505392483472,455.78109360570267,661.7064787467759,659.9362189909542,188.0,467.89713827691736,553.1807521714364,0.8458304748316897,deceptive
1783770961051196280,1783770971051196280,1264.3737803636361,1283.1784319999997,57.04584660600032,61.825184890196184,597.6379565859376,774.095082383395,771.1381378263762,132.0,547.3678820364578,751.3564102088244,0.7285063048631313,1393.6159199999997,1367.3212799999997,32.41241284431836,58.869389940233944,776.8807629871142,1087.0312078124946,1082.4639711886423,120.0,768.6471384056181,954.8184267751164,0.8050191710288952,849.155884408163,715.2142079999999,83.89095089117694,77.34397667945788,356.0890282337546,478.4310610252376,477.20273791756813,196.0,338.3018475812205,443.1418757220826,0.7634165627655267,891.1492538181816,715.2142079999999,83.89095089117694,76.55056779806634,470.67435036914725,709.1891372151742,707.2801454961968,187.0,501.4724480686866,563.321737646291,0.8902061016923876,920.6629951999998,715.2142079999999,83.89095089117694,74.94827176017216,509.73548544425825,731.1709622420602,729.1257626572367,180.0,517.0159456080538,621.2952488436493,0.832158215551013,deceptive
1783770962051196280,1783770972051196280,1256.448843067669,1304.2141439999998,62.00635500652208,62.29738903579455,597.5834780769684,782.3105116261041,779.3457516384783,133.0,553.1770677643357,749.139234315597,0.7384168955851182,1332.8227123200004,1346.2855679999998,178.268270643751,62.764442833014236,771.9515536034197,1057.5040378708375,1053.2367416340987,125.0,747.7682763106246,955.1124042190978,0.7829112814444095,871.1648268062823,715.2142079999999,83.89095089117694,76.54077800081771,386.96058866408646,523.1319896349244,521.7535103228727,191.0,369.91017732646577,480.6872420957976,0.7695444042027336,909.2485350819668,715.2142079999999,83.89095089117694,75.66644298902291,495.79369170126995,691.3889079770898,689.4868716141683,183.0,488.88578526776206,610.0148473136614,0.8014326002402751,919.2954802209941,715.2142079999999,83.89095089117694,74.75705175730815,503.7160952339833,722.2240202536287,720.2150482946249,181.0,510.68950225715133,614.0504257287948,0.8316735578369349,deceptive
1783770963051196280,1783770973051196280,1256.040757740458,1304.2141439999998,158.46068501666755,63.27195205598202,604.6975026199888,803.7589167175538,800.7610426500399,131.0,568.3433804501358,754.8582915348805,0.7529140062759365,1366.976432262295,1346.2855679999998,44.56706766093775,59.92721405017452,770.0286659294269,1044.7220456661432,1040.4170297139635,122.0,738.7300429456119,955.5245965075379,0.7731146279705258,897.5995163675675,715.2142079999999,83.89095089117694,75.3667371707907,415.38985673950526,571.4518325777368,569.9170862779184,185.0,404.0774659371973,513.281761730358,0.7872429843892857,892.773712516129,715.2142079999999,83.89095089117694,75.90878931835974,447.3640035854275,673.8997583334925,672.075939675887,186.0,476.51908895758817,535.4753797678095,0.8898991568281147,954.3443133793102,715.2142079999999,83.89095089117694,73.06801142863793,538.3745182564204,780.0712510263121,777.8134423805147,174.0,551.5936714093789,653.8856586944132,0.8435628830134054,deceptive
1783770964051196280,1783770974051196280,1286.0910690461535,1304.2141439999998,31.692137003333507,61.90655246229122,607.5974358286821,818.8877166276918,815.7363097044249,130.0,579.0410574578088,755.450206790792,0.7664847428100097,1358.941199609756,1346.2855679999998,101.86758322500057,61.53829877188111,776.9535190675374,1050.3102699557971,1045.9969193775134,123.0,742.6815142356174,965.1557520883382,0.7694939522752197,868.8187299999996,715.2142079999999,83.89095089117694,76.6986706598599,388.7458958259896,550.0112626631187,548.5695972956736,192.0,388.9166935580666,476.0447938787197,0.8169749959646645,859.8618358762885,715.2142079999999,83.89095089117694,76.84361567216743,377.7062252344703,561.9675370246049,560.5098142154881,194.0,397.37105623680037,454.28196859920564,0.8747233738158438,926.7399786666663,715.2142079999999,41.94547544558847,74.04388410627729,494.2559483797915,717.591684199123,715.5943121092755,180.0,507.41394602027543,599.8695097349762,0.8458738738770906,deceptive
1783770965051196280,1783770975051196280,1251.7039456240598,1304.2141439999998,30.34353542872357,64.45479034331657,601.0207502471893,785.9291067809179,782.9505947303654,133.0,555.7358009366733,753.6781436621509,0.737364889256748,1372.838843803279,1367.3212799999997,29.105023778571592,60.43649584873604,714.1642250423791,931.8397426499985,928.0099018368254,122.0,658.9102010069413,896.0913760132166,0.7353158602401536,899.5594260645158,715.2142079999999,79.23034250833378,75.31553686091513,447.34192655482184,651.0253246293024,649.2673952465959,186.0,460.3444217695532,542.4676074941129,0.8486118164660165,894.7489478502671,715.2142079999999,79.23034250833378,75.33943712037971,421.4897093449567,601.4528659791665,599.8381428837579,187.0,425.29140009795236,514.6559653484586,0.8263605762540805,950.670757090909,715.2142079999999,79.23034250833378,73.2430941713381,535.7495547695737,782.3099908326719,780.0753216999282,176.0,553.1766995077681,648.8859225106052,0.8525022354737973,deceptive
