window_start_ns,window_end_ns,red_Mean_NN,red_Median_NN,red_Heart_Rate,red_Mean_HR,red_SDNN,red_SDSD,red_RMSSD,red_NN_Count,red_SD1,red_SD2,red_SD1_SD2,infrared_Mean_NN,infrared_Median_NN,infrared_Heart_Rate,infrared_Mean_HR,infrared_SDNN,infrared_SDSD,infrared_RMSSD,infrared_NN_Count,infrared_SD1,infrared_SD2,infrared_SD1_SD2,ppg0_Mean_NN,ppg0_Median_NN,ppg0_Heart_Rate,ppg0_Mean_HR,ppg0_SDNN,ppg0_SDSD,ppg0_RMSSD,ppg0_NN_Count,ppg0_SD1,ppg0_SD2,ppg0_SD1_SD2,ppg1_Mean_NN,ppg1_Median_NN,ppg1_Heart_Rate,ppg1_Mean_HR,ppg1_SDNN,ppg1_SDSD,ppg1_RMSSD,ppg1_NN_Count,ppg1_SD1,ppg1_SD2,ppg1_SD1_SD2,ppg2_Mean_NN,ppg2_Median_NN,ppg2_Heart_Rate,ppg2_Mean_HR,ppg2_SDNN,ppg2_SDSD,ppg2_RMSSD,ppg2_NN_Count,ppg2_SD1,ppg2_SD2,ppg2_SD1_SD2,label
1783422592229398063,1783422602229398063,1404.6233751864406,1347.182592,43.18777463969649,65.97813058998895,1003.2350888706497,1403.7659007564214,1397.7556950661155,118.0,992.6123876233077,1233.0132241995539,0.8050297986606678,1314.928976516129,1010.386944,36.54350161820472,76.42575056652329,1146.7392527565976,1657.4305887314783,1650.7014941525458,124.0,1171.9804086380402,1394.0060216906618,0.8407283687459635,931.154821752809,715.690752,83.83509194764613,76.75082772952132,696.7156718553534,980.3973459188395,977.6323009168619,178.0,693.2456115565049,854.7108960616664,0.8110878365431391,919.2102216132598,715.690752,83.83509194764613,76.07500135415742,529.2101230073814,697.5538772858415,695.6537911291884,181.0,493.2450768717873,662.1792473778138,0.7448815087833172,905.3671053913046,715.690752,83.83509194764613,76.49684731390627,509.60267339382233,686.1234496576316,684.261696442876,184.0,485.162543984018,633.7968305519832,0.7654859106213621,truth
1783422593229398063,1783422603229398063,1378.1483075702479,1347.182592,178.149570388748,66.68341153152566,897.2843137171723,1239.45774313703,1234.3112502316046,121.0,876.4289751663679,1107.3275960754381,0.7914812005702602,1366.852009967213,1031.436672,35.6299140777496,74.21729940368947,1184.01923064646,1697.319729489663,1690.2943607707466,122.0,1200.1862905638573,1443.4609489184509,0.8314643298546641,918.0020266666669,715.690752,83.83509194764613,77.09104598939116,672.0033039563215,940.0221518797586,937.3934517606986,180.0,664.696038059748,825.9942309424814,0.8047223735464982,910.544518295082,715.690752,83.83509194764613,76.50214995100815,521.6265422256995,657.0378464861307,655.2483172252221,183.0,464.59591674654877,660.5026996007631,0.7033974532236901,873.1739022222224,715.690752,83.83509194764613,77.87930988854086,476.67982354449845,650.0728983160939,648.3528520903268,189.0,459.6709546649029,590.5917499149109,0.7783226818375463,truth
1783422594229398063,1783422604229398063,1347.5276695081966,1347.182592,43.18777463969649,65.40259565511442,856.7595707048262,1185.1115981322532,1180.2191040828113,122.0,838.0004475021428,1056.8592853269258,0.7929158206174233,1318.11392,1010.386944,11.876638025916535,78.05028990260165,1159.8254410792804,1639.3883263587165,1633.1376901117887,126.0,1159.2226025663133,1420.736283199379,0.8159308777247817,946.9985585454547,715.690752,16.381569690919356,76.55351973811625,735.1044782677593,1022.6140332132467,1019.8351931065266,176.0,723.097317421612,905.1642517838757,0.7988575730830614,925.9541461333333,715.690752,21.593887319848246,76.4923038869857,575.6325544493816,720.9613878659447,719.0447620358807,180.0,509.7966863336742,729.9036544540952,0.6984438058677183,901.9350845217392,715.690752,20.3599509015712,77.51461434288937,554.0984987324247,717.6777844376142,715.8260637216961,184.0,507.47482808277425,696.6239602728527,0.7284774240093711,truth
1783422595229398063,1783422605229398063,1356.1546072131148,1347.182592,83.83509194764613,64.92890429856176,847.1267929820665,1219.8736107385746,1214.8224023819048,122.0,862.5809023437649,1031.1278777300465,0.8365411516587782,1372.7183276065573,1199.834496,43.18777463969649,74.92171496332462,1176.3910359753982,1695.9769668819501,1688.9766558800266,122.0,1199.2368140184196,1431.3305945860363,0.837847537497274,956.6738449655173,715.690752,83.83509194764613,76.11865410103692,738.8754453285447,1045.6695544253023,1042.6431217165355,174.0,739.400032814447,904.7196489277261,0.8172697848342124,945.8025512727273,715.690752,83.83509194764613,75.7057276948269,599.1051639586492,752.502452910916,750.3495199134488,176.0,532.0995873128193,759.1370163248553,0.7009269418698975,935.1755563146069,715.690752,83.83509194764613,77.23447030194332,666.5970347701165,909.9649665003988,907.3909277151226,178.0,643.4423984546215,825.6477175309732,0.7793183276504165,truth
1783422596229398063,1783422606229398063,1380.583813289256,1347.182592,20.073191029718085,64.09808587760688,859.5219800657958,1218.21496651529,1213.2875265049122,121.0,861.4080637659044,1051.924019248534,0.8188881021856227,1387.85494779661,1347.182592,29.08564414510172,72.1619400867254,1137.3572148182998,1629.3786029060716,1622.4439565660568,118.0,1152.144659235146,1386.8829115309068,0.8307440012822384,947.23776,715.690752,79.17758683944356,75.73084871835303,655.3003319701266,885.2224175785196,882.6898821983948,176.0,625.9467743281209,814.2065880441073,0.7687812694217748,936.5946391011236,715.690752,79.17758683944356,75.6615557161295,573.7860259849414,759.9330091546202,757.7836010258117,178.0,537.3537840207306,716.9980910926365,0.7494493928175664,947.2377600000001,715.690752,79.17758683944356,76.23154825931014,634.1086130019938,857.8505110570828,855.3963025805888,176.0,606.5919136128086,787.5345016800218,0.7702417002922232,truth
1783422597229398063,1783422607229398063,1318.11392,1305.083136,89.074785194374,66.63327594385659,843.35984510158,1190.6684050405358,1185.926058118085,126.0,841.9297033487337,1033.4838382718322,0.8146520266408706,1395.6500329411763,1052.4864,178.149570388748,74.81874021600203,1189.0311400086055,1671.6470701016494,1664.609924056321,119.0,1182.0329790195003,1459.1055897622591,0.810107909470826,942.8375343728815,715.690752,17.380445891585175,76.0304507383713,655.5156756057057,881.6365011356462,879.2743533888195,177.0,623.4111484945968,815.524905748398,0.7644293192033165,950.00429568,715.690752,83.83509194764613,74.9106652373653,573.0856620266948,710.3817891587821,708.3375207789903,175.0,502.3157803456071,728.4873234648918,0.6895326303777685,933.9929873258427,715.690752,83.83509194764613,77.07883440243559,655.1804495367593,904.2923593612626,901.7342428943259,178.0,639.4312594795311,808.7562519761997,0.7906353217265126,truth
1783422598229398063,1783422608229398063,1312.3759551496062,1052.4864,178.149570388748,66.59776692181066,849.6904181000488,1227.3925916272597,1222.5364371627998,127.0,867.8976247177662,1033.1139674434285,0.8400792672133637,1331.353196544,1010.386944,89.074785194374,73.25647594496643,994.7281906949923,1208.4784147508008,1204.6020139547059,125.0,854.5232819878604,1270.3792059841871,0.6726521324991658,917.16672,715.690752,83.83509194764613,76.43927750006526,560.6004863927685,767.3194694143065,765.1970079402005,182.0,542.5768001593198,693.7946516456105,0.7820423505317929,956.8500635375722,715.690752,83.83509194764613,74.69312279009485,584.0024288024628,725.0930417439799,722.9821404912725,173.0,512.7182068083486,742.0766091839622,0.6909235521817192,918.2798468950277,715.690752,89.074785194374,77.22105760498617,605.1170422019676,810.8194890414035,808.5641096287213,181.0,573.3359590193879,753.6419631192089,0.760753762498094,truth
1783422599229398063,1783422609229398063,1315.359381165354,1052.4864,178.149570388748,65.70600390264502,833.1168007141426,1214.3072892649702,1209.505593376626,127.0,858.644918683515,1009.7186039059728,0.8503804083255991,1268.4055796363637,1010.386944,43.18777463969649,75.02855643298822,851.5820820695071,1137.3581584666204,1133.0372659092488,132.0,804.2336664895912,1061.5969997348468,0.7575696490197912,911.9248283278689,715.690752,83.83509194764613,76.60804596927038,554.2328334738289,753.13682671391,751.0650620340614,183.0,532.5481573307235,687.4185751510381,0.774707254911919,960.9870043005781,715.690752,44.537392597187,74.30985635763352,595.7983485141114,747.6813637588019,745.5137436244432,173.0,528.6905624806546,755.1122358671123,0.7001483188436848,937.5406942921351,715.690752,79.17758683944356,77.2044589611277,672.4386412561515,905.8775749068207,903.3152559121664,178.0,640.5521761414376,836.1781552570438,0.766047488940356,truth
1783422600229398063,1783422610229398063,1282.587243480916,1010.386944,89.074785194374,69.25847922868782,854.9929317517992,1203.2724558996767,1199.0303030084895,131.0,850.8421131816524,1048.8372971578403,0.8112241197822397,1285.0049339076925,1010.386944,25.449938626964002,74.94137134614692,861.3671068440949,1054.3012921193638,1050.3237253384882,130.0,745.5035930713412,1098.188864387539,0.6788482539268046,885.2082423829787,715.690752,83.83509194764613,77.12560437790825,485.6109105838833,659.6327455773326,657.8666959346334,188.0,466.43078749043246,602.3761891017474,0.7743181020915945,919.6754089723757,715.690752,83.83509194764613,75.82365827807595,534.234452519587,659.6890715055813,657.8540496714271,181.0,466.4706159362538,679.7172079268198,0.686271600154156,900.7910775652174,715.690752,83.83509194764613,78.18975422266755,613.3251340920865,818.2477860714014,816.0776894974724,184.0,578.5885582219673,764.8222540992543,0.7565006838136294,truth
1783422601229398063,1783422611229398063,1307.38545,1052.4864,44.537392597187,66.1012113093668,796.0387288372234,1179.3385336299393,1174.7110350485484,128.0,833.9182744443293,958.9814760418791,0.869587468869849,1320.7869013333334,1347.182592,34.76089178317035,71.54198119422726,857.7011203046588,1088.3918285869183,1084.062218197054,126.0,769.6092425818364,1084.0448470474087,0.7099422543984281,891.2544408510639,715.690752,16.013444529325664,76.82803007181539,501.7725955837363,645.1119095650881,643.6003542902512,188.0,456.1630058776766,632.0673471964842,0.7217000022244053,949.0420223999998,715.690752,19.79439670986089,75.0162466770138,586.997636652002,675.7313645581019,673.8634357845862,175.0,477.8142301394729,758.2738500094691,0.6301341265210532,891.254440851064,715.690752,28.503931262199682,78.30773562586269,593.5950103415497,791.8706394538767,789.7898075419733,188.0,559.9370989803639,740.2332707988044,0.7564333042962547,truth
1783422602229398063,1783422612229398063,1287.5956696615385,1010.386944,178.149570388748,67.9485929892086,808.6580076905454,1193.1196677906682,1188.6217104033524,130.0,843.6630078618224,975.6904792949738,0.864683038079296,1350.26304,1347.182592,43.18777463969649,70.62963527616316,870.679561460515,1131.4859031398053,1126.8721470385833,123.0,800.0813549271414,1093.6638927198446,0.7315605463918264,883.4203306666668,715.690752,83.83509194764613,77.07463089404949,479.27010787550387,643.7917683621736,642.0772732586823,189.0,455.22952508097194,596.4752403522468,0.7631993656805225,932.7734217653633,715.690752,41.91754597382307,74.99332659678362,517.4193482619163,615.1247771130529,613.4076424881732,179.0,434.9589011725033,663.9660692060828,0.6550920616961529,893.821245935484,715.690752,83.83509194764613,77.87494297808219,568.3494756477284,741.4582946352024,739.4516379256997,186.0,524.2901881035647,713.163482146457,0.7351612936287379,truth
1783422603229398063,1783422613229398063,1282.2384699534887,1010.386944,178.149570388748,71.35488100411064,843.7142157641448,1254.8553119609526,1249.9466914713691,129.0,887.3167004955502,1014.9097951423352,0.8742813447485835,1336.405131264,1347.182592,44.537392597187,71.57968130477593,860.5079108647296,1172.9021754699068,1168.1757877023579,125.0,829.3670819432249,1066.3127360282504,0.7777897177074063,882.9629220962568,715.690752,47.50655210366614,76.46406804100496,436.298473514475,551.730750716589,550.25347195381,187.0,390.13255522084467,551.9157640986072,0.7068697446212865,924.7609317966103,715.690752,47.50655210366614,75.3258554944193,509.65675602761877,590.9444664258015,589.2727711354502,177.0,417.8608395143503,657.4162892181579,0.6356107178471307,907.2201452307694,715.690752,47.50655210366614,76.97046398846592,570.5935385991665,739.5435869136649,737.5823204299616,182.0,522.9362852896753,717.2327330413432,0.7291026485534534,truth
1783422604229398063,1783422614229398063,1295.2925648372093,1010.386944,83.83509194764613,71.21815291257094,838.9992169999647,1255.008177095648,1250.0962321328345,129.0,887.4247924689003,1007.0143946880165,0.8812434034210938,1352.7038321311475,1347.182592,36.54350161820472,71.42338903502035,889.1184291149453,1262.1763224157403,1256.9500895913982,122.0,892.4934366332682,1087.561903878085,0.8206369066907994,867.2924199792748,715.690752,83.83509194764613,77.05495481469731,394.44001739236467,511.58169085327904,510.2478960932014,193.0,361.7428827332336,495.71856737155093,0.7297343826584977,924.7924699226519,715.690752,83.83509194764613,75.52151255637774,514.9593295627601,617.8681791381186,616.1496658079345,181.0,436.89877934794816,659.489158750613,0.6624806087421404,871.809568,715.690752,83.83509194764613,78.05158249450862,507.5726483771013,678.8469282087843,677.067653381824,192.0,480.0172663240888,632.4964021846001,0.7589248961197903,truth
1783422605229398063,1783422615229398063,1275.517105832061,1010.386944,79.17758683944356,69.60676073682849,805.7940890578561,1182.4753795039812,1177.94016314139,131.0,836.1363594334014,974.1900338937415,0.8582887633241809,1383.6687872,1347.182592,13.703813106826772,71.60744497269165,953.7884159500744,1317.3942064499076,1312.0487885733119,120.0,931.5383768766003,1177.090825299458,0.7913903981365348,858.6130077538462,715.690752,83.83509194764613,77.18993770837525,368.5124438814419,480.84850075331417,479.60779570607974,195.0,340.01123560605316,462.3840637627645,0.7353437591233741,909.9431332173914,715.690752,83.83509194764613,75.442987237433,459.57342545376736,564.0986864786571,562.555510082014,184.0,398.87800646748263,585.5455872473829,0.6812074331267458,858.6130077538462,715.690752,83.83509194764613,78.14285837145148,436.6805422369507,565.6356506282019,564.176110231614,195.0,399.9648042400664,548.9935059919354,0.7285419588295491,truth
1783422606229398063,1783422616229398063,1255.6481687272726,1010.386944,89.074785194374,69.86957100167535,780.4559003264433,1151.3538131412768,1146.9525351941338,132.0,814.1300888171859,941.7106370589528,0.8645225579693859,1392.4395072,1347.182592,29.691595064791336,70.28546012992587,932.3771434650537,1289.9408152785275,1284.5219332198544,120.0,912.1258978127504,1150.0728014268266,0.7931027467836212,858.7852760207254,715.690752,95.01310420733228,77.33444966332068,374.24093640710004,489.50230230165215,488.2258925611862,193.0,346.1303973639256,469.2647770460422,0.7376014870384462,910.7745699672133,715.690752,64.78166195954473,75.80833258894876,481.5315790146577,607.1244979412623,605.4564412561285,183.0,429.3018495187447,609.586158124175,0.7042513085267502,851.103435216495,715.690752,83.83509194764613,78.28319646981342,401.3963023277007,496.9027024153209,495.61390988775156,194.0,351.36327046779445,510.40171348437843,0.6884053505015288,truth
1783422607229398063,1783422617229398063,1289.1715305826772,1220.884224,44.537392597187,68.03386229835162,774.7507215533554,1148.5268140197293,1143.9632117647761,127.0,812.1310985679312,933.1124800710321,0.8703464115131208,1407.4775755932203,1347.182592,35.6299140777496,68.41581614522755,923.2307685689483,1266.0602572180942,1260.6907164685983,118.0,895.2397932696991,1141.9207329486733,0.7839771776084725,843.2648610909091,715.690752,83.83509194764613,77.90994451495573,344.60957922548164,471.0319105090412,469.8348770351353,198.0,333.06985807619805,426.66586342063704,0.7806339494937155,900.158798451613,715.690752,83.83509194764613,75.81081631823452,456.75010420664233,635.040616503964,633.3324311198954,186.0,449.0415262588387,562.5141502514613,0.7982759652501243,849.8961244263959,715.690752,83.83509194764613,78.26118859318231,398.73394825944706,494.61813548146364,493.3667107717677,197.0,349.7478376967894,506.76991623649576,0.6901511445157916,truth
1783422608229398063,1783422618229398063,1323.3151838740155,1305.083136,89.074785194374,68.13522448961754,824.8511397749169,1202.937636385474,1198.3006545799742,127.0,850.605360032686,999.4969066074148,0.8510335093681177,1505.3400077837837,1347.182592,89.074785194374,65.02633480958002,957.5990692722793,1331.100482717925,1325.1635540179082,111.0,941.2301777705316,1179.421396774409,0.7980440072943352,840.9313447236183,715.690752,79.17758683944356,77.84133879298452,330.50265986199014,451.3468866489848,450.215519898666,199.0,319.1504442169332,409.3110227318192,0.7797259943962973,909.4855304347826,715.690752,79.17758683944356,75.22966892456846,458.5442283470134,623.7178767586354,622.0115652715302,184.0,441.0351402033064,568.5680445238203,0.7756945618930737,828.4422653465348,715.690752,79.17758683944356,79.10487010982462,357.72010490707174,474.3716270230012,473.1992122034536,202.0,335.43139427045986,446.8447569104291,0.7506665101985246,truth
1783422609229398063,1783422619229398063,1290.8340893538464,1305.083136,44.537392597187,70.12388738716767,803.5237390980041,1166.0147171672409,1161.4894218960092,130.0,824.4969134722703,975.3990047285389,0.8452919364027177,1515.9631383272726,1347.182592,178.149570388748,62.32332972774248,938.9423984208103,1318.3501041124928,1312.4196409786252,110.0,932.2142985959347,1152.698532076402,0.8087234195715507,835.6742016000001,715.690752,49.144709072758076,78.14501277598237,327.5113116191086,452.15262747996115,451.0222795036619,200.0,319.7201890223954,404.2484617690952,0.7909001994051323,893.7691995721924,715.690752,49.144709072758076,75.83859126395917,442.05088740654827,615.5291595198207,613.8782899381466,187.0,435.2448427145214,544.1497381778653,0.7998622661695625,835.6742016000001,715.690752,49.144709072758076,78.72811601904439,365.62262165903434,490.35703606352996,489.12416351446774,200.0,346.7347854030585,455.2442171333955,0.7616456669925329,truth
1783422610229398063,1783422620229398063,1277.3431843720934,1305.083136,54.81525242730709,68.73872751508281,735.7718588116287,1058.1367897100351,1054.0179689571585,129.0,748.2156994269296,895.9950278900959,0.8350667985165503,1479.871056,1347.182592,35.6299140777496,62.367938919402555,927.1565685475391,1314.3431739521664,1308.4128325566933,112.0,929.3809711078268,1134.6206901308612,0.8191116019580401,833.5269177889448,715.690752,83.83509194764613,78.17433006338062,325.44097441736983,437.582295212315,436.4759424609468,199.0,309.41740827180166,404.9124465716446,0.7641587975168697,901.4774817391306,715.690752,83.83509194764613,75.48979182336925,451.41926462964227,624.5935665029781,622.898453248907,184.0,441.6543463597467,556.8028593032784,0.7931969798294214,855.0095703092784,715.690752,83.83509194764613,78.91201422377051,532.3433988319448,747.8271680637516,745.8873077995271,194.0,528.7936616934107,653.4275937212411,0.809261296545428,truth
1783422611229398063,1783422621229398063,1246.9607527164178,1094.585856,83.83509194764613,69.74926574719444,735.3857170031116,1055.6225445529008,1051.6504096115052,134.0,746.4378596267545,896.1024307534691,0.8329827417152833,1494.906576,1347.182592,89.074785194374,61.817193515907725,923.4773484628319,1327.6138614755116,1321.623571796732,112.0,938.764764246592,1124.7138235802054,0.834669890744565,836.488688562814,715.690752,83.83509194764613,77.9866690880549,320.40489974276835,428.99626788176744,427.91178397417843,199.0,303.34617012291847,399.1355034248715,0.7600079860598438,880.7473493333333,715.690752,83.83509194764613,76.45842716845465,433.09021000498865,599.5639747987157,597.9674313641003,189.0,423.95575233533214,534.1020689299206,0.7937729078352611,862.4935182590674,715.690752,83.83509194764613,78.57453549183845,539.6513695942051,769.4437491620099,767.4374988158363,193.0,544.0788927740581,659.1178048184408,0.8254653247061485,truth
1783422612229398063,1783422622229398063,1285.0049339076922,1073.536128,22.2686962985935,67.13969613542032,770.1491137180029,1094.7764731198026,1090.6374019592274,130.0,774.1238680265045,941.6078977988091,0.8221297525606668,1508.2419787155964,1347.182592,59.38319012958267,58.466385336748885,880.9430445574893,1216.510469866309,1210.869394899219,109.0,860.2028026269003,1087.2657746314148,0.791161482958029,861.4028587772021,715.690752,83.83509194764613,77.12987060556382,374.6560679117764,503.2242580609205,501.9120674101155,193.0,355.833285332446,466.2892610504624,0.7631170499848532,886.125646451613,715.690752,83.83509194764613,76.23831577103596,440.3974942965429,608.0389117604316,606.3933365868163,186.0,429.94843773108994,543.573432400485,0.7909666148185103,867.4703696842105,715.690752,67.86650300523733,78.56226115916306,558.7423332556447,771.4508881510286,769.4078219464074,190.0,545.4981543639772,689.6389430250231,0.7909909379119621,truth
1783422613229398063,1783422623229398063,1315.106816,1157.73504,29.08564414510172,64.07282344312448,755.8310531109007,1043.7315431614113,1039.5548350639854,126.0,738.0296519077336,932.8543713495377,0.7911520539267497,1569.9919770566037,1389.2820479999998,22.2686962985935,57.930238789948895,950.0107857124979,1366.4407636141648,1359.9523807212925,106.0,966.2195300413001,1156.827945644269,0.8352318369203867,855.877600329897,715.690752,83.83509194764613,77.39126961467518,368.2994849030846,500.1617951657611,498.8643564169676,194.0,353.6677970521466,456.8901025672319,0.774076293325054,870.1292826947367,715.690752,83.83509194764613,76.74072825068849,398.3808999789419,542.3092538605861,540.8726705320994,190.0,383.47055090503727,493.8520539902178,0.7764887233062576,847.818275446154,715.690752,83.83509194764613,79.29670517673279,525.2419430374457,724.940083927046,723.0692676884223,195.0,512.6100492987591,648.3622954263029,0.790622855330775,truth
1783422614229398063,1783422624229398063,1344.4444160000003,1305.083136,178.149570388748,62.79404403563487,762.9248166285483,1063.9355701974382,1059.5985726304827,123.0,752.3160564321846,938.6792994801639,0.8014622852009347,1541.396120150943,1347.182592,12.612358965575082,62.0910647425556,1011.0978865827244,1420.509538392268,1413.7909396527825,106.0,1004.4519273373452,1241.0382892313396,0.8093641719623907,852.5679576615385,715.690752,83.83509194764613,77.53191944383173,364.9512266117998,493.01302427585944,491.7407304792854,195.0,348.6128526787482,453.44606634583045,0.7688077558773463,883.1975822222223,715.690752,83.83509194764613,76.21781744448823,416.15118614901075,562.3428928798467,560.8453506581861,189.0,397.6364729073999,517.0166701116498,0.7690979728400832,860.4347579381443,715.690752,83.83509194764613,78.90966832447221,545.9721205972057,760.1436529320528,758.1718427201165,194.0,537.502731664168,672.0985937089872,0.7997379204410328,truth
1783422615229398063,1783422625229398063,1375.36487246281,1347.182592,89.074785194374,62.281116317504356,797.0482296921208,1148.159220140268,1143.3962171549804,121.0,811.8711704430415,970.0537934632339,0.8369341740776485,1498.586140183486,1347.182592,44.537392597187,62.69201893936665,940.7467438771823,1403.7326351153815,1397.2326797419153,109.0,992.5888652629478,1130.2179190355498,0.8782278607916205,863.9068780206186,715.690752,83.83509194764613,77.45445373256192,406.37021439298195,559.4040238949597,557.9530791056565,194.0,395.5583787191674,502.036140934224,0.787908173270324,882.0943912421053,715.690752,83.83509194764613,76.82337559828382,455.1854748001109,621.4543431747085,619.8082637161496,190.0,439.4345802566682,563.7696850446357,0.7794576258953628,877.476096,715.690752,83.83509194764613,78.42630065199987,606.4543784745083,845.1239202607757,842.8970923820214,191.0,597.5928549593535,746.3345203007623,0.8007037577714241,truth
1783422616229398063,1783422626229398063,1407.324672,1347.182592,14.54282207255086,61.258862643392625,818.5358096769463,1130.3942410993595,1125.7844376856276,119.0,799.3094332955783,1010.224706869387,0.7912194463869134,1641.0533044705883,1368.23232,5.91367868510367,62.63284683220236,1321.498064202874,1601.130371622855,1595.4076477992642,102.0,1132.1701433382575,1688.7301888254979,0.6704268987609414,854.7269041230769,715.690752,83.83509194764613,77.39933437483482,366.356158594608,489.55035340283905,488.3009314773964,195.0,346.1643746234183,456.63856905783155,0.7580708202937144,876.1536,715.690752,83.83509194764613,77.31700071270927,449.9266364852616,619.2228613277338,617.6013530878483,191.0,437.8566843105777,555.8855263812461,0.7876741946511483,883.6383144385026,715.690752,89.074785194374,79.05569832503835,687.1622236981647,985.3625607731616,982.7101929006274,187.0,696.7565486500441,837.6449124254574,0.8318041909101298,truth
1783422617229398063,1783422627229398063,1375.36487246281,1347.182592,43.18777463969649,61.581057346542906,774.3780472907761,1088.7901142864307,1084.2551225945185,121.0,769.8908731008112,950.2403601246298,0.8102064545015066,1711.9013485714286,1368.23232,35.6299140777496,61.42722481996807,1560.0410463950973,2217.8016373821883,2206.3646417066448,98.0,1568.222577119574,1907.300476375246,0.8222210378198631,857.1017452307693,715.690752,83.83509194764613,77.36232131188794,371.82303839008483,505.7564782829189,504.45148480541786,195.0,357.6238354228788,461.0394125494954,0.7756903763286955,862.7116501554405,715.690752,83.83509194764613,77.66923604921705,407.1530901391187,573.5212462762531,572.0257935879456,193.0,405.54076239649856,499.3151536225393,0.8121939810043696,903.4315692972974,715.690752,83.83509194764613,78.02942766490625,685.6523041485854,968.0022732455791,965.3683570281656,185.0,684.4809716159423,840.2267932626145,0.8146383537212512,deceptive
1783422618229398063,1783422628229398063,1355.3308738064516,1094.585856,57.007862524399364,59.59646263884446,726.385911956316,1012.8182646699273,1008.6955603152536,124.0,716.1706630576971,893.7688609841847,0.8012929229477483,1657.7181832871286,1347.182592,178.149570388748,65.31783211411923,1549.6243211647875,2195.7342321165393,2184.7305721846747,101.0,1552.6185652130416,1896.6704692615306,0.8186021717402255,869.320704,715.690752,83.83509194764613,77.07029771947946,406.7900661617884,508.96610908044295,507.62495758176954,191.0,359.89338712491326,515.9405884476458,0.6975481192665128,838.5871437575757,715.690752,83.83509194764613,78.97114664346942,388.0880494277868,534.0975648045753,532.7402625727334,198.0,377.6640098885367,479.4889112740609,0.7876386731969194,897.5148889945947,715.690752,83.83509194764613,78.63447863559558,690.260459260508,964.4339561505328,961.8096412013238,185.0,681.9577904006112,848.7554355013068,0.8034797326485708,deceptive
1783422619229398063,1783422629229398063,1398.480248470588,1347.182592,89.074785194374,58.8060272901383,759.2586916965162,1031.1639049612736,1026.879543151146,119.0,729.1429897129171,941.871951015458,0.7741423756454453,1628.2583717647058,1347.182592,178.149570388748,67.80417180486174,1550.2116129209492,2182.81903974415,2172.111549789947,102.0,1543.4861451061963,1901.3514534673877,0.8117837143109063,883.4203306666667,715.690752,83.83509194764613,76.16171166762155,403.6281023685668,518.0316501349712,516.6520693896792,189.0,366.3036926796952,508.66697593603436,0.7201247771307222,851.8696045714286,715.690752,83.83509194764613,78.731565380645,425.474331918379,597.0005439337152,595.4678057334954,196.0,422.1431329875874,522.450382216813,0.8080061712202963,927.5913472000002,715.690752,83.83509194764613,77.96665249390502,750.8845892302438,1063.0575119791586,1060.0839187083013,180.0,751.6951755117625,919.3108909629616,0.8176724358441738,deceptive
1783422620229398063,1783422630229398063,1384.3704447999999,1305.083136,43.18777463969649,58.57359689215762,750.9825076766497,1008.441922059816,1004.2138415714303,120.0,713.0761215212917,934.7249200329979,0.762872697880055,1578.9300736,1347.182592,43.18777463969649,68.61564378387037,1509.4975643523892,2116.92506773887,2106.7248654961886,105.0,1496.8920706619465,1853.8670011536117,0.8074430742499169,873.7290239999999,715.690752,83.83509194764613,76.68787939525532,396.45358472327473,529.7308334826989,528.3351517342018,191.0,374.57626455921826,494.16313166230924,0.7580012359464896,854.017536,715.690752,49.144709072758076,78.61668016068276,426.5069633522738,597.3447229302064,595.8187676082867,196.0,422.38650428994833,524.0335867793345,0.806029451062287,913.0030375384616,715.690752,95.01310420733228,77.56334452402042,642.4080730604912,893.8467913429362,891.3741813742502,182.0,632.0451275004272,790.9713920667873,0.7990745731636513,deceptive
1783422621229398063,1783422631229398063,2004.85824,1683.9782400000001,34.76089178317035,47.82218115274326,1420.6966106116342,2037.674288677255,2025.0572558985798,82.0,1440.8533073731617,1731.6837448341084,0.8320533767620439,1684.4122550103093,1347.182592,89.074785194374,67.82716687532005,1621.0738755236328,2298.3210442397344,2286.3435107373575,97.0,1625.1583957256635,1983.7316134526905,0.8192430794088474,864.5737240000002,715.690752,89.074785194374,76.80019459413485,369.6063659895397,493.9476394541117,492.67675025284063,192.0,349.2737254090902,460.6752260860301,0.7581777912751577,842.6302284670053,715.690752,89.074785194374,78.7283254170315,381.11949155528345,530.618729902357,529.2844745332699,197.0,375.20410213854973,469.1642298341999,0.7997287053856277,912.0777747692308,715.690752,89.074785194374,77.15012612310744,630.9143943456771,871.0206525654004,868.7088400153922,182.0,615.9046099825264,778.7404584881161,0.7908984351195428,deceptive
1783422622229398063,1783422632229398063,2046.241460148148,1683.9782400000001,36.54350161820472,46.581438925123294,1426.9430203479965,2026.9040937251027,2014.1961057938438,81.0,1433.2376294877936,1745.0638141196528,0.8213095807105663,1691.6326865454548,1347.182592,59.38319012958267,69.74950296557901,1669.6590008162789,2353.1637415138143,2341.149721509579,99.0,1663.9380388667264,2047.2365421269244,0.8127727327190146,863.9068780206187,715.690752,83.83509194764613,77.21970883082876,402.12214756823437,550.9909488090036,549.5618304611833,194.0,389.6094362752563,497.5004389067574,0.783133854376916,855.0915017142858,715.690752,41.91754597382307,78.20806314721231,401.2297874685254,539.9078193947458,538.5372834941234,196.0,381.77248030966655,499.09475186900005,0.7649298632774891,886.7615573333334,715.690752,83.83509194764613,77.27922799209648,492.2565221049136,680.2000840325816,678.3887770334536,189.0,480.9740919830979,607.4248336462445,0.791824873368958,deceptive
1783422623229398063,1783422633229398063,1957.8723478588236,1683.9782400000001,29.691595064791336,49.355497720577276,1372.975685058584,1957.4919854065513,1945.8085243622202,85.0,1384.1558569992908,1676.9557970594979,0.8253979379935805,1734.4975871999995,1389.2820479999998,25.449938626964002,65.97936556956707,1636.8941568941643,2277.2967232831666,2265.253064168711,95.0,1610.2919558074316,2015.520992269605,0.798945762402673,860.3121992953368,715.690752,83.83509194764613,77.92544449080134,432.3042290105621,579.1324595159109,577.6223331919481,193.0,409.5084893289443,538.4471110746124,0.760536143488007,851.4884844307692,715.690752,83.83509194764613,79.27096832005903,469.07315132475196,660.5127471269626,658.8081952604839,195.0,467.0530425536306,575.3172779503199,0.8118182096279086,902.392687304348,715.690752,83.83509194764613,76.96103930954001,529.9612038679776,741.381914015691,739.3535055250229,184.0,524.236178849557,651.3877260150055,0.804798982100379,deceptive
1783422624229398063,1783422634229398063,1996.9344370120484,1683.9782400000001,43.18777463969649,47.78115489491945,1443.6685706569792,2063.8822563911135,2051.3207484618156,83.0,1459.385139064749,1761.6626781946686,0.8284134965953356,1781.1652820425531,1389.2820479999998,25.449938626964002,63.31976106248984,1676.7995420519665,2283.7129588490025,2271.4039584298043,94.0,1614.8289194857248,2078.335196460776,0.7769819431608712,884.3113244444444,715.690752,83.83509194764613,77.06358725338008,464.4457677359557,618.7023137474395,617.0547974204777,189.0,437.4886015866213,579.4148807862755,0.7550524090664398,875.0515200000001,715.690752,83.83509194764613,78.36678697928663,498.97132601270636,691.7509524274749,689.9282959225264,191.0,489.1417893537203,615.0731040451024,0.7952579719984835,913.3051383606559,715.690752,83.83509194764613,76.49858262260527,537.8961381328753,749.6965173834587,747.6342177751953,183.0,530.1154912737821,661.931487234367,0.8008615717748545,deceptive
1783422625229398063,1783422635229398063,1851.4082604137932,1641.878784,44.537392597187,52.553365703325014,1419.6129035972644,1962.311971477724,1950.8728311183163,87.0,1387.5641018354418,1751.552032846445,0.7921911971867105,1723.8619351578943,1389.2820479999998,89.074785194374,63.28817366262992,1654.52387350383,2275.023259100545,2263.0712443674315,95.0,1608.6843738671153,2044.74100771372,0.7867423638487246,890.167107080214,715.690752,41.91754597382307,76.24044812945422,424.4109166456252,536.976702325868,535.5450942341247,187.0,379.69986755381143,536.8083993621641,0.7073284769854028,880.7473493333334,715.690752,83.83509194764613,78.19700585860525,502.2533455715022,693.3931561767218,691.5465665968586,189.0,490.3030027609028,619.9341328055383,0.7908953174460901,899.790535264865,715.690752,83.83509194764613,77.124788922443,515.5293288315391,711.3539944285563,709.4183337129075,185.0,503.0032332845698,636.4234843432703,0.790359321519416,deceptive
1783422626229398063,1783422636229398063,1801.5821551304348,1641.878784,44.537392597187,53.62678415197936,1359.4807123382466,1827.282887473552,1817.2189054353703,92.0,1292.0841208786835,1691.6367596874904,0.7638070723394428,1533.2857946915888,1347.182592,59.38319012958267,66.337637258381,1113.2768906630774,1497.449302705284,1490.3826718768203,107.0,1058.8565564259734,1384.9845728475693,0.7645258851143251,897.3590566956522,715.690752,43.18777463969649,76.36139386738697,455.6805243268754,582.5670624441782,580.9848287731909,184.0,411.9371203502053,574.8420521677432,0.7166092299559166,870.0554240000001,715.690752,83.83509194764613,78.18753034412507,445.8137549389815,553.0725167635092,551.5996179653793,189.0,391.08132709138783,566.5928926361572,0.6902333795113881,887.7100345806452,715.690752,89.074785194374,77.59310190557777,506.26022740857417,712.7438778880668,710.814969295371,186.0,503.98602930384857,620.9652782924603,0.8116170854024511,deceptive
1783422627229398063,1783422637229398063,1779.6172215652173,1662.928512,25.912664783817892,51.635905349911575,1165.0087834365197,1539.0885384743076,1530.6120731593996,92.0,1088.2999424016755,1456.8090295755082,0.7470436552131952,1498.6619430280375,1347.182592,158.35517367888713,68.0614728694235,1109.7089796714888,1486.7554696060315,1479.7259068374262,107.0,1051.294874524615,1382.1351534948421,0.7606310221300208,916.2414572307694,715.690752,83.83509194764613,75.93454189422442,506.30521587819135,655.3647254584135,653.5518181805802,182.0,463.41284152210426,636.6429237862684,0.7279007182960219,891.7430225454547,715.690752,83.83509194764613,77.98262406676133,544.7609136051165,733.8724596976645,731.897025536547,187.0,518.9261927782699,677.4117722686012,0.7660424781819557,896.5373398709679,715.690752,83.83509194764613,77.53690176483221,536.0060656452845,762.9966210513512,760.9316737710544,186.0,539.5200847678329,655.0298038128717,0.8236573078466557,deceptive
1783422628229398063,1783422638229398063,1776.504516923077,1641.878784,178.149570388748,54.2403489349435,1193.1351885087133,1499.5747253310074,1491.2956086934275,91.0,1060.3594571775097,1511.60909857759,0.7014772920957528,1578.1281792,1347.182592,45.97408268096723,66.90814903242905,1327.5600115119519,1839.4490482791066,1830.586375111452,105.0,1300.6868956852973,1636.7461525928509,0.7946784500606979,913.4656689230769,715.690752,83.83509194764613,76.24631876373,523.9226518574656,665.3840419114309,663.7209709063253,182.0,470.49756812888677,662.0467577528946,0.7106712065562256,902.5213107891893,715.690752,83.83509194764613,76.88015048455645,510.40551930676554,671.5753271058641,669.7479078624787,185.0,474.8754678741303,638.9634052770792,0.7431966587635891,918.5124405745856,715.690752,83.83509194764613,76.53866522931105,557.9742831647743,791.9590221309473,789.7560720440997,181.0,559.9995949706599,682.5473083697832,0.820455356139606,deceptive
1783422629229398063,1783422639229398063,1751.7805217684206,1599.7793279999999,178.149570388748,54.743774411947626,1193.5722973090692,1511.6716593865945,1503.6776533081534,95.0,1068.9132812797818,1509.2852137217612,0.7082248415088743,1651.0489625346534,1389.2820479999998,178.149570388748,63.6651302616072,1348.2426071209368,1878.013606887846,1868.651590596874,101.0,1327.956156591003,1659.4524634344145,0.8002375397018939,901.3834876540542,715.690752,83.83509194764613,76.49915004123054,490.02481212296505,634.364245591667,632.6728761160927,185.0,448.5632598001562,616.1526872221067,0.7280066598791949,896.5373398709679,715.690752,83.83509194764613,77.30609198908559,528.31892457894,701.3150728563179,699.422389297686,186.0,495.90464376504,659.7583377893983,0.7516458911707424,887.9157992727274,715.690752,83.83509194764613,77.30368041554006,479.6646404662808,665.0117001188079,663.2271865920884,187.0,470.2342827224038,591.2666017149675,0.7952999228410506,deceptive
1783422630229398063,1783422640229398063,1793.0746797419351,1641.878784,20.073191029718085,51.786702454440665,1169.3207567022177,1571.2813655010862,1562.9211185424076,93.0,1111.063708697876,1455.1256927552874,0.7635517084397512,1691.3564951752578,1641.878784,89.074785194374,62.73648711836766,1373.1890575058476,1948.9501192570629,1938.7759386685777,97.0,1378.1158455209995,1679.790086132659,0.820409560038423,912.3090904615384,715.690752,49.144709072758076,76.03482543060723,501.85069998551876,639.9425389194654,638.1783970048539,182.0,452.5077088396901,633.5034623995653,0.7142939789558451,902.392687304348,715.690752,49.144709072758076,76.93586148591855,531.2024514617825,703.2771906042391,701.3584690634218,184.0,497.29207053008156,663.8541911986148,0.749098336838397,886.125646451613,715.690752,89.074785194374,77.7287194056596,507.43158583640826,714.5255718243342,712.5918412268603,186.0,505.2458771681822,622.3639854708669,0.811817343167639,deceptive
1783422631229398063,1783422641229398063,1276.13976,1052.4864,44.537392597187,67.20321904218197,742.417895368812,1053.9579314403513,1049.804529546325,128.0,745.2608004068187,908.1089320209368,0.8206733511014914,1533.2857946915888,1347.182592,19.79439670986089,66.12781743435342,1145.7404522741303,1528.927528624432,1521.9107979254798,107.0,1081.115023433125,1428.6488445409718,0.7567395077973061,897.5148889945946,715.690752,43.18777463969649,76.51005600766157,478.2604684076938,599.5472042924986,597.9269871453114,185.0,423.9438937966621,606.3018544746136,0.6992290897147718,897.3590566956523,715.690752,83.83509194764613,76.82151260607989,515.6082740268744,692.9601992911813,691.0642718004177,184.0,489.9968560111757,641.6037133928749,0.7637063903823366,893.4694330434784,715.690752,32.39083097977237,77.56235797876208,520.2471512119364,728.7365467370003,726.7692793511121,184.0,515.2945538962003,639.1791282971689,0.8061817588897056,deceptive
1783422632229398063,1783422642229398063,1304.420152440945,1305.083136,45.97408268096723,64.9806494424359,718.0842616250662,1001.2466050138767,997.2780830544682,127.0,707.9882640453209,883.5532369779875,0.8012966671559594,1529.4848234862386,1347.182592,22.2686962985935,65.49239223980095,1071.2798163104378,1431.3677888019238,1424.739326610191,109.0,1012.1298698338344,1335.3192326044448,0.7579684656078437,904.7969570594596,715.690752,83.83509194764613,76.53877075738235,512.7844880814315,667.0606783660799,665.2455439039411,185.0,471.6831291355536,643.9358471760349,0.7325001880297681,885.6478151111111,715.690752,36.54350161820472,77.14081417733941,472.67234595880547,606.0688114775876,604.4748533610907,189.0,428.55536646147345,595.8258488912154,0.7192627967701988,895.1199842566846,715.690752,16.195415489886184,77.70592422615076,539.6851348864164,734.2763716607456,732.4761584706699,187.0,519.2118016663669,669.126028592463,0.7759551705955193,deceptive
1783422633229398063,1783422643229398063,1344.488226816,1305.083136,59.38319012958267,64.1337962483461,792.488807795311,1082.4464456475223,1078.0865925218545,125.0,765.4052219886387,981.4043224063811,0.7799081423565392,1434.2849147586205,1347.182592,44.537392597187,70.04429873300874,1008.8562340567476,1399.7371622058831,1393.6681111549271,116.0,989.7636392745943,1243.2882896477718,0.7960853870464734,924.7924699226519,715.690752,83.83509194764613,75.7294914163487,540.2107485441982,728.9190943297026,726.8915366687088,181.0,515.4236345368894,671.4346909162181,0.767645225231897,904.7969570594596,715.690752,83.83509194764613,76.25821385443908,508.80551536340704,700.5916135047923,698.6852756969714,185.0,495.3930807516635,628.537152999035,0.7881683340243597,919.7111926153846,715.690752,83.83509194764613,76.20847082664866,544.3030200706102,762.059556195823,759.9515391868467,182.0,538.8574798540773,668.8406862016025,0.8056589423623288,deceptive
1783422634229398063,1783422644229398063,1307.403578456693,1305.083136,44.537392597187,64.6839202256578,759.8535223660615,1047.041835160325,1042.9069442437533,127.0,740.3703818278731,938.4458427422684,0.7889324541780787,1418.5376021694915,1347.182592,43.18777463969649,69.6673934495282,971.520642450794,1396.1997171057355,1390.2249041642508,118.0,987.2622878562049,1183.3686259591611,0.8342812765176995,898.1975828756757,715.690752,26.392528946481185,76.8309385157177,510.25156111581236,686.6688373464091,684.8584817765814,185.0,485.54819131712827,634.6926722411248,0.7650130725515366,882.0943912421054,715.690752,41.91754597382307,76.72889620695295,455.06184789429557,626.3284008672198,624.6835866454253,190.0,442.88105950293743,562.219489509853,0.7877369386270197,922.4665331270719,715.690752,16.195415489886184,76.18886687880313,566.7255522729213,764.2888974785792,762.3437978831272,181.0,540.4338621926934,704.5007618844991,0.7671160791183019,deceptive
1783422635229398063,1783422645229398063,1342.0899158709674,1305.083136,43.18777463969649,64.16731097115799,769.2943584246187,1059.2625575450663,1055.0366593779877,124.0,749.0117374971219,950.325380253344,0.7881634575490822,1527.827530472727,1347.182592,59.38319012958267,65.46159578354958,1114.5086770233204,1499.2156191596378,1492.3354324217855,110.0,1060.1055307685683,1386.4874013626988,0.7645980264419651,875.5791114893617,715.690752,83.83509194764613,77.23184390150729,457.85898469030786,635.2964666702829,633.6045352622779,188.0,449.2224396464105,564.2422348445238,0.7961517445963492,889.0414531764707,715.690752,83.83509194764613,76.25035590245687,462.0786038744895,653.030396267493,651.2735556349666,187.0,461.76222152168253,566.0575038853165,0.8157514357679742,913.4656689230769,715.690752,83.83509194764613,75.80682879122811,509.5588003200988,690.260362529034,688.3519073663394,182.0,488.0877831285645,632.6021656204144,0.7715556627124098,deceptive
1783422636229398063,1783422646229398063,1355.739392,1305.083136,59.38319012958267,60.61811182134461,728.8045208976966,1010.5811502625312,1006.4323810996581,123.0,714.5887842899372,898.3281661204645,0.7954651888251179,1564.3685706168224,1347.182592,178.149570388748,67.50907735593611,1165.5350681533964,1589.7240972663224,1582.233998540674,107.0,1124.1046893926793,1444.0008011886207,0.7784654194564015,859.5667279175259,715.690752,83.83509194764613,77.61035894171805,415.1647612364136,574.224336710305,572.7347769075591,194.0,406.0379224102041,512.1427151950705,0.7928218255638917,877.6628695578945,715.690752,83.83509194764613,76.18999376940212,399.11539089457875,567.1553989377711,565.652997890813,190.0,401.0394285754596,488.02651450694685,0.8217574591836054,916.2414572307692,715.690752,83.83509194764613,75.36119328694306,504.2121429237111,673.6497649290628,671.7862765322828,182.0,476.342316926064,628.4972304602435,0.7579067875561557,deceptive
1783422637229398063,1783422647229398063,1346.845796352,1347.182592,61.96506796130366,61.320880277500386,716.3593976128196,1015.743517174688,1011.6451832642581,125.0,718.2391289404964,876.5887575857918,0.8193569934875674,1412.8292013559321,1347.182592,59.38319012958267,74.45657946058341,1044.3233218073874,1357.0280224404519,1351.2301584805725,118.0,959.563716927814,1311.8083463370217,0.7314816372431349,860.6517654432992,715.690752,41.91754597382307,77.49060205955247,413.59902093060884,569.9119312091825,568.4456533960367,194.0,402.98859123713413,510.8115091654371,0.7889183857574708,884.5364425531917,715.690752,41.91754597382307,75.85998333778454,404.71790080697656,578.0169052983314,576.474653039652,188.0,408.71967337691257,494.0316515817042,0.8273147521385429,903.4129164590163,715.690752,83.83509194764613,75.72881057952337,484.665860022738,655.444367045226,653.6710526607988,183.0,463.4691566282038,601.9968124253909,0.7698863965091913,deceptive
1783422638229398063,1783422648229398063,1361.4476969256198,1347.182592,33.93325150261867,61.656236902241005,738.3135951977669,1041.0991605166357,1036.7569802321755,121.0,736.1682762889351,905.1199170279002,0.8133378378262367,1360.873472,1347.182592,59.38319012958267,75.06271325616015,996.3059391547185,1288.5373470415389,1283.2723148156967,123.0,911.1334959051959,1253.063815258313,0.7271245764265966,862.8218404948454,715.690752,36.54350161820472,77.39227700603881,397.0902605715124,535.4509737595555,534.0876518877184,194.0,378.62101453832184,493.6440152138879,0.7669920081463392,882.5126605347593,715.690752,95.01310420733228,75.94092842349949,400.68556782943705,567.5646109634894,566.0368434252435,187.0,401.32878517378805,490.47472068299555,0.8182456062463932,884.5340728888888,715.690752,83.83509194764613,76.56630002627608,455.37502275582534,622.3680077475501,620.7107282781703,189.0,440.08063867185444,563.8238540828361,0.7805285914831097,deceptive
1783422639229398063,1783422649229398063,1407.2732685128206,1347.182592,89.074785194374,59.98610284451296,766.2778206424526,1040.816581203352,1036.4609638054133,117.0,735.9684625402891,950.5464785533295,0.7742582600067971,1361.2157439999999,1347.182592,21.926100970922835,74.69159395666168,992.1147397183476,1275.9794283202334,1270.752784996612,123.0,902.2537064197713,1249.6209177821495,0.7220219296753675,876.5944320000001,715.690752,83.83509194764613,76.72005159510793,403.78009006298043,561.5348238897008,560.0551949939768,191.0,397.06508184480117,497.23875819602785,0.7985400882371786,909.9431332173914,715.690752,83.83509194764613,74.48035041703679,421.61068514045604,595.0898643198864,593.4617530142641,184.0,420.7920784759741,516.6992868150143,0.814384864104958,895.3451150374333,715.690752,21.271590494178866,76.20912118685878,475.78685375562856,640.5149133451329,638.8950687166297,187.0,452.91243867745726,591.7612879016158,0.7653634124724241,deceptive
1783422640229398063,1783422650229398063,1391.7378496,1347.182592,34.76089178317035,62.00545181945061,768.3359510175143,1039.4184203676707,1035.0421441589056,120.0,734.9798135321894,954.2445200796651,0.7702216759608215,1427.4234354871794,1347.182592,11.222020181968379,70.761930023152,1048.7923373908634,1297.1245771640072,1291.916245775968,117.0,917.2055845564026,1333.903179308324,0.6876103144397677,891.5178917647058,715.690752,83.83509194764613,76.00503930488733,428.0112451326579,581.1258313347428,579.5615597723524,187.0,410.9180160594665,530.9994764205445,0.7738576671100611,906.0535095652175,715.690752,83.83509194764613,74.94237586300254,432.2087539799945,594.9671636810441,593.3393434932781,184.0,420.70531602219285,533.9591113270868,0.7878980002356056,916.0101415384615,715.690752,83.83509194764613,75.11340290187549,486.847555056407,662.596637600772,660.7637249951475,182.0,468.52657563891125,603.5582057174273,0.7762740547649271,deceptive
1783422641229398063,1783422651229398063,1345.12896,1347.182592,57.007862524399364,63.64686923575497,766.3279029903174,1029.4441058413315,1025.2312584882143,123.0,727.9269080929275,953.7180495514436,0.7632516847461248,1427.7832598974358,1305.083136,12.839608676666524,72.195646116174,1107.6372232600374,1423.6903320708682,1417.9596851726678,117.0,1006.7010881170386,1395.3483064433758,0.7214693875846914,889.9108411914893,715.690752,50.899877253928004,76.16365842994617,429.998117228736,584.718468863046,583.1602989033607,188.0,413.458394418075,533.219316682291,0.7754002555470558,907.9140923076922,715.690752,43.18777463969649,74.85498838687123,432.6343911463765,591.7814111090089,590.1561255430795,182.0,418.4526487753243,535.5312532165134,0.781378577369686,905.824708173913,715.690752,52.78505789296237,75.31130637654387,469.5629672734099,631.7343167854176,630.010102529002,184.0,446.7036193072194,584.129008625778,0.7647345238993255,deceptive
1783422642229398063,1783422652229398063,1336.57216,1305.083136,83.83509194764613,65.26834535984437,806.7183588583255,1069.4023091734134,1065.014072590549,123.0,756.1816246330734,1007.8113396473483,0.7503206154612978,1480.6871731891893,1347.182592,35.6299140777496,69.98815385874548,1163.1102327942237,1529.4252930634993,1522.5067468106022,111.0,1081.466996043423,1456.319125568182,0.7426030305146816,901.3834876540542,715.690752,41.91754597382307,75.61753021125638,442.13992075942014,618.7756053155579,617.1041173732172,185.0,437.54042655144167,543.373358405511,0.805229810742602,926.4219178666668,715.690752,83.83509194764613,74.38027800068774,470.9385361718152,654.6249043731722,652.793782172685,180.0,462.88970901586526,580.0282478870387,0.7980468377223133,931.5974593072627,715.690752,83.83509194764613,74.01636592341893,483.72755475009507,660.7892606136612,658.9304967047866,179.0,467.2485671151647,599.0192673974896,0.780022601184736,deceptive
1783422643229398063,1783422653229398063,1289.744574511628,1305.083136,59.38319012958267,67.43024383102446,731.8553689833918,971.6819748605814,967.9084615125817,129.0,687.0829135806536,913.8835249376111,0.7518276616569483,1491.5235840000003,1347.182592,178.149570388748,68.37185838600678,1178.0492106310028,1561.6304052820224,1554.6067682459961,112.0,1104.2394492820144,1471.7090421212117,0.7503109770192388,886.9997085957448,715.690752,41.91754597382307,76.25379413157472,420.92815315727916,587.2824588138599,585.7225839686764,188.0,415.2714090991896,517.8183548631532,0.801963478503839,921.3035647292819,715.690752,29.08564414510172,74.62102783855443,465.45411410181026,633.6621602120572,631.9438575666713,181.0,448.06681046726214,576.9862488373959,0.7765641059385708,917.3494721767958,715.690752,41.91754597382307,74.88305210450858,475.9289461525511,622.477601228367,620.7588223328564,181.0,440.1581329653139,596.7806402389409,0.7375543093842354,deceptive
1783422644229398063,1783422654229398063,1294.887174,1326.1328640000002,29.691595064791336,67.23478218330324,714.0948109415233,964.8675865840349,961.0613879739184,128.0,682.2644134206694,887.1980799782508,0.7690102456459269,1462.8612774054052,1305.083136,29.691595064791336,69.52178575246846,1174.2169906733543,1590.0837603142254,1583.4199113791974,111.0,1124.3590095727936,1457.9024285487076,0.7712169124322366,903.4129164590164,715.690752,43.18777463969649,75.64825032495688,452.75274308829813,620.4130843145516,618.7173746530004,183.0,438.69829905568076,560.1267659653332,0.783212525649653,917.3494721767955,715.690752,83.83509194764613,75.060504814458,470.4562888812611,635.033316128425,633.2668778913151,181.0,449.03636411378983,584.6720545293671,0.7680140698279868,902.3926873043478,715.690752,83.83509194764613,75.51591061578229,453.63021072009565,597.661738148013,596.0265456496683,184.0,422.6106679001987,567.6802337975057,0.7444519691537225,deceptive
1783422645229398063,1783422655229398063,1283.0618820923075,1305.083136,142.5196563109984,66.97979461578599,704.2092533456289,956.1545040492557,952.4432814780479,130.0,676.1033336752889,873.6495213137798,0.7738839399334596,1455.542930921739,1305.083136,18.040462824177016,66.68143195890684,1057.4389511412255,1499.3785765102928,1492.8887707151682,115.0,1060.2207590162607,1293.955270423519,0.8193643035815638,917.3980356923078,715.690752,83.83509194764613,74.87473117236274,459.7523377445935,622.2243261383586,620.5030937230616,182.0,439.97904043166335,570.923502856253,0.7706444702845614,922.4665331270719,715.690752,83.83509194764613,75.01258430681906,486.1690841433813,650.3167235146324,648.5077722399941,181.0,459.84336511621365,605.7993038399159,0.7590688239511885,907.4263179130437,715.690752,83.83509194764613,75.65670535077264,477.41251443229004,632.2008101459093,630.4711193254774,184.0,447.03347992580154,596.5952998355226,0.7493077468914786,deceptive
1783422646229398063,1783422656229398063,1295.6189172093023,1305.083136,34.76089178317035,66.77298729266012,709.7310039379882,970.4711936449326,966.6773895565959,129.0,686.2267619725349,878.6254102164326,0.7810231231572236,1355.8095297049183,1010.386944,89.074785194374,72.35574735034034,1028.8176780758877,1431.6676643728965,1425.7421254266376,122.0,1012.3419138835812,1266.693946515963,0.7992000882833804,907.4263179130437,715.690752,83.83509194764613,75.58640494280836,455.99645308206846,609.7278059941897,608.0596009364535,184.0,431.14266629648716,568.2636105683981,0.7587018740567295,908.4740532459017,715.690752,83.83509194764613,75.77410523072042,480.3585119677016,648.0448948384139,646.2620994528259,183.0,458.23693965356557,597.0745796030143,0.7674701876576964,902.5213107891893,715.690752,83.83509194764613,75.69853287004436,459.35083066670757,601.2521813512857,599.6161179612503,185.0,425.1494946366979,575.8735320132961,0.7382688576610634,deceptive
1783422647229398063,1783422657229398063,1308.0432540000002,1305.083136,44.537392597187,65.49157856075729,704.2839610873154,952.121863246636,948.3660017548399,128.0,673.251826017667,874.8701532636812,0.7695448558921777,1494.9065759999999,1347.182592,44.537392597187,63.7884991268896,1052.3118515844862,1529.0856243841413,1522.1822680245439,112.0,1081.2268140168924,1276.7908028709244,0.8468316121840029,920.3731900110499,715.690752,79.17758683944356,74.90575854822829,466.75313032347935,618.1166536913406,616.3973160028886,181.0,437.0744773894838,583.266594226764,0.7493562664409282,930.6566893407823,715.690752,79.17758683944356,74.86538678582518,522.2211273746616,701.8026334443026,699.8285411355911,179.0,496.2494011630433,649.8446565723116,0.7636431201582451,910.3144666229507,715.690752,79.17758683944356,75.58861496944927,497.5698409585853,684.1568233627378,682.2747219432609,183.0,483.77192919483883,614.9258927095652,0.7867158220695196,deceptive
1783422648229398063,1783422658229398063,1315.4409386666666,1305.083136,95.01310420733228,65.5922279939067,735.4703682077321,996.5502367621156,992.5976862855407,126.0,704.6674302075514,912.9924596761887,0.7718217415042793,1514.4217153761467,1347.182592,44.537392597187,62.677637315759085,1066.1572553517376,1530.023610439859,1522.9364658978677,109.0,1081.8900703175489,1299.2842353205262,0.8326815956869149,903.6591339243244,715.690752,83.83509194764613,75.48452727083806,439.5972020635548,575.5704144664074,574.0174120376862,185.0,406.98974311954845,551.063584917343,0.7385531438819262,918.5546141538463,715.690752,83.83509194764613,75.05193376875798,497.8228547268634,664.8487213874173,663.0567405258591,182.0,470.1190393562484,620.6039266667482,0.7575186349226772,881.8610915555555,715.690752,83.83509194764613,76.1373170879106,409.86889578036136,537.1535571322826,535.7242224985882,189.0,379.8249227867126,513.6648104274415,0.7394411979879345,deceptive
1783422649229398063,1783422659229398063,1317.984582193548,1305.083136,158.35517367888713,65.40440051978007,761.1707311228458,1066.3936658475054,1062.2167096269563,124.0,754.0541925351523,935.1272112371959,0.8063653623527011,1538.1893831111113,1199.834496,59.38319012958267,62.32852695873933,1088.507169001529,1580.7113832901136,1573.323482061077,108.0,1117.7317382232072,1320.997197052178,0.8461272595562199,891.7023074042555,715.690752,41.91754597382307,75.6461083818892,410.29837109384647,528.9248886430823,527.5226388124577,188.0,374.006375497863,516.4776105389305,0.7241482841968646,911.0871401739131,715.690752,41.91754597382307,75.14600181058111,477.5024723720028,635.3003089791482,633.5742084824855,184.0,449.2251565690646,595.9157671982679,0.753840024540922,874.5103928888889,715.690752,89.074785194374,76.36925143319787,397.22738558300966,530.9967069614975,529.5826460515694,189.0,375.47137228020085,495.06546639130215,0.7584277186957461,deceptive
1783422650229398063,1783422660229398063,1347.524864,1305.083136,57.007862524399364,65.03927999015542,855.5874457678605,1227.6976288240055,1222.6559229289373,123.0,868.1133185880992,1042.7125144334473,0.8325528912058606,1490.1690326486487,1052.4864,59.38319012958267,64.77974623035524,1066.8292326594442,1539.2121560764588,1532.2120001337664,111.0,1088.3873532464306,1297.6731899673707,0.8387222311911966,891.926240680851,715.690752,41.91754597382307,75.43234392614887,401.0066800387396,522.8730944176883,521.4872082319421,188.0,369.7271107627413,503.25306422803027,0.7346743359225992,916.2958100983607,715.690752,83.83509194764613,74.85844813851699,478.9199724412031,652.4571535433505,650.6622198714773,183.0,461.3568777041756,593.5516790505209,0.7772817329776379,882.5375434105263,715.690752,83.83509194764613,76.31951206399144,437.56119871917895,597.8885968815013,596.3047832466466,190.0,422.77108124901963,541.8043112405965,0.780302172718005,deceptive
1783422651229398063,1783422661229398063,1378.8441663471074,1305.083136,34.76089178317035,63.54437155872309,855.0833934633383,1237.123914197668,1231.9696867664056,121.0,874.7787088972157,1039.093992275779,0.8418667756718647,1476.088890902655,1052.4864,35.6299140777496,64.6154675863147,1025.023310765622,1521.0744516155025,1514.2955873952644,113.0,1075.562059426931,1234.069975076974,0.8715567845817201,876.5549891368422,715.690752,83.83509194764613,76.1449865644332,384.1174106784322,501.1464631117575,499.8189204801108,190.0,354.3640624339777,481.9807319802843,0.7352245409853296,900.2456645189189,715.690752,83.83509194764613,75.65405794314026,466.7585533889723,645.3799431279172,643.6238039730595,185.0,456.3525342275386,575.8457055284721,0.7924909916775871,885.8800422127658,715.690752,83.83509194764613,76.38062830769805,449.3479736300834,603.0253584626522,601.4108298399257,188.0,426.40332019639,559.3901206436093,0.7622646601369888,deceptive
1783422652229398063,1783422662229398063,1367.19708747541,1305.083136,158.35517367888713,63.80282685072928,840.4954061275208,1244.5510830937974,1239.4000332934163,122.0,880.0305103886866,1012.7379749152524,0.8689616980762759,1487.5141119999998,1010.386944,178.149570388748,65.62659721727428,1085.0399599370749,1526.8328540981704,1519.8799435489286,111.0,1079.633864871227,1331.0968365344825,0.8110858919040476,889.9108411914893,715.690752,79.17758683944356,75.54789324902028,399.1816718966961,514.8508813578604,513.511121505232,188.0,364.05454950801374,502.4183086311064,0.7246044645544868,889.9108411914893,715.690752,79.17758683944356,76.10107007559925,457.11404363170794,626.3279000568973,624.6558905730889,188.0,442.8807053765623,565.5394222980758,0.7831119952291064,871.371032,715.690752,27.407626213653543,77.14542889618885,438.32067417636927,586.1276485895777,584.642169799008,192.0,414.4548349586161,546.2267127398356,0.7587597334442674,deceptive
1783422653229398063,1783422663229398063,1392.7903359999998,1305.083136,43.18777463969649,61.08349785611927,828.5908241692956,1219.5908367183522,1214.4688858186255,120.0,862.3809509165224,1000.6373246802573,0.8618316843138815,1489.2682560000005,1199.834496,44.537392597187,64.70267315162809,1061.002685725275,1492.0884917716262,1485.3800573312453,112.0,1055.065890662125,1301.8722600213746,0.8104219769186898,905.2520863135136,715.690752,41.91754597382307,74.68951376124366,410.43154480584485,542.4682270742667,541.0177145322418,185.0,383.5829619424578,513.1667970525275,0.7474820353647986,895.5702458181821,715.690752,41.91754597382307,75.91924879669983,465.79289257162407,634.2805268843226,632.5848763224518,187.0,448.5040617344808,577.363049427583,0.7768146267398697,881.4296629894736,715.690752,20.073191029718085,76.09931867354145,425.924543461147,556.0065404561318,554.5949150786225,190.0,393.1559951406033,534.3571981246945,0.735755027761147,deceptive
1783422654229398063,1783422664229398063,1455.9090131478263,1305.083136,95.01310420733228,60.864005408502,942.5275298840688,1289.6657590335346,1284.1575088259995,115.0,911.9314036767083,1166.5791214799117,0.7817141477037927,1463.7943595044248,1094.585856,22.2686962985935,65.39627905402514,1043.5627102063338,1425.4986299918353,1419.1237140762341,113.0,1007.97974783936,1292.298214128313,0.7799900493705063,909.2567290434782,715.690752,83.83509194764613,74.23800334477858,404.47766908671883,554.236578038882,552.7340319651533,184.0,391.9044427129206,500.4096556528341,0.783167227661989,924.327282563536,715.690752,83.83509194764613,74.92526083823518,526.3989113534337,702.4176440783928,700.4637664574747,181.0,496.68427935291027,656.3870741186182,0.7566941808228731,899.479774967742,715.690752,83.83509194764613,75.08549832080774,439.31472722558954,594.7773032449594,593.1676188232569,186.0,420.5710644203583,545.4858834110667,0.7710026550832386,deceptive
1783422655229398063,1783422665229398063,1460.1863949473684,1326.1328640000002,35.6299140777496,61.450584144264305,945.1688733624642,1299.4137234461912,1293.6822287536093,114.0,918.8242554156628,1168.147846882605,0.7865650378654523,1474.5888404210527,1347.182592,44.537392597187,64.33047007629312,1021.5404258043751,1387.5138762384559,1381.3736526929624,114.0,981.1204708786441,1267.1980878760044,0.7742439641170348,904.1142631783786,715.690752,83.83509194764613,74.60854818276606,403.3281085742389,551.6202577053181,550.1192474190765,185.0,390.05442486330134,499.2753740716897,0.7812410647902182,920.1405963314918,715.690752,83.83509194764613,74.93823920536067,516.3004805542566,694.66418651073,692.7318762683565,181.0,491.20175692917377,642.2560154922327,0.7648067827791553,904.1142631783786,715.690752,83.83509194764613,75.16442637907784,455.3978803704751,612.2659184723279,610.5998856740309,185.0,432.93738284119297,566.6189814691635,0.7640714430685804,deceptive
1783422656229398063,1783422666229398063,1515.9631383272724,1326.1328640000002,178.149570388748,61.77524099690169,1027.7865405410578,1429.6856788904652,1423.1275235721462,110.0,1010.9404385087407,1265.5789429066003,0.7987968227307556,1487.1348376216215,1347.182592,178.149570388748,63.51261573202332,1009.7514595717603,1395.8195492914372,1389.4907899511443,111.0,986.9934686167256,1245.8402653103499,0.7922311520175958,912.0777747692306,715.690752,83.83509194764613,74.08590357938436,398.292512595887,546.0410567171721,544.5306164819905,182.0,386.1093340109806,492.6800607642734,0.7836918210410744,921.0990867692307,715.690752,83.83509194764613,74.7150673881153,495.77617835592196,650.6753571735817,648.875421893724,182.0,460.0969574084185,621.082468712621,0.740798493897448,912.15488,715.690752,83.83509194764613,74.9461417977648,468.2454336331256,639.5654593523738,637.8060331523675,183.0,452.24107332075266,579.8677246039775,0.7799038541584844,deceptive
1783422657229398063,1783422667229398063,1472.003786105263,1305.083136,19.523240590547726,67.92225326179725,1055.3650439946043,1449.3424553249079,1443.1183833155608,114.0,1024.8398784218032,1304.7767487082447,0.7854522847961656,1556.9002524444443,1347.182592,83.83509194764613,61.71939782461089,1071.9087226695528,1464.094947633221,1457.237375472688,108.0,1035.2714657724136,1327.434787682191,0.7799038230571625,920.8677710769231,715.690752,36.54350161820472,73.53524644768619,401.2018422319347,544.0025716218101,542.5218532564993,182.0,384.66790737670243,497.93688047563893,0.7725234311008661,914.6854483934426,715.690752,83.83509194764613,74.78643122661653,467.45105104061304,616.7834446967819,615.0866507124905,183.0,436.13175626869236,584.7354237815088,0.7458616983527521,906.968715130435,715.690752,64.78166195954473,75.22086699424011,462.45206332841997,606.210828661671,604.5533402702019,184.0,428.6557877753839,579.5264701087937,0.7396655888641513,deceptive
1783422658229398063,1783422668229398063,1451.6926450526314,1305.083136,34.76089178317035,67.55421568705579,1019.292780607035,1409.8767246940552,1403.6529485010008,114.0,996.9333926682457,1257.3692578104226,0.7928724091793855,1578.9300736000002,1347.182592,57.007862524399364,61.03561507006824,1075.7582385429769,1470.7690952141834,1463.6810661032448,105.0,1039.990800785552,1331.8112263856653,0.7808845429302544,933.9929873258427,715.690752,41.91754597382307,72.83287034142683,408.3518744674223,549.3807369718866,547.8415377287625,178.0,388.470844566084,507.98396453349943,0.7647305263323247,904.5631748196721,715.690752,83.83509194764613,75.57786735198208,467.56954331591464,609.8291415644344,608.1525789099607,183.0,431.2143213653826,586.7449703218616,0.7349263192300363,919.6392277333335,715.690752,41.91754597382307,74.65926378020878,474.33913924493766,626.3256297232946,624.5864640321652,180.0,442.8791000082763,593.2320704641535,0.7465528619546161,deceptive
1783422659229398063,1783422669229398063,1450.0516975304347,1305.083136,25.449938626964002,66.15547049449194,984.2947663641775,1298.199793823764,1292.7668598887385,115.0,917.9658775477612,1231.3982694533909,0.7454662722201485,1651.4657888316833,1389.2820479999998,89.074785194374,60.60449351443222,1231.6358455657978,1664.8987685098907,1656.553412217159,101.0,1177.2612092024758,1529.9940309748654,0.7694547726126494,921.5361584088397,715.690752,75.01034542684128,73.8878574519679,422.6727382878697,578.3181085617595,576.7096216923775,181.0,408.9326562469981,523.1553581020836,0.7816658090448207,901.611052281081,715.690752,40.7199018031424,75.72962325911614,463.78979160410364,594.5153822762799,592.9119540125469,185.0,420.3858583272701,584.6706822234017,0.7190130634370364,891.9681533262033,715.690752,79.17758683944356,75.44438643252968,412.5863228709038,517.2526454612126,515.8603570714948,187.0,365.75285319230454,523.0366840204534,0.699287190299642,deceptive
1783422660229398063,1783422670229398063,1425.264489025641,1305.083136,178.149570388748,66.67801398653975,920.5830782946148,1211.9403432849285,1206.7610404012248,117.0,856.9712351303252,1152.2788547762127,0.7437186160087612,1667.9804467199997,1347.182592,178.149570388748,63.2916193318674,1341.0794959800623,1862.4820385661912,1853.1297576770457,100.0,1316.9736793082989,1652.2041620456164,0.7971010541928039,899.6470706086957,715.690752,83.83509194764613,75.19998703654369,414.84020369312935,571.3887171042564,569.8254071511334,184.0,404.0328365579016,512.4095263476296,0.7884959505686416,889.0414531764707,715.690752,83.83509194764613,76.39684271464684,452.4300283360518,578.6476715097813,577.0900706454261,187.0,409.1656924423721,570.6816793488279,0.716977094672546,884.312509276596,715.690752,41.91754597382307,75.88309535340359,403.2752792056883,504.67879810367987,503.34213128043945,188.0,356.8618004601886,511.455500823882,0.6977377306243359,deceptive
1783422661229398063,1783422671229398063,1450.0516975304347,1305.083136,44.537392597187,65.77818130477678,943.4542404809359,1265.735676424299,1260.1739241725163,115.0,895.0102799893635,1174.6021058722822,0.7619689046315063,1533.6792475514019,1347.182592,44.537392597187,67.44480436275552,1196.9583936705058,1532.6880273439087,1526.2881017551063,107.0,1083.7740975783104,1509.3494111920256,0.7180405607488777,896.7636810322582,715.690752,83.83509194764613,75.12388019982767,403.79359185964574,554.3751477696647,552.8748063237567,186.0,392.0024263092243,499.26503836907,0.7851589760616198,896.7636810322583,715.690752,83.83509194764613,76.37885921400327,467.0300840399074,604.9896455296757,603.3523227831832,186.0,427.79228090167936,587.1380425394997,0.7286059664118931,877.8844456421052,715.690752,83.83509194764613,75.96823184296127,388.65538511401934,497.72988022237723,496.41138815732944,190.0,351.948173504411,490.07372745303115,0.7181535221925192,deceptive
1783422662229398063,1783422672229398063,1470.8497440000003,1305.083136,44.537392597187,64.14216455455434,938.4723126079718,1239.7017366244124,1234.1197802467043,112.0,876.6015046158614,1173.5610184886484,0.7469586078658087,1407.47757559322,1347.182592,44.537392597187,70.70906194791739,1048.02922751802,1373.261905926872,1367.3837015866181,118.0,971.042806026054,1313.4947498549657,0.7392818327848476,903.4129164590165,715.690752,52.78505789296237,75.24907180282817,422.811586293866,581.0383109715989,579.4444702761131,183.0,410.8561298171955,522.6259611849458,0.7861380037181172,938.0137218876405,715.690752,41.91754597382307,74.29133059353097,495.9108778629871,638.654115194154,636.860288267012,178.0,451.59665568648074,624.4080619691501,0.7232396299662008,879.6336071111115,715.690752,41.91754597382307,75.9452416910235,387.74757281999433,506.3294246541943,504.98815810934144,189.0,358.0289696872639,486.4195605523402,0.7360496960293168,deceptive
1783422663229398063,1783422673229398063,1459.5698354086956,1347.182592,89.074785194374,63.54677789453028,926.233718168578,1231.6893222347082,1226.6582901578622,115.0,870.9358720672249,1156.0939212356532,0.7533435269137594,1437.9141782068966,1347.182592,158.35517367888713,71.27128085152279,1095.4951004399534,1455.8233978167643,1449.490312072199,116.0,1029.422596806275,1367.6123678762926,0.7527151852281225,914.9155000655738,715.690752,41.91754597382307,75.77283933295483,543.2377068047873,758.2074269817252,756.1306282776776,183.0,536.133613164782,668.2026538457371,0.802351816592089,920.8383773701657,715.690752,83.83509194764613,74.97870040091449,477.787892254625,612.7770009077664,611.078917207498,181.0,433.2987726970368,602.2363545650952,0.7194829229629343,873.6745000421053,715.690752,64.78166195954473,76.75966437151521,428.05630792334364,593.6629579783191,592.0910085041226,190.0,419.78310332573386,527.594047148977,0.7956554961038056,deceptive
1783422664229398063,1783422674229398063,1372.929366743802,1305.083136,35.6299140777496,67.92673552100638,844.8500379700271,1198.6156222034333,1193.6637366370987,121.0,847.5492344961807,1033.6214591756411,0.8199803003046577,1512.1669465945945,1347.182592,17.595019297654122,69.16908260999881,1199.557630054097,1619.6561369274407,1612.4146608031656,111.0,1145.2698376118005,1490.6560687060994,0.768299181585128,902.0661815351352,715.690752,43.18777463969649,76.17759441809912,527.4066490154981,725.2191833842963,723.2550590476751,185.0,512.8074024176063,651.7897136840741,0.786768173310214,906.1623448216218,715.690752,13.445250595377207,75.77122684743507,481.0313975178382,596.7244621390788,595.4490161433981,185.0,421.9479136784378,611.361096134793,0.6901778937948755,868.6012113575131,715.690752,25.00344847561376,77.11839970735831,428.56664679703846,580.394225279095,578.9472483276282,193.0,410.40069245636084,532.0943312133525,0.7712931117317308,deceptive
1783422665229398063,1783422675229398063,1300.840555162791,1262.98368,44.537392597187,69.9764455825112,790.5715173906744,1113.4929025882982,1109.1379133441915,129.0,787.3583822232774,969.556618867696,0.8120808696482315,1539.526895559633,1347.182592,34.76089178317035,69.62902917661204,1260.7645830749466,1678.1199469885275,1670.3823383640802,109.0,1186.6099941599975,1573.223769446703,0.7542537922480816,908.5703248695653,715.690752,83.83509194764613,76.92556620947828,588.8562608728847,809.2578751551071,807.04375917241,184.0,572.2317312507927,727.8590624655641,0.7861847997226327,903.6591339243244,715.690752,83.83509194764613,75.85450991651383,478.4601988782009,637.4206381565535,635.6954215559362,185.0,450.7244557087556,596.8852957932187,0.7551274237871356,872.7881957052631,715.690752,83.83509194764613,76.90279167738278,445.4894094609006,580.6238036740588,579.1686583174143,190.0,410.5630288962536,559.1427613189775,0.7342722776697762,deceptive
1783422666229398063,1783422676229398063,1261.7175309473682,1094.585856,89.074785194374,72.03077759743573,749.880795024886,1023.2296586912315,1019.350461623702,133.0,723.5326303717663,928.9201687378559,0.7788964592671574,1511.6458874018692,1347.182592,178.149570388748,69.74497678718085,1269.9088893200285,1685.5529236530544,1677.6315032747184,107.0,1191.8659023638859,1585.895649070019,0.7515411893984354,911.4647249836066,715.690752,27.945030649215376,76.56073010701596,584.5447037212751,795.5236459739056,793.3741136980259,183.0,562.5201646623949,724.6865208290291,0.7762255106095824,911.1525120000001,715.690752,83.83509194764613,75.6279273537279,495.839822359482,664.4812314648539,662.6431055882075,182.0,469.85918473998606,617.5195803638159,0.7608814354731316,859.0447970461539,715.690752,83.83509194764613,77.62179608944273,426.26731845079865,560.3345218651209,558.8884948819141,195.0,396.2163401437488,533.7733221696413,0.7422932613665266,deceptive
1783422667229398063,1783422677229398063,1290.0709268837209,1262.98368,59.38319012958267,67.00249995971083,718.8913273625597,968.8511639744728,965.0717787490405,129.0,685.0812280068294,893.8351842652722,0.7664513996167678,1429.2039459310347,1010.386944,44.537392597187,73.33788016614953,1236.6171067097532,1679.3788311536491,1672.06128159992,116.0,1187.5001596898833,1534.0682587755518,0.7740856072712898,900.3851396129035,715.690752,41.91754597382307,77.14413649887372,576.4425310599361,800.0702762865344,797.9049941666899,186.0,565.7351177880031,710.312516770096,0.7964594519050442,895.4056340645162,715.690752,83.83509194764613,76.52352182008322,484.1863772440944,647.1717045548621,645.43181569982,186.0,457.6195008827999,603.4609283320748,0.7583249874148924,859.9690960000001,715.690752,83.83509194764613,77.93725863561515,447.751166867938,603.6190681629794,602.0485005956409,192.0,426.8231363515476,556.6625728398795,0.7667537879797796,deceptive
1783422668229398063,1783422678229398063,1272.6989390769231,1094.585856,178.149570388748,68.58727270271868,729.5520177140056,965.1076474229305,961.3596424001887,130.0,682.4341620677498,911.9397459934497,0.7483325132674408,1404.6233751864406,1010.386944,178.149570388748,74.63703526319672,1232.4943446174323,1612.219673247476,1606.5637297735052,118.0,1140.0114637156503,1545.4033616911665,0.737678907640082,891.0305075744682,715.690752,41.91754597382307,77.4185227138005,565.2921881291445,784.5385127294181,782.4473644392751,188.0,554.7525024529801,696.5883622561823,0.7963849706822411,930.6318634666667,715.690752,41.91754597382307,75.08380633364591,526.8660392546599,727.0190475200982,724.9964489140609,180.0,514.0800985532462,650.4125404506958,0.7903908159535491,886.3160604444445,715.690752,41.91754597382307,76.92212440341928,493.138931204017,662.4355889466558,660.6824108114458,189.0,468.4126970434847,613.7318498842184,0.7632204473856972,deceptive
1783422669229398063,1783422679229398063,1244.624518736842,1094.585856,44.537392597187,70.06638204488718,716.7284788688698,987.6914942248171,983.9754314999838,133.0,698.403353286642,885.1642801776148,0.789009869610308,1375.9505536000001,1010.386944,44.537392597187,74.8133058354026,1099.0396005126815,1526.9602409604715,1520.554611832923,120.0,1079.7239409853942,1353.8368412115376,0.7975288514228627,884.9795697777778,715.690752,83.83509194764613,77.3260233494229,544.8406645200917,751.4222684847263,749.4211403820032,189.0,531.3357815801285,672.7137898361435,0.7898392891716234,929.2285482666667,715.690752,83.83509194764613,75.34677550185276,539.4304221880801,756.1459672478665,754.0308694900715,180.0,534.6759410078274,662.5942799464224,0.8069431885996081,889.6869079148936,715.690752,83.83509194764613,76.81666909550641,496.9623832083795,681.718837065813,679.8936160205478,188.0,482.04801255184344,614.6202709362207,0.7843021705378567,deceptive
1783422670229398063,1783422680229398063,1221.1937788235296,1052.4864,59.38319012958267,71.77548464787334,713.3387892892976,980.6211285254332,976.9936458094746,136.0,693.4038497551387,881.6461916107947,0.7864876595091603,1364.2961919999998,1010.386944,29.691595064791336,73.1021351704952,1053.863564625321,1486.181705130983,1480.1014343397105,123.0,1050.889161773504,1291.9260081456166,0.8134282885766128,888.1193749787234,715.690752,36.54350161820472,77.18057038469112,546.5935071200182,751.2826959189671,749.2875956440769,188.0,531.2370888724125,675.5904837656501,0.7863300351884306,917.3980356923078,715.690752,36.54350161820472,75.99636836354502,533.0542719255844,740.9539203705294,738.9219695078023,182.0,523.9335416407584,656.5367739952695,0.7980261919715916,896.921030502674,715.690752,36.54350161820472,76.72174604650263,516.2354341603791,712.0917304007919,710.1908316609304,187.0,503.52489139326275,637.3612702692342,0.7900148861893722,deceptive
1783422671229398063,1783422681229398063,1224.571767591241,1052.4864,178.149570388748,72.05364553880675,741.3863906594065,994.2440179695496,990.6075510864401,137.0,703.0366872604282,923.1344802860013,0.7615755908528262,1422.105352677966,1010.386944,178.149570388748,73.27134969871065,1149.916947078918,1652.3566144946606,1645.3027719575853,118.0,1168.3925670476203,1400.731014503689,0.8341305753564745,886.984305777778,715.690752,79.17758683944356,77.16532215184702,546.4318802395188,732.8055453514806,730.8627782431358,189.0,518.171770409138,680.3856315794164,0.7615854103301352,916.0657584262296,715.690752,79.17758683944356,76.16984442709084,571.5030717308898,746.4074526064068,744.6323400011152,183.0,527.7897712661668,716.9034109760455,0.7362076441338097,906.1623448216218,715.690752,79.17758683944356,76.65038163988095,554.567463271741,742.2859313576511,740.2751537881429,185.0,524.8754156423672,690.9001676555258,0.7596979132650371,deceptive
1783422672229398063,1783422682229398063,1225.4936534890512,1052.4864,59.38319012958267,72.84670809905735,756.5282171017494,1005.7677924140874,1002.1436655750664,137.0,711.185226315025,944.3398082670913,0.7531030886223932,1477.23984,1031.436672,178.149570388748,70.96961675003146,1186.8109766746247,1725.413375468623,1717.634378869826,112.0,1220.051498143834,1439.7144715704037,0.8474260155300328,932.4428083200002,715.690752,83.83509194764613,76.40195129676417,630.2658714805242,859.1165078898503,856.7755581066863,175.0,607.4871085582192,780.992857825215,0.7778395185966911,973.1827735813953,715.690752,83.83509194764613,74.31071400619165,660.3487001236198,905.3272419672561,902.685907557846,172.0,640.1630319879611,816.8331884466369,0.7837132979444095,922.0013457679559,715.690752,83.83509194764613,77.14119705498759,659.2610665137437,913.3126190640716,910.7721061621886,181.0,645.8095462834511,812.84397187053,0.7945061643224142,deceptive
1783422673229398063,1783422683229398063,1246.5237423157896,1052.4864,29.691595064791336,72.9042143055788,779.9138279823517,1034.0748611815536,1030.15362400696,133.0,731.2013465960142,974.2707290708564,0.7505114592669198,1496.9959714594595,1010.386944,178.149570388748,72.60731118845307,1236.5633798916808,1806.4570320161793,1798.229723221425,111.0,1277.3580172607647,1497.4499099629672,0.8530222004503338,941.1725841355933,715.690752,83.83509194764613,75.67387355002901,623.5367335452297,850.1767476880624,847.7580322672278,177.0,601.1657434973533,772.5904416850798,0.7781169828947976,985.7251324970415,715.690752,83.83509194764613,73.69429742209878,673.5051958345061,932.5487157406357,929.7691306733853,169.0,659.4115206870096,830.5460377515359,0.7939493907793195,910.3144666229508,715.690752,83.83509194764613,76.41492328495636,536.7191553440837,729.4256460218576,727.4189691909544,183.0,515.7818206734338,665.6721867089927,0.7748285582178223,deceptive
1783422674229398063,1783422684229398063,1270.6965574351145,1094.585856,57.007862524399364,69.48753809975213,762.5394285090723,1014.5781551550527,1010.6702660000004,131.0,717.415093553875,951.6252160553689,0.7538840726895295,1473.108398442478,1010.386944,59.38319012958267,71.77954425554698,1168.9639985926133,1797.132583565753,1789.253413073854,113.0,1270.7646365306437,1387.6354994316168,0.9157769724478481,913.4656689230769,715.690752,83.83509194764613,76.85775366131008,594.7869556615487,814.5153799929992,812.262221098517,182.0,575.9493485737873,735.9919966881307,0.7825483852616405,966.5741380465116,715.690752,83.83509194764613,74.25264930198205,623.6279292117274,825.1417566307215,822.7255237520502,172.0,583.463331553763,779.4926930715299,0.7485167426710204,908.4740532459017,715.690752,41.91754597382307,76.15039268442851,503.57747096654685,663.0080933727193,661.1958273719373,183.0,468.8175188054135,630.305961863518,0.743793565619054,deceptive
1783422675229398063,1783422685229398063,1345.4712319999999,1305.083136,19.523240590547726,66.82471308814772,813.6899255007975,1102.3812982101217,1097.9452066789681,123.0,779.5012914176067,1010.1343762401755,0.7716807879749534,1469.418731789474,1031.436672,158.35517367888713,72.87068400433508,1158.2882538392016,1794.5895999750844,1786.668621338933,114.0,1268.9664755892359,1370.4471532602233,0.9259506815497627,897.5148889945947,715.690752,30.323331129999662,76.53652386342998,498.26459983469204,711.4432259608266,709.5405243267684,185.0,503.0663295061336,608.274080456717,0.8270389051073997,948.80145408,715.690752,30.323331129999662,74.53634702660666,577.7810962041895,769.933575184398,767.7522471585509,175.0,544.4252520760904,720.737513046721,0.7553724375670157,927.5991869497207,715.690752,30.323331129999662,75.46083175186097,580.6422983967022,743.2808252859159,741.2239785647091,179.0,525.5789118856046,732.2392785595306,0.7177693511874007,deceptive
1783422676229398063,1783422686229398063,1326.638057472,1052.4864,95.01310420733228,66.01762516532412,800.2043830782908,1107.7933659209705,1103.3325112460554,125.0,783.3282011961886,986.839690122356,0.7937745198503979,1470.5004675398231,1052.4864,44.537392597187,72.41045112629365,1130.595159475476,1749.3975154996494,1741.6117318241431,113.0,1237.0108462007006,1338.429270618985,0.9242257871636496,886.9997085957448,715.690752,83.83509194764613,76.84142565311059,466.6324582210699,659.8999750457635,658.1331714065865,188.0,466.6197472596929,571.5108991651229,0.8164669264249246,950.1411707586209,715.690752,36.54350161820472,74.20568641980985,583.3706404106681,774.3165376629793,772.0939466614147,174.0,547.5244745663814,728.526652265866,0.7515503693152048,927.5991869497207,715.690752,83.83509194764613,75.4573480478716,582.2862202680117,762.5323707273727,760.3874090360456,179.0,539.1918102155796,729.8976507197691,0.7387224903161012,deceptive
1783422677229398063,1783422687229398063,1345.1455215483873,1305.083136,59.38319012958267,66.54125113993,803.4370105101956,1122.7607629830547,1118.191623468388,124.0,793.9117491555,987.8634151498615,0.8036655037326811,1447.8552041739129,1305.083136,59.38319012958267,72.46383541556587,1090.6827893338236,1670.3983564005603,1663.0664070101814,115.0,1181.1500050936997,1296.7730050520006,0.9108379033895262,871.9656959999999,715.690752,83.83509194764613,77.41732106476637,444.8385238681075,630.1167273961496,628.4563378766719,191.0,445.55981088089254,544.518918035182,0.8182632340647243,939.4192896,715.690752,83.83509194764613,74.41426422079432,562.2904628291699,766.6130597951495,764.4348883040062,175.0,542.0772931273185,696.718905524433,0.778043036910685,946.2809541818183,715.690752,83.83509194764613,74.40514773107446,554.2338079360369,712.3668829856957,710.3286330771032,176.0,503.71945365190925,698.2002461506804,0.721454133579896,deceptive
1783422678229398063,1783422688229398063,1347.8671359999998,1347.182592,36.54350161820472,65.22175481447401,772.6173694861544,1111.4606641225942,1106.8995671699927,123.0,785.92137262319,940.7651127090386,0.8354065876869533,1477.6157280000002,1347.182592,44.537392597187,70.5320840972477,1088.558635622989,1662.9278791485,1655.5245808419484,112.0,1175.867579970068,1295.6031504926323,0.9075831434362931,908.4740532459017,715.690752,41.91754597382307,76.48971084208893,539.2679458028985,743.0016270415443,740.9680369263663,183.0,525.3814889137141,666.0382723945825,0.7888157643326256,960.9870043005781,715.690752,41.91754597382307,74.11780038978728,650.927266968127,903.3764034696611,900.7560919284682,173.0,638.7835808573119,802.1161899492776,0.7963728807140844,948.5761820115606,715.690752,20.3599509015712,73.92726069947476,531.8340250010938,657.8246543456031,656.0378576413083,173.0,465.15227391947263,676.3959944673683,0.6876922360927926,truth
1783422679229398063,1783422689229398063,1370.1459316363635,1347.182592,59.38319012958267,65.28326094778072,787.4586676121558,1132.2325406654109,1127.5268677194504,121.0,800.6093073845855,959.007129723033,0.8348314444917695,1453.7125197913042,1347.182592,43.18777463969649,70.99528477161806,1072.8852752714854,1668.245602322219,1660.9382783228632,115.0,1179.6277780866774,1267.440247258973,0.9307166792578956,905.8247081739132,715.690752,83.83509194764613,76.0082603685657,512.785179704448,694.1503150888902,692.3034606681133,184.0,490.83839496213295,636.7386560155937,0.7708631953234395,969.0217808372093,715.690752,83.83509194764613,73.44083142621851,647.7605460862337,906.3842707872188,903.7760459616547,172.0,640.9104642344664,796.1182943189108,0.8050442613968234,957.8835994482757,715.690752,83.83509194764613,73.51645363733671,537.0071713759565,663.3868792181827,661.466797393046,174.0,469.08536084535814,683.1785025443219,0.6866219576558262,truth
1783422680229398063,1783422690229398063,1395.5969664,1347.182592,95.01310420733228,61.85297062529682,769.7565723403221,1135.97920441753,1131.2016449398084,120.0,803.2585987305347,928.675493972449,0.8649507863016411,1472.003786105263,1347.182592,44.537392597187,69.67691378454758,1088.9244690751732,1697.2087507415954,1689.7059471742627,114.0,1200.107816738531,1285.0617155618768,0.9338911915322287,901.0198789565219,715.690752,79.17758683944356,75.8804897154041,495.9083704708204,664.7065213301869,662.8879353478687,184.0,470.0184887314956,617.5690519539733,0.7610784368879377,980.9920575621303,715.690752,79.17758683944356,72.81118462092763,653.9273210960024,920.8615499730488,918.1168342510896,169.0,651.1474465198976,802.0258000818284,0.8118784289152081,971.0115704470588,715.690752,79.17758683944356,73.30374204646075,566.291074651125,685.5064510855033,683.475361792486,170.0,484.7262601096837,723.8034186428603,0.6696932449124806,truth
1783422681229398063,1783422691229398063,1364.781544918033,1347.182592,35.6299140777496,62.87923696228303,717.5577243726732,1069.2065921079236,1064.793768835141,122.0,756.0432317688717,862.541298409542,0.8765298927285634,1469.4187317894734,1347.182592,89.074785194374,70.46102857107444,1075.7814846195715,1654.0999409906942,1646.7673473262603,114.0,1169.625285034788,1276.9494710458298,0.9159526759323198,916.2958100983607,715.690752,25.449938626964002,75.43738600346482,520.450597679627,697.5626904224667,695.7021628128999,183.0,493.2513087004586,648.1429028252984,0.7610224636424207,1002.824167473054,715.690752,41.91754597382307,71.64853263643872,662.020856597166,913.9447066900714,911.2134316497262,167.0,646.2564997300997,817.1410511151613,0.7908750868019008,983.7322588402367,715.690752,64.78166195954473,72.56702709968484,567.1650870433888,696.7416202550246,694.6713981238038,169.0,492.67072441723025,722.4889276473173,0.681907646697843,truth
1783422682229398063,1783422692229398063,1378.4962369586779,1347.182592,45.97408268096723,62.56147085764069,714.6484220085649,1037.3030949656963,1032.9891739993973,121.0,733.4840525960371,867.4360532352288,0.8455770887783622,1462.4984932173913,1347.182592,35.6299140777496,69.3376825324359,1048.1654670337925,1609.0564914218198,1602.0517843472703,115.0,1137.7747563966027,1245.0044154209504,0.9138720652744897,856.2381666461539,715.690752,83.83509194764613,77.74071497018764,412.70641935381246,569.792998352762,568.3225623572823,195.0,402.9044930078533,509.39882401585123,0.7909411526150597,938.0137218876403,715.690752,83.83509194764613,73.60130202778082,468.67104659722384,583.6405692487336,581.9895317988297,178.0,412.69620429135637,595.1016898974727,0.6934885437183985,982.1555440941175,715.690752,83.83509194764613,72.53077427354152,549.3065573747443,702.4790609000974,700.3976368853223,170.0,496.7277076040166,692.8969477483761,0.7168854029710665,truth
1783422683229398063,1783422693229398063,1416.7537269152542,1347.182592,44.537392597187,61.13215761365312,766.2068789356592,1089.065764374845,1084.436035338817,118.0,770.0857871475637,936.8190342180856,0.8220219263481495,1437.3424889203543,1347.182592,44.537392597187,68.32944970168926,973.2896854941913,1447.9277285198432,1441.4618187705425,113.0,1023.8395155044155,1170.667308429088,0.8745776943906464,819.9075425882355,715.690752,83.83509194764613,79.02573405829625,305.6025510374842,424.10923545981683,423.06334179502227,204.0,299.89051635747865,376.58820679975986,0.7963353895384646,925.2524885333333,715.690752,83.83509194764613,74.80244364392881,477.00632831971257,586.1058152374119,584.4663552001506,180.0,414.43939644724367,607.6101281663506,0.6820811195131676,920.173824,715.690752,83.83509194764613,74.2246360422078,453.36331127120854,605.0225493123602,603.3489014331057,182.0,427.81554738954225,565.2994894031682,0.7567945052298231,truth
1783422684229398063,1783422694229398063,1423.397124413793,1347.182592,59.38319012958267,61.0812072742171,779.3451396188265,1117.1109643717052,1112.344624057476,116.0,789.9167382450764,950.1439188960301,0.8313653569060135,1441.1805153103446,1347.182592,16.013444529325664,68.84977188222688,998.4547790966103,1440.0459550656497,1433.9686593120666,116.0,1018.2662600471791,1214.6566608002804,0.8383161208503901,832.1449685970151,715.690752,83.83509194764613,78.43768785193404,323.1254600522663,455.6392019976294,454.4986765492847,201.0,322.18556950695086,396.12921536882175,0.8133345307716711,935.6485839101124,715.690752,83.83509194764613,74.04882077730728,472.59712357697185,600.781108484865,599.0815828494552,178.0,424.81639581841887,597.0440497554426,0.7115327520514264,913.995293377049,715.690752,83.83509194764613,74.90166063059547,459.75577238677585,597.8872901450464,596.2424801782337,183.0,422.7701572468112,577.3936590894248,0.7322043645466048,truth
1783422685229398063,1783422695229398063,1356.3494090322579,1347.182592,45.97408268096723,62.499639984803586,720.0677206489175,995.0949436526452,991.0416460168691,124.0,703.6383825812308,888.5052379813469,0.791934985301688,1543.0029974311924,1347.182592,57.007862524399364,66.01461131535568,1216.4454445671395,1805.7018519887451,1797.334896324093,109.0,1276.8240243423493,1464.3562560549926,0.8719353771070305,842.6237851658292,715.690752,83.83509194764613,78.2260358521214,375.63210467526136,529.5218728164084,528.183003738777,199.0,374.42850705508295,460.5438118982643,0.8130138705192188,947.3566850169493,715.690752,52.78505789296237,73.73298839887845,497.64457060775123,620.526411030618,618.7656642312703,177.0,438.77843314510085,631.6937395717258,0.6946062714545546,916.2958100983607,715.690752,83.83509194764613,75.43025330921567,492.2562667970187,612.3220230565835,610.6375026076238,183.0,432.97705477317567,625.2182814200562,0.6925214243412018,truth
1783422686229398063,1783422696229398063,1416.3969518644064,1368.23232,29.691595064791336,61.44811482407131,741.2481495922274,1027.6259644137842,1023.2290255697163,118.0,726.6412879603525,913.7252638859571,0.7952513919447074,1591.2784763076925,1347.182592,10.40289462124076,66.96384036450905,1348.8341341346425,1983.8376425719741,1974.8878583340781,104.0,1402.7850498357773,1629.356957450429,0.8609439714369373,857.749429169231,715.690752,83.83509194764613,77.83987424244557,417.00081830157563,592.8102608369453,591.2804253553857,195.0,419.1801553947701,509.82679763815435,0.8222011030739894,913.995293377049,715.690752,83.83509194764613,75.08576829624887,458.14315883987337,587.9285487698311,586.3111356675124,183.0,415.72826368831335,577.386623822292,0.7200171367604563,889.6869079148936,715.690752,83.83509194764613,76.843869703909,474.8428906245097,592.5044425697123,590.9180824470466,188.0,418.96390922419886,602.6492868468931,0.6952035261109324,truth
1783422687229398063,1783422697229398063,1407.324672,1347.182592,36.54350161820472,61.10024509570497,736.24738292613,1014.7038101967563,1010.4092421946289,119.0,717.5039450859539,909.2383967498276,0.7891263145625509,1647.7727078399998,1347.182592,44.537392597187,64.90723749254249,1382.8694714400692,2071.9071100664532,2061.419180902051,100.0,1465.0595675166114,1658.7513924322393,0.8832303467540027,851.2725897846155,715.690752,83.83509194764613,77.9104265125267,391.7402317909786,560.3728738229988,558.9375323762584,195.0,396.24345907323607,477.92926147928796,0.829083906364683,890.723816347826,715.690752,83.83509194764613,75.75571864482002,399.4199618827297,512.2000136593518,510.7986430068099,184.0,362.18010298236993,503.47333435112773,0.7193630293233795,878.2971164444446,715.690752,83.83509194764613,77.21600983244346,443.8897331265614,549.6744642842466,548.222323245151,189.0,388.6785411404735,564.3940876540048,0.6886651537334111,truth
1783422688229398063,1783422698229398063,1411.591161435897,1389.2820479999998,34.76089178317035,59.984448565714715,721.8885859374333,1000.969762104142,996.645964504786,117.0,707.7925065465241,889.8096115753011,0.795442640019883,1603.8273526153846,1347.182592,89.074785194374,66.76498901079621,1373.4872606570016,2045.4797468394474,2035.5365203904537,104.0,1446.3725997699157,1651.3441984309497,0.8758759083322599,845.3910962424242,715.690752,83.83509194764613,78.15667215733727,383.705026842052,552.1455668338148,550.7423992113611,198.0,390.4258745102805,467.16476055473305,0.8357348573267186,876.374016,715.690752,83.83509194764613,76.4823690772935,388.21694446686587,488.13667388532866,486.8576697208967,191.0,345.1647522501622,491.78800193215505,0.7018567978357871,862.8218404948453,715.690752,83.83509194764613,78.03940885708242,431.9388032473497,559.6734567036129,558.257483736586,194.0,395.74889648524027,542.9858791597279,0.7288382841514456,truth
1783422689229398063,1783422699229398063,1425.9376088275865,1368.23232,89.074785194374,61.44863350017698,783.4597504549012,1070.7480725912667,1066.2272884234403,116.0,757.1332230717103,970.0479382103927,0.7805111409942469,1631.9730296470584,1347.182592,59.38319012958267,64.2875082442488,1363.5372318730238,2024.7666129860338,2014.7208410133214,102.0,1431.7262023625424,1641.2030971644438,0.8723638194664506,855.877600329897,715.690752,83.83509194764613,77.8108757467252,397.60323804018947,554.1984711074332,552.7608591628853,194.0,391.877497043283,489.27771608324144,0.8009306047705069,884.3125092765957,715.690752,64.78166195954473,76.63834861769027,423.2510173625024,565.2186627748272,563.706480978607,188.0,399.66994930127277,527.6502754756655,0.7574523654725259,869.320704,715.690752,83.83509194764613,77.80958559826654,442.4239420599356,563.4770500018997,561.9922594105508,191.0,398.43844309933456,558.6602657662309,0.7132034753766783,truth
1783422690229398063,1783422700229398063,1450.0516975304345,1389.2820479999998,61.96506796130366,60.39210280325565,788.0466275881183,1071.3585611507885,1066.6677450062218,115.0,757.564903671985,977.2833176045935,0.7751742918612818,1597.755315692308,1347.182592,29.08564414510172,66.8191395482051,1332.7405274911519,1956.4889847264942,1947.0095300985497,104.0,1383.4466284168877,1611.0345559285065,0.8587318151096701,873.8960761263157,715.690752,64.78166195954473,77.7411107430593,480.1918745084351,679.4640119238038,677.6650193127623,190.0,480.45361040353885,588.0056435213455,0.8170901345883046,878.5198648888888,715.690752,21.593887319848246,77.11777818544643,431.95552529839097,562.5386553106077,561.1478381348385,189.0,397.7748978496926,542.2718109877657,0.7335341608945756,870.4227840000001,715.690752,19.523240590547726,78.03243284554854,463.2135946972655,577.1680712289699,575.7581108295351,191.0,408.11945705036493,588.092614316132,0.6939714036792484,truth
1783422691229398063,1783422701229398063,1416.628703179487,1347.182592,95.01310420733228,61.788011655075216,787.3237974398526,1058.93588026523,1054.6254916709183,117.0,748.7807417772901,979.5004973974978,0.7644516197457553,1474.9980575135135,1347.182592,59.38319012958267,68.25009261942556,1245.136619532498,1805.397201899602,1797.1721149232135,111.0,1276.608604198427,1511.9079464189956,0.8443692668076235,873.067776,715.690752,83.83509194764613,77.59274302288699,475.8004275943195,671.2623328794413,669.4935226037024,191.0,474.6541475341545,583.2013493744566,0.8138769706950607,878.5198648888888,715.690752,83.83509194764613,76.96050789773429,424.3146382851691,545.5323443288612,544.0795259190711,189.0,385.7496200315324,534.4945648450619,0.7217091536624936,886.9997085957448,715.690752,83.83509194764613,77.53248895125958,505.43825240178154,643.0649951102897,641.3432651261214,188.0,454.7156187861799,638.3983920702533,0.7122756329501222,truth
1783422692229398063,1783422702229398063,1384.019616,1347.182592,59.38319012958267,62.97403167112067,764.9218610369874,1065.0295025773528,1060.5499274284784,120.0,753.0895834361818,941.6150735011284,0.7997849701322557,1467.84264,1347.182592,178.149570388748,71.36909812268343,1272.3234878454775,1815.7990154719387,1807.6241543042902,112.0,1283.9637971120646,1553.490456777687,0.8265025327386397,862.9297820518135,715.690752,83.83509194764613,77.74806633844842,438.4193202684735,624.8963477394592,623.2668890397027,193.0,441.86844502527845,535.5363100806629,0.8250952114875719,895.4056340645162,715.690752,83.83509194764613,76.01698378391136,442.7189805440978,591.8387504624804,590.2370188369094,186.0,418.4931938209929,551.7534910000687,0.7584785608922241,867.424208,715.690752,83.83509194764613,77.93220250755262,463.0030019653838,597.0034434420164,595.4385562329137,192.0,422.14518324956924,582.7866520327213,0.7243563005040605,truth
1783422693229398063,1783422703229398063,1345.1455215483873,1347.182592,83.83509194764613,65.43906665368603,738.6445691397196,1035.8247999413331,1031.6060478073903,124.0,732.4387401597155,907.1705159427462,0.8073881671502005,1467.1474135221238,1347.182592,34.76089178317035,70.49806525962694,1228.3689471368207,1731.1191346940445,1723.3756050037375,113.0,1224.0860791839473,1506.182982228281,0.8127074157835769,857.33788,715.690752,89.074785194374,77.81535018942526,424.8832443075472,595.822540291085,594.2607893854251,192.0,421.3101586236212,521.8241252633719,0.8073796097698244,864.7929920000001,715.690752,83.83509194764613,76.94328829557034,389.8870789842831,522.36908431253,520.9998314087974,192.0,369.37072179959733,485.5991182615712,0.7606494903078331,874.7331413333332,715.690752,83.83509194764613,77.66842343647544,472.75138080829987,610.9949846726688,609.3678313585716,189.0,432.03869693301476,594.6923728185184,0.7264910677858307,truth
1783422694229398063,1783422704229398063,1342.0899158709678,1347.182592,95.01310420733228,66.16177916745252,739.9648190363914,1044.8716371422192,1040.6317905234382,124.0,738.835820092753,906.7285604286731,0.8148368236503485,1522.469417890909,1347.182592,57.007862524399364,67.06762013365747,1275.1114708409038,1799.2479156038457,1790.9788409532293,110.0,1272.2604021592404,1562.8484445680938,0.8140651171782943,866.6757120000001,715.690752,83.83509194764613,77.07356184053161,426.0419910016835,604.4182946525426,602.8266398434313,191.0,427.38827482202163,521.2419663320339,0.8199421812283108,878.7707499789475,715.690752,41.91754597382307,76.22130861594086,406.0844675106907,559.7893225449903,558.3192759304999,190.0,395.8308260073862,501.4660188866616,0.789347256043783,892.8686764491979,715.690752,83.83509194764613,76.69441730348905,489.0430198311028,643.8788210478787,642.1456313063777,187.0,455.29108062535454,612.1120538288291,0.7438034879030042,truth
1783422695229398063,1783422705229398063,1297.51839,1305.083136,61.96506796130366,68.45779187824945,740.7370647351149,1044.8706310724288,1040.7591845841007,128.0,738.8351086939816,907.989063384226,0.813704854483842,1464.2956241454542,1347.182592,16.013444529325664,68.14903328933362,1064.7265248368458,1419.1256540421068,1412.7724471612826,110.0,1003.4733733289681,1328.083483781115,0.7555800411522573,872.6269439999999,715.690752,49.144709072758076,76.51760888895764,402.04247221133744,568.5075657915744,567.015753804921,191.0,401.9955549270796,492.418608333441,0.8163695443752778,882.7449763404255,715.690752,49.144709072758076,75.61809177493589,395.9801611556531,550.636307802415,549.1686896903904,188.0,389.35866721461065,487.64791621634663,0.7984421839339315,873.4529239578948,715.690752,83.83509194764613,76.4222827443376,385.1652410815013,523.5941196713073,522.2071129443175,190.0,370.2369526089821,477.66811211985794,0.7750924610937419,truth
1783422696229398063,1783422706229398063,1277.343184372093,1052.4864,158.35517367888713,68.9656400586188,734.9056684048686,1025.0185741436228,1021.0609897601269,129.0,724.7975846191217,904.1608892074225,0.8016245706607276,1480.2469440000002,1347.182592,44.537392597187,66.26996782913727,1053.0332257823266,1369.1733129898987,1363.0248926578167,112.0,968.1517342348086,1322.5350879852417,0.7320423805992906,864.5737240000002,715.690752,83.83509194764613,76.5791014671042,362.8666812135654,507.3676251465725,506.03769461497114,192.0,358.7630882956557,446.0818085376004,0.8042540211890649,882.9689096170213,715.690752,83.83509194764613,75.70011683652203,400.1357568274758,560.2159104840123,558.7159990628921,188.0,396.13246923184096,491.68768664055034,0.8056587138441698,882.5293368888888,715.690752,75.01034542684128,75.67791840110388,385.61253396333217,520.4955498388325,519.109600632065,189.0,368.04593286845903,479.2339181952138,0.7679880719931371,truth
1783422697229398063,1783422707229398063,1277.5565686153848,1073.536128,34.76089178317035,70.37009554824236,760.2106246365913,1070.654179677746,1066.4980812330837,130.0,757.0668307558545,932.3439786395126,0.8120037755384826,1450.9540581052631,1347.182592,178.149570388748,66.5448245674586,1026.758472022433,1361.0643538710053,1355.041673623359,114.0,962.4178342534747,1282.7088040140318,0.7503011059421609,859.5667279175259,715.690752,64.78166195954473,76.45926419231324,341.7648493079506,473.91962475498156,472.6915174579973,194.0,335.11178040163145,421.25582697809267,0.7955065756729791,895.4056340645162,715.690752,83.83509194764613,75.36126763495606,427.8404686169611,606.1825907381505,604.5420394466083,186.0,428.63582054817584,523.6703159854087,0.8185222791205892,882.3065884444445,715.690752,64.78166195954473,75.60728578347907,381.8897157464681,515.2143437264003,513.8434856872951,189.0,364.31155621351445,474.67679002715107,0.767493932434902,truth
1783422698229398063,1783422708229398063,1223.3606625882355,1031.436672,61.96506796130366,72.27479229398921,712.7361265744156,1000.6265559490541,996.9136431229931,136.0,707.5498231469165,875.0269688020971,0.808603446949235,1496.2374227027028,1347.182592,89.074785194374,65.26717709410073,1062.7663887511383,1447.7650935591926,1441.1693693298434,111.0,1023.7245152208816,1317.1707757865556,0.7772147196399487,850.7956388571429,715.690752,83.83509194764613,77.1782967670508,351.4080869871113,476.3706096072361,475.15463942248647,196.0,336.84488841124613,436.168600171413,0.7722813799041633,906.2823109565219,715.690752,83.83509194764613,74.4370147070699,419.35644326840185,574.1804200505609,572.6483356893152,184.0,406.00686864229186,518.9401355928148,0.7823770812764118,882.3065884444445,715.690752,83.83509194764613,75.40914671841034,366.9845113202243,487.322108510095,486.0676946075343,189.0,344.5887675496147,458.240715931274,0.751981994549117,truth
1783422699229398063,1783422709229398063,1242.8907578181818,1052.4864,89.074785194374,71.60488544034604,768.7881265279009,1101.7709427962432,1097.5606653096056,132.0,779.0697049655193,937.3342863584095,0.8311546011959554,1449.1648948965517,1347.182592,29.691595064791336,67.45445664552165,1047.3288561524162,1424.6755388355057,1418.5433543791457,116.0,1007.3977345011846,1298.603237374679,0.775754830657738,842.4187062857143,715.690752,83.83509194764613,77.40052380114683,326.2957445312263,449.8546741591117,448.6997699589136,196.0,318.09529064637263,402.92123154864214,0.7894726456180083,910.1719346086958,715.690752,83.83509194764613,74.27429244582679,425.2220388797268,580.2242862866816,578.6379456488783,184.0,410.28052744243723,526.7471016520561,0.7788947032753658,890.6173686417113,715.690752,83.83509194764613,75.31916492358799,406.63154996416966,516.3670327709635,514.9914533858026,187.0,365.1266304535245,513.8479412426926,0.7105733061234035,truth
1783422700229398063,1783422710229398063,1243.3583696842106,1052.4864,95.01310420733228,71.09386990119745,810.4712529554262,1160.9329901159474,1156.5398655207307,133.0,820.9035898141616,988.324821022617,0.8306010052087682,1499.2716177297298,1347.182592,29.691595064791336,64.56994097808548,1053.743598810352,1441.1371108221836,1434.574799096503,111.0,1019.037823681955,1304.4278826444784,0.7812143831332787,854.4471222857143,715.690752,83.83509194764613,76.99880164126247,358.12576072902755,504.84975985994834,503.5536094289782,196.0,356.98268867736954,439.0783540415395,0.813027300005768,920.4051396923078,715.690752,83.83509194764613,74.03043084290081,441.5823585371064,618.6773687088275,616.9659919328877,182.0,437.47096278066186,542.4938129640444,0.8064072848876098,881.4296629894736,715.690752,83.83509194764613,75.69290801329572,392.08299625824174,501.3533502532656,500.02525957524824,190.0,354.5103537346784,494.59008932361087,0.7167760967865288,truth
1783422701229398063,1783422711229398063,1287.1337555348837,1136.685312,44.537392597187,69.12173676791116,823.2599346700229,1176.430110256358,1171.827931159822,129.0,831.8617085543084,1004.7471766500934,0.8279313720769051,1609.8993895384617,1347.182592,59.38319012958267,59.75406513469026,1090.5302424608947,1486.6630984241524,1479.721354050081,104.0,1051.229558235522,1351.2848061713748,0.7779481819336029,866.6380242901555,715.690752,83.83509194764613,76.36814963915683,369.531649409312,525.4336505923877,524.0635474765675,193.0,371.5376973974804,451.7600574825341,0.8224226361841314,931.5974593072627,715.690752,64.78166195954473,73.85155096011339,475.82038137455623,651.2252330837567,649.3944490089146,179.0,460.48577839331443,588.8858077858627,0.781961073445943,875.7127679999999,715.690752,83.83509194764613,75.9197042782741,382.4048598407367,498.7107356436799,497.3966075738926,191.0,352.64174302417774,479.88420915681513,0.7348475659238508,truth
1783422702229398063,1783422712229398063,1300.8405551627907,1220.884224,83.83509194764613,67.64194633327757,823.4124670120948,1174.6070800280693,1170.0364019453766,129.0,830.5726315175774,1005.53007590468,0.8260047624834169,1539.581040448598,1347.182592,89.074785194374,60.05094506875995,1027.8293308672905,1454.6497950463781,1447.8277628100427,107.0,1028.5927343289154,1258.516889129855,0.8173054674221255,896.2456381604278,715.690752,41.91754597382307,74.97333225204162,407.0285994418642,566.4785944374889,564.9668534216861,187.0,400.56085552377243,501.1188103017515,0.7993331068186653,942.8375343728812,715.690752,41.91754597382307,72.80172056790235,458.3544095359846,623.4242326651664,621.6639179477212,177.0,440.8275024735591,568.3424020901698,0.7756371878155592,888.5911916149732,715.690752,83.83509194764613,75.40669235074763,400.580000381055,531.0975206616259,529.66791505191,187.0,375.5426583311982,500.41235925718354,0.7504663931335689,truth
1783422703229398063,1783422713229398063,1318.342807181102,1262.98368,43.18777463969649,66.81373135849462,841.11494858922,1165.6367932748385,1161.0320847137216,127.0,824.2296809251802,1036.952954584479,0.7948573532494154,1505.719282162162,1347.182592,83.83509194764613,60.89693390663678,1024.983704219318,1439.5384099996836,1433.0071507521948,111.0,1017.9073714892768,1258.2191698445088,0.8090064083311258,895.3451150374331,715.690752,83.83509194764613,75.18992936698572,411.6867217133883,573.6880124982333,572.1567005461947,187.0,405.65868392293356,506.6482307767297,0.8006712730468404,936.536501631285,715.690752,83.83509194764613,73.21231314122646,454.4251078523396,616.4736428709855,614.7615569746971,179.0,435.9126932968478,563.9099389127356,0.7730182839786848,900.158798451613,715.690752,83.83509194764613,75.24543949778781,429.4423141284602,575.5173250627724,573.9597651701552,186.0,406.952203242229,534.8236667034864,0.760909115616697,truth
1783422704229398063,1783422714229398063,1389.6299773884296,1347.182592,28.503931262199682,61.71482500216655,851.4000611889566,1158.9383818812437,1154.138241644648,121.0,819.493188805592,1055.4523130562266,0.7764379107120641,1428.5029087179487,1347.182592,34.76089178317035,66.55993784026094,945.0451876860635,1312.3579850548144,1306.7035912319311,117.0,927.9772305765731,1164.3238137661237,0.7970095772368826,880.321782568421,715.690752,49.144709072758076,75.93254178701686,395.6334392928883,545.8029328573618,544.3636573250016,190.0,385.94095501494644,488.44285867900106,0.7901455577807563,913.9952933770492,715.690752,49.144709072758076,74.58265103201589,443.7828993932985,589.6847879783173,588.0690945352737,183.0,416.97011234201966,554.0347338340682,0.7526064466328225,901.3834876540542,715.690752,41.91754597382307,75.4869365829972,442.7059916724146,602.0524593501481,600.4268171422906,185.0,425.71537663652794,548.9630216808065,0.7754900782443946,truth
1783422705229398063,1783422715229398063,1384.019616,1347.182592,57.007862524399364,64.01848929989971,853.2447006611864,1186.4686141194063,1181.4729346084716,120.0,838.9600027088374,1050.774045806323,0.7984209412643535,1344.8250224639999,1347.182592,57.007862524399364,69.12517031763043,841.6716845860235,1238.0052710271796,1233.0054994707864,125.0,875.4019222880083,1016.6898182311944,0.8610314636680493,883.4203306666667,715.690752,41.91754597382307,75.82184664742778,403.23084092291475,558.1853159986687,556.7118172660469,189.0,394.69662210141445,497.2901671998639,0.793694804632611,905.6009353846154,715.690752,67.86650300523733,75.3650395796305,449.8854537192761,598.5588569604174,596.9038143885289,182.0,423.2450266959799,561.4496118308014,0.7538432973812959,907.4263179130437,715.690752,16.013444529325664,75.73135645450138,483.90069363110797,590.099720570338,588.7182757455533,184.0,417.26351399157284,617.4668756613889,0.6757666369465216,truth
1783422706229398063,1783422716229398063,1449.1648948965517,1347.182592,14.692748073298807,61.71801781900312,898.435050711795,1196.2702664763979,1191.0759629533395,116.0,845.8908175572992,1120.9841404235535,0.7545965969132151,1312.9767840000002,1031.436672,29.691595064791336,70.12383014945706,812.6162803304534,1186.2667562318902,1181.599088564318,128.0,838.8172676277386,984.3186648037166,0.8521805972205225,882.5375434105263,715.690752,83.83509194764613,76.37932585447598,442.37820081059317,622.2428440431132,620.5945157329121,190.0,439.9921345676887,542.7710436861195,0.8106403974308787,931.5674069333334,715.690752,83.83509194764613,74.91573054559746,550.4594192021194,712.721915072527,710.8459905517415,180.0,503.9704992480465,692.1112716323197,0.7281639815797972,891.926240680851,715.690752,83.83509194764613,76.29517135397056,463.0478009200512,584.7013878344236,583.1359194620599,188.0,413.4463163069064,585.9672376847664,0.7055792367172048,truth
1783422707229398063,1783422717229398063,1455.542930921739,1347.182592,59.38319012958267,60.36672242267294,897.4589629377795,1249.7289889901895,1244.2383335426566,115.0,883.6918427603712,1104.7214779455041,0.7999227501250443,1294.5582719999998,1031.436672,89.074785194374,71.73493468154957,784.7863276861063,1101.5130201018055,1097.1709891039798,128.0,778.8873260792606,963.5592492849826,0.8083439878318232,886.9997085957448,715.690752,41.91754597382307,76.49975348000642,460.9719120106336,649.518786500927,647.7910831919565,188.0,459.27913844286286,565.2623672429197,0.8125061299994328,932.8104183370787,715.690752,36.54350161820472,74.7061190443441,541.5599479820146,696.329803149384,694.379700186568,178.0,492.37952574922315,682.1697412140543,0.721784470933785,897.5148889945947,715.690752,83.83509194764613,76.37595368217168,481.0118055792172,579.833453959243,578.2556729286472,185.0,410.0041672533985,615.3803747525435,0.666261363011892,truth
1783422708229398063,1783422718229398063,1396.4785362051282,1347.182592,43.18777463969649,63.214359379919166,841.6858512798096,1140.6104707330985,1135.6834626186235,117.0,806.533398547754,1044.8071989619618,0.7719447179815205,1347.1825919999999,1347.182592,29.691595064791336,69.89177314142374,814.9784536390216,1162.8110891232238,1158.1037015938125,124.0,822.2316063579465,995.1619730198282,0.8262289241849515,901.383487654054,715.690752,83.83509194764613,76.0615931332126,483.4147948432779,697.3006974622214,695.4032770813089,185.0,493.0660517016459,588.0668857165924,0.8384523320010059,922.4458581333333,715.690752,83.83509194764613,75.84883033952927,554.8178126771173,729.8391195750485,727.7976075492915,180.0,516.0741906267363,694.6073174190733,0.7429725798805201,901.3834876540542,715.690752,83.83509194764613,76.61404284294943,496.60503783546295,593.9919027705034,592.3755952771716,185.0,420.0157024189234,636.4169482877497,0.6599693857131809,truth
1783422709229398063,1783422719229398063,1447.6304168421052,1347.182592,29.691595064791336,61.01876289101756,818.2292383791474,1072.968003925046,1068.2763342097421,114.0,758.7029515715942,1025.272202254267,0.7400014843896413,1366.3187083636365,1347.182592,59.38319012958267,72.61743910750445,873.1620686309244,1239.862579545581,1234.7957759404048,121.0,876.7152377361255,1067.9462496550634,0.8209357334409819,874.459445106383,715.690752,83.83509194764613,76.89482711183065,434.2396263045621,618.5327093759018,616.876825990988,188.0,437.36867318538816,530.5491758209394,0.824369715603894,927.607114786517,715.690752,83.83509194764613,75.81960854678042,561.9601667824132,733.4953291050591,731.4599737408502,178.0,518.6595211788457,705.0493661053109,0.7356357527756081,899.5020380327869,715.690752,83.83509194764613,76.48123045181443,483.61011583639925,586.7765641774795,585.1806078412984,183.0,414.91368757123917,617.8032083209094,0.6715952296507304,truth
1783422710229398063,1783422720229398063,1423.3276950260868,1347.182592,17.8149570388748,61.021424946208825,807.4708171686502,1055.692539737882,1051.3261790008687,115.0,746.4873536967051,1012.6186629444771,0.7371850638483005,1361.0997675371902,1347.182592,178.149570388748,72.9118355396647,860.3029830350051,1265.7840611097072,1260.5489201409928,121.0,895.0444931285211,1039.08138415526,0.8613805489895903,877.4412934736841,715.690752,41.91754597382307,76.50743101412186,426.5188201189257,596.2581048189472,594.6906665771364,190.0,421.61814925491683,524.3621610496989,0.804059065610106,911.0046216393442,715.690752,83.83509194764613,76.02238581227098,522.6287086707039,683.2044114282555,681.3248909169314,183.0,483.0984722574835,655.4307494349481,0.7370701979941685,926.1880320000001,715.690752,41.91754597382307,75.55753647259874,517.2023533710031,642.2280619451514,640.4440969608124,180.0,454.1238176697106,657.1775466170095,0.6910215055389974,truth
1783422711229398063,1783422721229398063,1466.7748519646018,1347.182592,25.00344847561376,59.24088957184768,833.8032027912095,1120.6053660875416,1115.6143071178633,113.0,792.3876533945344,1037.5531144687047,0.7637080380220234,1369.4500728595042,1347.182592,17.8149570388748,72.88447804509697,878.7444097802376,1252.043901693804,1246.8951085365175,121.0,885.3287332309518,1073.5362092160074,0.8246845571026415,849.9772219076923,715.690752,49.144709072758076,78.07449707249036,385.1129436255019,538.7889960579645,537.4048798500887,195.0,380.98135274127867,473.3397966868101,0.8048791912448442,890.167107080214,715.690752,49.144709072758076,77.32089879748811,508.7749013769626,665.8755160953351,664.0886701383669,187.0,470.84509285710357,637.852843380406,0.738171974529082,929.9511118659219,715.690752,49.144709072758076,75.34531722313969,519.9624153803444,661.9640699817031,660.1081028393994,179.0,468.07928278590856,656.637433695063,0.7128428243146441,truth
1783422712229398063,1783422722229398063,1388.9312192,1178.784768,89.074785194374,63.96707441374451,853.4180743923455,1120.7067875020632,1116.017664419806,120.0,792.4593691644999,1068.9475634991547,0.7413454094702434,1344.1269863225807,1178.784768,45.97408268096723,75.54492943952896,902.0094394285845,1322.4606017414303,1317.1449303533172,124.0,935.1208593434075,1090.8787956720773,0.8572179265500258,834.8322124800001,715.690752,83.83509194764613,78.34332147300765,335.9247663219024,462.32019305818056,461.15712154755886,200.0,326.9097435909133,415.0372357144731,0.7876636490895782,890.9155148108109,715.690752,47.50655210366614,76.89947447119934,504.9372937782827,647.9542963785849,646.2002660996867,185.0,458.17287686825534,636.3663636203636,0.7199828637416591,921.3035647292819,715.690752,83.83509194764613,75.65599488733037,499.75129506491925,661.397919244583,659.558144,181.0,467.6789537605172,624.6126094971683,0.7487504200996081,truth
1783422713229398063,1783422723229398063,1383.9753938823526,1305.083136,43.18777463969649,63.77197475811299,821.4662368143717,1114.20022471811,1109.4692216584842,119.0,787.8585344977506,1019.437600474624,0.7728364483818764,1398.1264715294117,1347.182592,25.449938626964002,72.85756507649482,903.4461719266725,1348.3766493800151,1342.760242198226,119.0,953.4462723702045,1085.3110494183675,0.8785004749386537,859.5667279175259,715.690752,19.523240590547726,78.00681202875515,419.0835362290835,570.9819660265347,569.6318076515387,194.0,403.74522011258955,519.3812850831895,0.7773580444815633,916.2414572307694,715.690752,64.78166195954473,76.22212690290684,542.059964902495,700.610379550033,698.6732790669349,182.0,495.4063503495092,681.868231491157,0.7265426477871246,936.8311528988766,715.690752,64.78166195954473,75.47930705463673,550.8911471386314,717.7341243243966,715.7047430417091,178.0,507.5146663987694,691.5031046108957,0.7339297004087127,truth
1783422714229398063,1783422724229398063,1312.7074469291338,1052.4864,36.54350161820472,65.2752231942935,780.1332231487993,1070.7414523809684,1066.4865788587126,127.0,757.1285418761155,964.6729379739758,0.784855169116956,1416.2688787692305,1347.182592,44.537392597187,69.20399570561247,887.1674241694976,1308.762593275999,1303.1382748243072,117.0,925.4349046687504,1070.475219528903,0.864508479772206,877.4061226666666,715.690752,83.83509194764613,77.44368588218913,447.9154106348328,603.8485986588395,602.2404770323632,189.0,426.98543892165935,556.8645684928974,0.7667671155255147,922.424952134078,715.690752,83.83509194764613,75.53759319793404,529.3190117490044,673.5169637630462,671.6223975240384,179.0,476.24841232102415,668.5439082653713,0.7123666919001862,940.934734101695,715.690752,83.83509194764613,74.96949179033452,540.1091360832155,652.9624268428486,651.1047774830829,177.0,461.7141598806032,690.5402052335471,0.6686274837892272,truth
1783422715229398063,1783422725229398063,1314.4385706666665,1052.4864,29.691595064791336,64.49924875473059,781.2804093660094,1060.324974058417,1056.0906778564265,126.0,749.7629794181566,969.3946015247056,0.7734342426075997,1464.9872101052633,1347.182592,59.38319012958267,65.72581173682626,895.084909875246,1330.09407371659,1324.2258108403942,114.0,940.5185391410404,1077.0638005887843,0.873224537512912,873.067776,715.690752,64.78166195954473,77.93065900277898,453.6195022654309,614.7865190353139,613.1675262604301,191.0,434.71971659194287,563.0725438823891,0.7720492169526636,921.2764288,715.690752,83.83509194764613,75.01302183214935,459.2891131995703,567.5614963974069,565.9880312258817,180.0,401.32658284299066,584.2614705412975,0.6868955135295433,919.9425083076923,715.690752,67.86650300523733,75.91634263888919,521.2489230173483,660.3482418334493,658.5222060957223,182.0,466.9367197450462,659.0796077640083,0.7084678607022519,truth
1783422716229398063,1783422726229398063,1300.1878504186045,1052.4864,35.6299140777496,62.80647494617267,707.1586318446541,957.6428605532759,953.9092489560187,129.0,677.1557606521047,877.9958422980378,0.7712516711693522,1502.9505791999998,1347.182592,30.323331129999662,63.905693624519394,924.088579947681,1360.088320190489,1353.9188028017527,110.0,961.7276742193151,1115.9835785081234,0.8617758296273305,889.239041361702,715.690752,52.78505789296237,76.50342153855034,441.9739147733232,588.6056302811392,587.0318240789675,188.0,416.20703261637533,551.4233724466612,0.7547867091118535,955.2967987200001,715.690752,32.39083097977237,73.70580117986462,501.6458829638433,611.1694363318795,609.4108638383987,175.0,432.1620528842319,640.2461743834094,0.674993573058717,942.1239842711864,715.690752,83.83509194764613,75.08231914710744,549.6214620993331,699.5488341495053,697.5705010417452,177.0,494.65572439825866,694.1364133658703,0.7126203363970938,truth
