window_start_ns,window_end_ns,red_Mean_NN,red_Median_NN,red_Heart_Rate,red_Mean_HR,red_SDNN,red_SDSD,red_RMSSD,red_NN_Count,red_SD1,red_SD2,red_SD1_SD2,infrared_Mean_NN,infrared_Median_NN,infrared_Heart_Rate,infrared_Mean_HR,infrared_SDNN,infrared_SDSD,infrared_RMSSD,infrared_NN_Count,infrared_SD1,infrared_SD2,infrared_SD1_SD2,ppg0_Mean_NN,ppg0_Median_NN,ppg0_Heart_Rate,ppg0_Mean_HR,ppg0_SDNN,ppg0_SDSD,ppg0_RMSSD,ppg0_NN_Count,ppg0_SD1,ppg0_SD2,ppg0_SD1_SD2,ppg1_Mean_NN,ppg1_Median_NN,ppg1_Heart_Rate,ppg1_Mean_HR,ppg1_SDNN,ppg1_SDSD,ppg1_RMSSD,ppg1_NN_Count,ppg1_SD1,ppg1_SD2,ppg1_SD1_SD2,ppg2_Mean_NN,ppg2_Median_NN,ppg2_Heart_Rate,ppg2_Mean_HR,ppg2_SDNN,ppg2_SDSD,ppg2_RMSSD,ppg2_NN_Count,ppg2_SD1,ppg2_SD2,ppg2_SD1_SD2,label
1784138348949592526,1784138358949592526,1439.8377409122809,1008.033792,89.28272118877537,77.12961447596905,1396.9964375630564,1956.5118759970906,1947.8377753348277,114.0,1383.4628149895561,1716.4537316509081,0.8060006450968668,1582.4530480761905,1008.033792,19.84060470861675,85.64176234805456,2284.93431699415,3019.1865877816595,3004.721321857516,105.0,2134.887309887885,2857.092534902375,0.7472237191508508,1005.7566072289156,714.023936,37.59272471106332,70.23577291182919,525.8443721569553,676.4439549649121,674.3968225640489,166.0,478.3181076483369,662.2918551561253,0.7222165030786626,883.3700384680851,714.023936,84.03079641296506,75.98400901828488,394.46049937583314,509.3840068712559,508.02515696063557,188.0,360.18888548663995,496.3165869902087,0.7257240538159684,938.2687414237288,714.023936,84.03079641296506,73.0110669356865,435.8900768139479,557.2245955769384,555.644440938177,177.0,394.0172901763847,549.8868116719732,0.7165425353234873,truth
1784138349949592526,1784138359949592526,1470.4209738761067,1008.033792,25.509348911078682,76.06627550779749,1345.163716752555,1913.514461179043,1905.037877556862,113.0,1353.059051398224,1644.2464691918194,0.8229052497605667,1591.2071876923078,1008.033792,44.641360594387685,88.36072717486867,2338.710124813949,3124.089061626828,3108.8865915473402,104.0,2209.064560507048,2915.3296519554106,0.7577409158601853,1030.2084483975157,714.023936,71.42617695102031,69.14137990322043,545.3730013949063,732.9627639166789,730.6690895358553,161.0,518.2829407227182,678.641892295843,0.7637060821125689,894.4493391827958,714.023936,95.23490260136039,75.83216424882771,427.87243616402657,563.0993493605486,561.5755806134566,186.0,398.17136841457665,535.6112619664655,0.7433961843011174,968.7342289590644,714.023936,95.23490260136039,71.50828180547964,459.92520313195735,588.8355326376494,587.1013169833112,171.0,416.36959813167454,579.9832444370944,0.7178993567922537,truth
1784138350949592526,1784138360949592526,1441.5613684869566,1008.033792,46.08140448452923,72.85993899002256,1180.8789425199786,1661.1344332175988,1653.854417524834,115.0,1174.5994221906362,1448.8299598189285,0.810722758892586,1647.8128148686874,1008.033792,89.28272118877537,88.34429018864861,2472.2927836628733,3298.6907441317026,3281.8193261077377,99.0,2332.5265942128253,3082.8757775732706,0.7566073894968635,1036.6472512,714.023936,68.02493042954313,68.40030274512807,522.0611867141685,698.6744837804899,696.4747302865746,160.0,494.03746532319497,650.4300552521602,0.7595550994820887,882.2541744598931,714.023936,84.03079641296506,75.86004309804254,386.2159868528541,514.1319556920683,512.7480179040026,187.0,363.54619229456307,481.915615056734,0.7543772829435382,975.6680011294118,714.023936,37.59272471106332,71.17130235045965,463.3584504167295,583.1456932746731,581.4412746398835,170.0,412.3462741342518,586.8452796512772,0.7026490429969574,truth
1784138351949592526,1784138361949592526,1509.3533498715599,1344.0450560000002,44.641360594387685,68.06413445823745,1174.3057996599794,1670.8161148374618,1663.0628659729982,109.0,1181.4454049173305,1435.2984358069891,0.8231357155023087,1596.869065320389,1008.033792,35.713088475510155,89.63556292473245,2432.1309285838033,3223.8753862389876,3208.039916346082,103.0,2279.624147309988,3038.450029381499,0.750258890311263,1020.6599821349695,714.023936,44.641360594387685,69.33148606269624,521.9364403954389,702.7941634714571,700.6221196516053,163.0,496.9505187689943,649.11893099257,0.7655769921994195,881.5827445106381,714.023936,84.03079641296506,75.62786171931394,368.54778874686525,503.44479088083324,502.10411150572,188.0,355.9892255848805,456.38884825787164,0.780012980036132,963.5904416744186,714.023936,84.03079641296506,71.58943345352371,448.12344706351826,553.391537428052,551.7789333042934,172.0,391.30690876662464,570.1479625429998,0.6863251900810095,truth
1784138352949592526,1784138362949592526,1528.2347167706423,1344.0450560000002,42.01539820648253,65.56326885649142,1170.943605825936,1684.5305487790445,1676.7181696535831,109.0,1191.1429741575587,1425.7654307798434,0.8354410539369337,1656.8214985531918,1008.033792,3.79926473143725,86.75172854444016,2567.2419718719902,3131.8428874325223,3117.5252779543694,94.0,2214.547343314394,3275.569067565505,0.676080185651621,987.2830963809524,714.023936,68.02493042954313,71.29053688599525,516.6435320405267,701.5459541807985,699.4430868659196,168.0,496.0679015152296,640.9363439076923,0.7739737436182482,873.1871663157892,714.023936,64.93288813729119,76.6233522469421,394.09789354344247,541.0017291375649,539.5697535646676,190.0,382.54599130682,487.29414285244417,0.7850412259575577,937.0822609717515,714.023936,68.02493042954313,73.14247583531017,437.61416870337445,543.1018863756511,541.5576267116776,177.0,384.0310267314287,556.1226542352805,0.6905509491597793,truth
1784138353949592526,1784138363949592526,1554.8445753962267,1344.0450560000002,35.713088475510155,66.01417189712404,1202.1641561344697,1747.808560153132,1739.4775253741814,106.0,1235.8872851001754,1458.3170525824837,0.8474750280891148,1616.442537009709,1008.033792,44.641360594387685,87.02285045536185,2499.603559978192,3193.7481211049226,3178.053932166146,103.0,2258.3209538350857,3153.7325740851898,0.7160787735752014,990.0693343614455,714.023936,84.03079641296506,71.2316354227361,521.3122960145324,704.0718961789858,701.9351024919262,166.0,497.8540122310317,647.7682542426874,0.7685680935585181,865.0079447578946,714.023936,84.03079641296506,76.45985931412851,359.4682380426818,496.40058610675015,495.08561535680366,190.0,351.0082206210597,443.6568976712061,0.7911704347741072,941.1162945084747,714.023936,95.23490260136039,72.99067892670064,437.0962430106885,539.2466471858204,537.712726040599,177.0,381.3049609572033,556.2459120594331,0.6854971024334685,truth
1784138354949592526,1784138364949592526,1552.8744864299067,1344.0450560000002,178.56544237755074,65.54441097025565,1216.392698059613,1768.4088609311773,1760.0497284133712,107.0,1250.4538974748136,1475.603238316626,0.8474187810141542,1641.4150246400002,840.0281600000001,57.14094156081623,88.83420538725595,2598.4061873661226,3335.755907410157,3318.873732285087,100.0,2358.735622512807,3274.3873565339914,0.7203593728170202,948.0317805714286,714.023936,64.93288813729119,73.23698058638759,479.8505400901666,670.2969827723467,668.3691563332303,175.0,473.97154192720876,590.0750548627024,0.8032394150901561,867.5915840000001,714.023936,89.28272118877537,76.52665739433866,370.93783234993435,517.7832605140288,516.4260749580366,192.0,366.12805469435045,456.25089010302366,0.8024708830960898,926.8467128491621,714.023936,64.93288813729119,73.47873552556055,413.63229819155566,515.8694830346824,514.4197234498205,179.0,364.7748096610226,525.0266901147393,0.6947738401285937,truth
1784138355949592526,1784138365949592526,1566.4525116952382,1344.0450560000002,43.28859209152746,64.01595497141095,1145.3928060190037,1702.9311339988944,1694.7280869724887,105.0,1204.1541527443155,1377.9897490092167,0.8738484111439218,1601.875481346535,672.0225280000001,178.56544237755074,89.78825793314421,2520.7846141382033,3289.6255218342985,3273.136067010436,101.0,2326.1165140533676,3162.799570519113,0.7354612463386607,979.8681419294119,714.023936,95.23490260136039,71.83060684496891,513.9386152430479,726.2431497558766,724.0914840758663,170.0,513.5314559826577,629.6098175330886,0.8156344480058388,881.362878984127,714.023936,95.23490260136039,75.7114624612085,385.20454818278745,527.1983008462632,525.7944980616181,189.0,372.78549355841835,476.7395261331014,0.7819479466746376,935.8291243146068,714.023936,95.23490260136039,72.77788017556239,412.5434704731127,504.47386582759714,503.0470037703667,178.0,356.7168914580865,526.0805639198618,0.6780651404419218,truth
1784138356949592526,1784138366949592526,1537.1730254953272,1344.0450560000002,35.713088475510155,62.38041067682528,1111.9843087486856,1701.3929210353508,1693.3618628654474,107.0,1203.0664719268848,1322.62380814398,0.909605939738172,1703.0055429278354,1008.033792,44.641360594387685,84.94476260176492,2561.2610803873085,3379.0684923627737,3361.430394537678,97.0,2389.362245043521,3203.996047874251,0.7457444420472323,985.6661782721894,714.023936,89.28272118877537,71.42250963894172,514.6761166149015,718.9825367257747,716.9811468216495,169.0,508.39742727350125,632.8894358404427,0.8032958025257242,868.3956030994765,714.023936,89.28272118877537,76.23682896259862,358.4184467872967,499.360730617267,498.0497956911301,191.0,353.1013588777383,441.12048373906174,0.8004646619099424,901.4323923478261,714.023936,89.28272118877537,74.12822436915971,365.3128279364147,457.85318602462746,456.6005650660999,184.0,323.7510926258799,463.14094995106564,0.6990336152743277,truth
1784138357949592526,1784138367949592526,1638.878469019608,1344.0450560000002,25.509348911078682,62.880858089913474,1376.0739141509493,1968.7232537163404,1958.9980533762644,102.0,1392.0975629824682,1678.7468606024452,0.8292480514202669,1738.4161711157894,1008.033792,14.880453531462566,84.1689900394388,2587.9247901444955,3311.9640410799598,3294.424223723128,95.0,2341.9122324936407,3263.8065179384007,0.7175401543020757,975.4209340235294,714.023936,95.23490260136039,71.8498901582424,498.2837146187874,719.7921639919831,717.6621959149941,170.0,508.96992020367077,605.8449724744185,0.8400992718069668,888.2850968510639,714.023936,95.23490260136039,75.50209849147716,397.98453161510105,558.2580674868295,556.8221098278059,188.0,394.7480651720345,488.7436519600539,0.8076791659368665,916.1412087513812,714.023936,95.23490260136039,73.61632316105674,387.48196876847834,484.79717210143315,483.4522416832102,181.0,342.80336789298514,491.454451319759,0.6975282591752214,truth
1784138358949592526,1784138368949592526,1591.2071876923078,1344.0450560000002,35.713088475510155,65.73790597280569,1343.1184078993497,1869.5741086343164,1860.52213122856,104.0,1321.9885301461202,1653.5136160180896,0.7995026574559865,1577.033998490566,672.0225280000001,178.56544237755074,93.26617969173513,2484.7768464585465,3143.4274257600077,3128.449100599746,106.0,2222.738848922674,3142.920291407008,0.7072208783022012,945.9862574545455,714.023936,95.23490260136039,73.25207310937863,474.21387629038844,671.0051721240494,669.1061021311907,176.0,474.4723074201618,580.6854705246252,0.8170900280861096,871.8608060631578,714.023936,95.23490260136039,76.3638038937173,383.3561126302549,544.1340112639737,542.7090197169185,190.0,384.760849238993,468.9385488829063,0.8204931118492192,899.9653043891892,714.023936,95.23490260136039,74.50310583687882,379.2188570544893,472.65654998832906,471.45446749657106,185.0,334.21865166898584,481.41752100407496,0.694238653740558,truth
1784138359949592526,1784138369949592526,1583.3738336603776,1344.0450560000002,35.713088475510155,64.3362452065152,1307.2420878934856,1838.6269752364192,1829.8534609428139,106.0,1300.1056022621824,1603.940916680999,0.8105695096004306,1594.3734476800005,840.0281600000001,8.928272118877539,90.27149849235703,2403.4878617866225,2987.3821568995977,2972.287079604883,100.0,2112.3981811394,3053.2596950915818,0.6918501510157455,924.2643171555557,714.023936,84.03079641296506,73.95292530023822,441.1739164292881,628.0934690003884,626.3578334137261,180.0,444.12915114915717,539.1136221844868,0.8238136319938405,878.0504872421054,714.023936,84.03079641296506,76.10568529531805,396.56184176286854,568.817066795944,567.3214066391492,190.0,402.2144051860534,483.35739863493495,0.8321263030667575,866.4977973333334,714.023936,84.03079641296506,76.04067424065518,340.06524390058144,453.0039753050806,451.8174009820331,192.0,320.32218284268583,424.2470857976191,0.7550368489637449,truth
1784138360949592526,1784138370949592526,1604.130697846154,1344.0450560000002,43.28859209152746,64.62034874427725,1336.5705122189793,1872.3159384234636,1863.2450185164032,104.0,1323.9272965828854,1642.0870028558095,0.8062467422739468,1604.1306978461541,1008.033792,44.641360594387685,91.08275821726359,2590.609315351953,3362.7556782890374,3346.393396695994,104.0,2377.8273435917463,3255.070169997927,0.7304995651117593,929.4581242247192,714.023936,95.23490260136039,74.01330588893893,458.14894331388746,659.4201098090742,657.5548739186452,178.0,466.28043129677417,557.7563878738731,0.835992991625253,887.1680381276597,714.023936,64.93288813729119,75.61181242645291,402.0920386150061,565.569983355722,564.0602089279975,188.0,399.91837046639387,493.3443660536676,0.8106272169790816,857.4748987076923,714.023936,64.93288813729119,76.61093065746168,333.33974972030785,440.76319480483266,439.62595274379936,195.0,311.66664394394445,416.728603546186,0.7478887729130944,truth
1784138361949592526,1784138371949592526,1598.8535978666669,1344.0450560000002,11.073825883879117,64.44855515326961,1316.77630318334,1776.0568284255326,1767.6037706398056,105.0,1255.8618271523667,1636.827785932633,0.767253487474738,1628.2247952340429,1008.033792,19.56881560301926,87.34505666041765,2290.0692782443143,3071.363745097048,3055.0147546351513,94.0,2171.782131648634,2851.4059312280892,0.7616530876448222,954.5119978057144,714.023936,62.10971908784374,72.86626263712117,474.04707319497504,684.1189415441246,682.152342597561,175.0,483.74514270401386,576.5731295027376,0.8390004978574309,893.2598909946526,714.023936,37.59272471106332,75.22814695222439,399.5850011927903,551.7893949173047,550.3265146383752,187.0,390.174022932848,493.17183848095294,0.7911522769318003,862.3414080000001,714.023936,71.42617695102031,76.50962757857604,342.97344367197144,454.19119572338417,453.00150717675365,192.0,321.16167445123136,428.58972871530943,0.7493452430927547,truth
1784138362949592526,1784138372949592526,1554.8445753962264,1344.0450560000002,89.28272118877537,65.24780252300307,1327.0492963599572,1818.4316495320134,1809.754564601672,106.0,1285.825350508326,1641.7814269670569,0.7831891196891502,1648.451300118812,1008.033792,59.52181412585026,85.85031550664736,2266.8888388182786,3045.933538772108,3030.7326612951097,101.0,2153.8002603092955,2821.0179429531413,0.7634833609227673,952.6793352138728,714.023936,84.03079641296506,72.82388073347074,458.7351301656587,659.449716152157,657.543021139756,173.0,466.30136614273414,558.7104413405191,0.8346029206540923,876.4738262010583,714.023936,71.42617695102031,76.00685752590897,381.36995411209773,527.153325493423,525.7498798408491,189.0,372.75369118143874,470.54588156122816,0.79217289065346,883.3772067593583,714.023936,89.28272118877537,75.54793791405542,375.44229237120027,514.59044863463,513.2102446434129,187.0,363.87039576337463,464.4491332163149,0.7834450960077555,truth
1784138363949592526,1784138373949592526,1632.701791372549,1344.0450560000002,59.52181412585026,63.32029563679743,1353.0812606687625,1830.9986942437372,1821.9239457144088,102.0,1294.7115930434604,1680.3329257517298,0.7705089706935582,1692.0567222857148,1008.033792,12.754674455539341,85.65558315399225,2310.1994652352373,3115.440149009516,3099.66671171247,98.0,2202.948855745457,2871.8550290415506,0.7670821937278173,964.8042726549708,714.023936,64.93288813729119,72.16750960412813,467.7395432751005,660.529606718726,658.5851657715825,171.0,467.06496408529443,573.1367379154825,0.8149276310292468,892.8686410322581,714.023936,52.908279222977995,75.41172046362904,409.73546803868015,581.1791962697472,579.6079140358463,186.0,410.95575076688567,501.3222446626174,0.8197436980747841,897.8365495053764,714.023936,84.03079641296506,75.3519017478018,408.2671384381973,556.6000631025742,555.0941180833984,186.0,393.57567902869044,505.8786466096202,0.7780041353127276,truth
1784138364949592526,1784138374949592526,1486.5498331428573,1344.0450560000002,89.28272118877537,68.02636537862354,1231.4566835766443,1549.4571952236665,1542.4886009327188,112.0,1095.6316899009428,1559.732902484774,0.702448276980961,1700.5903416888889,1008.033792,19.56881560301926,84.28233406093018,2295.3039179349003,2934.0701911245933,2919.1750946541583,90.0,2074.7009286215093,2895.6256974552375,0.7164948599692351,994.283331047619,714.023936,64.93288813729119,70.63938292285636,487.7307156256546,660.6301889044669,658.6540861825583,168.0,467.1360864308984,605.5199751506456,0.7714627189873975,902.916754681081,714.023936,64.93288813729119,75.14124887941755,428.491436120025,591.0018706286456,589.3958652593507,185.0,417.90143041545,529.0453845226923,0.7899160311028571,907.8239109565219,714.023936,37.59272471106332,74.87818854952927,415.7417543698651,556.8297634181968,555.3313769882016,184.0,393.7381016795079,517.8489802017333,0.7603338361815896,truth
1784138365949592526,1784138375949592526,1467.8191167433629,1344.0450560000002,44.641360594387685,71.63608083254493,1252.9073097402413,1565.8840047497968,1559.1115973847716,113.0,1107.2471983101293,1589.5141630442438,0.6965947357081268,1613.1802917281555,1008.033792,178.56544237755074,86.53977506913151,2289.42190045015,3009.8546638546263,2995.080438426727,103.0,2128.2886431975626,2866.7226936241486,0.7424117609739754,988.1514686863906,714.023936,28.570470780408115,70.87683239883928,480.9697249677096,648.159389457895,646.2867037757962,169.0,458.31789957541,598.0268423201593,0.7663834917464211,893.0352845347594,714.023936,43.28859209152746,75.24915932403741,396.0029770419547,537.1021407760317,535.6717933779807,187.0,379.78856593254363,491.4438302040557,0.7728015748510854,922.6386641325968,714.023936,43.28859209152746,74.29284792731403,440.6457406137532,592.1300652589321,590.4979064397365,181.0,418.6991844890238,548.3455424239348,0.7635681374160249,truth
1784138366949592526,1784138376949592526,1524.6118567476638,1344.0450560000002,89.28272118877537,69.1822042782885,1324.3514853946472,1653.7019457212643,1647.7897379253761,107.0,1169.343859880894,1680.515153877954,0.6958246447123776,1713.7449493333336,1008.033792,11.073825883879117,86.28971611894947,2429.0404049361046,3210.482308404576,3193.6656824910747,96.0,2270.1538111523164,3037.050446482511,0.7474863691452974,1012.3612097939393,714.023936,84.03079641296506,70.02677700591249,520.741122457999,700.9520185874682,698.8118898035642,165.0,495.6479256295977,647.6952988459711,0.7652486076596768,898.0623635268819,714.023936,84.03079641296506,75.45637867062494,423.6074003014091,593.2949637035088,591.6894652625316,186.0,419.5228920785776,520.467799860135,0.8060496580025043,934.413346516854,714.023936,89.28272118877537,73.72553480618788,451.78613615816994,611.4595326452799,609.7298454188237,178.0,432.3671819546345,561.026501721408,0.7706715825865521,truth
1784138367949592526,1784138377949592526,1463.4174787368422,1344.0450560000002,44.641360594387685,69.87691464538246,1120.438920437589,1532.0955825580352,1525.3013336367014,114.0,1083.3551758527408,1387.0607522164407,0.7810437820561238,1685.147399757576,1008.033792,44.641360594387685,86.15653474778948,2485.164760412819,3302.4763454345903,3285.5909285663533,99.0,2335.203418564966,3102.4990362217127,0.7526846555958402,1017.5678539386504,714.023936,95.23490260136039,70.09945137797261,531.6554309448765,678.4644936471782,676.367424665151,163.0,479.746844252217,670.9966298137302,0.7149765333179028,900.4193736648648,714.023936,84.03079641296506,75.23381838557364,416.9387171320669,564.6188874725242,563.0825066995844,185.0,399.2458441178261,517.665109568715,0.7712434868373722,920.3181443535913,714.023936,84.03079641296506,74.05691193775591,427.1472483458424,563.3156045336422,561.7486596220343,181.0,398.32428391393785,534.3953835514243,0.7453737367018395,truth
1784138368949592526,1784138378949592526,1461.5003208495577,1344.0450560000002,25.509348911078682,70.88495843738092,1140.9085359214037,1584.2197204147474,1577.206399914567,113.0,1120.2125071947244,1405.6694291471579,0.7969245712872729,1696.0774756288663,1008.033792,34.84203753708307,85.08880921872186,2493.492357943864,3317.7590737595156,3300.477949988669,97.0,2346.0099393985524,3111.7723182087893,0.753914393309139,1036.6472512,714.023936,84.03079641296506,69.16693841136603,547.4159905489687,743.5914607717438,741.2494346054441,160.0,525.7985643441107,679.0408443416738,0.7743253866472043,911.3382428131869,714.023936,43.28859209152746,74.50376465549547,420.45914174393795,554.4838610258734,552.9624810755481,182.0,392.0792981898943,526.0310748592309,0.7453538715271091,931.8177538876405,714.023936,84.03079641296506,73.70611722384699,447.4386341358544,603.7308105133104,602.0229405838752,178.0,426.9021501252124,556.1294271515878,0.7676309313674368,truth
1784138369949592526,1784138379949592526,1500.3205650450454,1302.043648,57.14094156081623,71.21811387281022,1326.7655609901483,1773.6310285259456,1765.590340990513,111.0,1254.146527593567,1653.533172126131,0.7584646916886293,1706.8657293617025,1008.033792,16.233222034322797,85.75745979922884,2466.646190995482,3216.368296981077,3199.129231046149,94.0,2274.315833588747,3095.5501300493906,0.7347048951045284,1073.6101838451611,714.023936,43.28859209152746,67.50346653264647,567.8433631005572,757.6153277205353,755.1611848042991,155.0,535.7149357620591,708.0938665427268,0.7565592092721986,915.4922282197803,714.023936,43.28859209152746,74.75842290315276,442.27521323529453,601.8946982909088,600.2411859445044,182.0,425.6038227217326,548.3114274998967,0.7762081936944727,963.1189915375725,714.023936,43.28859209152746,72.22114030035654,472.28154679091,626.5195546839026,624.7078402026468,173.0,443.01622566296356,589.8881510745068,0.7510173324485164,truth
1784138370949592526,1784138380949592526,1447.770272278261,1008.033792,35.713088475510155,73.44973226093724,1299.9897558194073,1743.1779851090776,1735.5381529455765,115.0,1232.6129740857314,1618.7276974613635,0.7614702435862607,1648.451300118812,1008.033792,178.56544237755074,87.02100487960612,2399.7062990999298,3112.6912640170112,3097.0905260250133,101.0,2201.005100526555,3015.786616723373,0.7298278625952418,1058.3284716433122,714.023936,89.28272118877537,68.00298168942358,559.9737981921928,722.9653626333119,720.6607360473081,157.0,511.2137104810062,704.6073945337945,0.7255298687565609,912.9536815824175,714.023936,89.28272118877537,74.86879754090637,436.952744277399,577.5275052013814,575.9450621087999,182.0,408.37361524964587,546.3249002627166,0.747492224962229,961.8810820465117,714.023936,89.28272118877537,71.84510969649456,448.42148996828763,568.0657358893245,566.4023427180086,172.0,401.6831340070677,566.9999958182435,0.7084358676712063,truth
1784138371949592526,1784138381949592526,1442.785208140351,1029.0344960000002,44.641360594387685,73.41010249148299,1238.8003204413415,1663.5780848586658,1656.200762100686,114.0,1176.3273448368923,1541.875305187042,0.7629198942869082,1535.8784098461542,672.0225280000001,25.509348911078682,92.7032783894328,2322.044568820946,3018.1201194499827,3003.4492614587466,104.0,2134.133202898636,2916.5938516229016,0.7317210799546616,1053.2251803544304,714.023936,68.02493042954313,68.26496455199495,560.4597899942195,734.3916661854964,732.0586840809565,158.0,519.293327206652,702.4226452500316,0.739288988927466,919.5974940444445,714.023936,84.03079641296506,74.58430223941458,447.56132576913564,587.296124104317,585.668564191423,180.0,415.28107191873875,560.7076745519579,0.7406373958597507,968.7185205581394,714.023936,44.641360594387685,71.34546803249592,451.04774351169397,576.015145042936,574.3336728691063,172.0,407.30421512601276,569.1570714875403,0.7156270835069986,truth
1784138372949592526,1784138382949592526,1442.785208140351,1176.039424,89.28272118877537,74.06275396216118,1240.4123590394358,1654.4205274460141,1647.126760571673,114.0,1169.8519738913014,1546.9223705496245,0.7562447839419704,1645.1244559207926,672.0225280000001,22.320680297193842,90.48111962880121,2537.386154695194,3350.590495620331,3333.837782732045,101.0,2369.225260432331,3173.3330787584214,0.7466046587707394,1066.4588274871796,714.023936,43.28859209152746,67.15585677627357,549.8004173543117,721.4288111759371,719.0986726681032,156.0,510.12720452585444,688.8004903070765,0.7406022668457057,919.1578844640884,714.023936,43.28859209152746,74.1780729682793,423.3905300936646,543.9891684908653,542.4888300496018,181.0,384.65842993192217,533.4210607832642,0.7211159405050447,948.1697162298851,714.023936,84.03079641296506,72.19000064321948,422.5619886777348,568.376996351907,566.7469361767592,174.0,401.90322839087503,525.6939851805994,0.7645193586394247,truth
1784138373949592526,1784138383949592526,1381.4963114666668,1008.033792,89.28272118877537,76.11607642548455,1223.3878453332077,1671.2503201704699,1664.2134454628188,120.0,1181.7524344527278,1514.954201304641,0.7800581914852819,1522.5510400000003,672.0225280000001,59.52181412585026,92.70823344922627,2442.71276647513,3002.401609928228,2990.847337597072,108.0,2123.0185382256577,3111.2838928931355,0.6823609195789251,1040.0598656,714.023936,43.28859209152746,68.4060044849246,531.6037942378857,700.7644272926653,698.6220168792863,160.0,495.515278552951,665.159749576392,0.744956800029648,909.3419589945355,714.023936,29.76090706292513,74.60905166593241,408.54500524568795,516.1887068885086,514.7773950376944,183.0,365.0005350127796,516.9190916793369,0.7061076692427569,952.5146894712643,714.023936,44.641360594387685,72.11676684312235,445.80656660634344,608.2447988951793,606.4847555652757,174.0,430.0940219202291,552.2649326300856,0.7787820600376809,truth
1784138374949592526,1784138384949592526,1534.0327333084117,1302.043648,19.84060470861675,71.20083749115413,1310.9648532538386,1842.483190564316,1833.7962954526893,107.0,1302.8323582702537,1608.9038554418662,0.8097639606391809,1406.4993235478264,672.0225280000001,178.56544237755074,95.77832697663268,2111.712789794534,2748.0140967504904,2735.9348554320545,115.0,1943.1394026084972,2651.5592477217574,0.7328289587638139,1052.9593486582278,714.023936,95.23490260136039,68.52391215258574,562.0128622298555,766.2322386904282,763.7882978967137,158.0,541.808011941751,696.3755838062193,0.7780399321015254,909.1124431038253,714.023936,95.23490260136039,74.86734881012458,416.6998848901123,529.68180724168,528.2248347206992,183.0,374.54159777173766,526.4379202756604,0.7114639416089464,961.6622953063585,714.023936,95.23490260136039,72.03861864868306,470.18075208245824,643.9893645742367,642.1147592412408,173.0,455.36924670245855,581.7725533543756,0.7827272773129245,truth
1784138375949592526,1784138385949592526,1552.4819499065422,1302.043648,178.56544237755074,69.00375526558346,1325.390466716978,1855.2501008570337,1846.6115057334607,107.0,1311.8599271130347,1628.75152934571,0.8054389533804616,1664.9358131200001,672.0225280000001,178.56544237755074,93.50195608328588,2547.802316526902,3251.033215584917,3234.573962838283,100.0,2298.8276326028017,3215.631982362191,0.7148913946657824,1038.4848127999999,714.023936,33.22147765163735,69.15851035462036,551.8886865111377,743.1295236426793,740.7927673852901,160.0,525.4719254676673,686.3686126059589,0.7655826851880513,923.0976113777779,714.023936,89.28272118877537,74.09432048079461,419.89569808267987,526.6808113564078,525.2076278474402,180.0,372.4195732309488,532.237376810311,0.699724576772215,950.0087254566475,714.023936,84.03079641296506,72.44126382315356,449.1244582048006,619.5441849347797,617.7405590263846,173.0,438.08389441207515,554.4968968748934,0.790056530308981,truth
1784138376949592526,1784138386949592526,1483.9247451428575,1302.043648,54.94321303924639,70.25727936902796,1196.967280762017,1654.0387032779643,1646.5853086507686,112.0,1169.5819834328522,1476.9902959885255,0.7918684277137177,1466.9380645925933,672.0225280000001,57.14094156081623,92.78868620513866,2215.891329182909,2761.4912261324553,2748.556797921375,108.0,1952.669172185413,2813.163755897329,0.6941185588972443,1019.1139180368099,714.023936,43.28859209152746,69.7679649688749,518.4970318535665,707.7505965143326,705.5628472725065,163.0,500.45524618410866,642.2231834536326,0.7792544073118791,943.838458181818,714.023936,89.28272118877537,72.84473818822738,434.1973835220103,535.755682727633,534.2228130910897,176.0,378.83647631593783,552.5361506915012,0.6856320185418139,982.9323588165681,714.023936,43.28859209152746,71.61047246735869,509.4321441141179,659.5394071585375,657.5857291684027,169.0,466.3647872615573,640.5420841089647,0.7280782931074713,truth
1784138377949592526,1784138387949592526,1544.7184497777782,1344.0450560000002,14.880453531462566,66.62283262366793,1195.5924915777505,1619.6571521990545,1612.215455581674,108.0,1145.2705555172436,1484.271029551813,0.7716047357355393,1356.3381510243908,672.0225280000001,57.14094156081623,97.90198129859829,2097.6641427584273,2594.167085987869,2583.5134003160606,123.0,1834.3531380329678,2667.9512728165028,0.6875512145679025,1029.1649351552796,714.023936,64.93288813729119,69.02071725769491,518.5754705964138,712.8407921019563,710.6108852165636,161.0,504.0545580016832,640.9411351188562,0.7864287847716487,946.8317403428571,714.023936,64.93288813729119,72.64776507408442,436.5777009701683,552.2563281418078,550.6684206674227,175.0,390.5041945822555,552.2258731494092,0.7071457777868394,1004.2154821818182,714.023936,64.93288813729119,71.04515675099061,550.2144992227384,714.9922036174241,712.8101664280478,165.0,505.5758356733934,691.1356795170052,0.7315145935262829,truth
1784138378949592526,1784138388949592526,1630.4182923636363,1344.0450560000002,6.1574290475017515,66.78328937211397,1480.1945761438026,1990.1771725324545,1981.1842808743143,99.0,1407.2677744603682,1841.6706198377994,0.7641256581398415,1505.9964309909915,672.0225280000001,19.56881560301926,94.04896180503239,2212.741550627953,2457.72320538375,2448.0208335207353,111.0,1737.8727448063876,2877.9071390822105,0.6038668590817041,1024.9908821863355,714.023936,95.23490260136039,68.62496429108681,490.2748920127211,658.6779159977223,656.6373105754341,161.0,465.7556210198125,610.1432538514173,0.763354536954749,934.8852724494382,714.023936,43.28859209152746,72.9463887513697,406.705831381774,496.60977201623894,495.21948708960457,178.0,351.15613739618794,518.8101291844395,0.676849039065986,1002.4673403373494,714.023936,43.28859209152746,70.8420035836143,537.1751978613736,688.1278844605145,686.0515691247426,166.0,486.57989342558284,677.2993356351282,0.7184118864804425,truth
1784138379949592526,1784138389949592526,1641.7609185882357,1344.0450560000002,89.28272118877537,68.07959355616084,1589.848510329131,2367.044364672539,2355.2995232994717,102.0,1673.7531216293555,1911.677748866034,0.8755414570380335,1552.4819499065427,672.0225280000001,16.233222034322797,92.44368754708756,2249.9299603435443,2651.712326895674,2639.2431419243153,107.0,1875.0437681038902,2892.4859700178995,0.6482464522005225,1018.7902501463414,714.023936,28.570470780408115,69.21212897213671,494.75465367574935,682.8113601597383,680.7351319416042,164.0,482.82054304016094,610.7425777500889,0.7905467223503899,943.9638475932202,714.023936,84.03079641296506,72.77101098446035,446.9762338575751,580.1946583290498,578.5511176115768,177.0,410.2595773126832,561.621800572781,0.7304908336789488,988.6485267692307,714.023936,84.03079641296506,71.49878028218664,529.0026104987387,686.925159558772,684.8842589862343,169.0,485.72943849165875,664.6209296435446,0.7308368076102711,truth
1784138380949592526,1784138390949592526,1661.1556864000001,1344.0450560000002,44.641360594387685,66.29448559422146,1592.525763123466,2365.8226283946738,2353.854752271217,100.0,1672.8892236224553,1916.5065706038904,0.8728846794902084,1712.531635463918,1008.033792,44.641360594387685,88.61793986949253,2477.0558501795895,2940.948991833764,2925.5998258002587,97.0,2079.564975249395,3179.515077283932,0.6540509872423194,1008.0337919999998,714.023936,43.28859209152746,69.19338864202146,467.1131569832662,668.5210494791945,666.5030867449831,166.0,472.7157674526859,569.7888244381037,0.8296332732023197,940.0764577078652,714.023936,43.28859209152746,72.89328790641407,449.6954363079784,596.4963617434283,594.8196071226417,178.0,421.7866223418821,561.6938609947232,0.7509190532987586,984.315349835294,714.023936,43.28859209152746,71.79644758738158,531.5926518923599,697.0545864642198,694.9992332888818,170.0,492.89202494603444,666.1157714423239,0.7399494893789823,truth
1784138381949592526,1784138391949592526,1482.7997074285715,1029.0344960000002,44.641360594387685,72.99478115247393,1507.6174264316144,2217.996212045691,2207.9847090733037,112.0,1568.3601621835837,1820.9733138622075,0.8612757530516238,1486.1432774579441,672.0225280000001,44.641360594387685,92.12585501323707,2134.605175322681,2378.8770895457965,2367.6293807217307,107.0,1682.1201216271504,2774.5836547556605,0.6062603730631736,996.21303645509,714.023936,43.28859209152746,69.64563958820423,454.91981188930373,637.9472357393031,636.0228556320917,167.0,451.0968164304743,558.7127183105325,0.8073859814656209,920.2975175111112,714.023936,95.23490260136039,74.34881777382763,450.71653153284484,597.4664325612214,595.7953793335408,180.0,422.4725659953747,563.0712646589575,0.7503003483071703,977.0853861052632,714.023936,84.03079641296506,72.49853260539453,544.506801939601,725.7186741818621,723.5810593052864,171.0,513.1605957477053,679.1968906016236,0.7555402606351075,truth
1784138382949592526,1784138392949592526,1573.4678412075475,1008.033792,13.735803259811597,71.97640870131814,1616.3896286760237,2358.2262407145713,2347.1878847395196,106.0,1667.5177663813329,1958.347035840209,0.85149247598289,1344.7224980645162,672.0225280000001,44.641360594387685,99.4163046180577,2013.3480642708173,2220.0888121319385,2211.047330526916,124.0,1569.839853894881,2622.011112174726,0.5987159423564905,1000.4886288862277,714.023936,84.03079641296506,70.1689413488587,505.60222023558293,709.9318594512001,707.7902803351767,167.0,501.9976319983186,620.6983155675083,0.8087626781125369,943.9638475932204,714.023936,43.28859209152746,73.00861678832747,461.9084717387481,616.806456823854,615.0635217409651,177.0,436.14802829979465,575.8526905669127,0.7573951384518457,988.6485267692308,714.023936,84.03079641296506,71.70799369145858,544.1110630273014,722.8773684197947,720.7352681531224,169.0,511.1514891759231,679.320083152278,0.7524457201441844,truth
1784138383949592526,1784138393949592526,1646.964301575758,1302.043648,178.56544237755074,70.80556477705174,1704.7465088794927,2511.754823995778,2498.916297787227,99.0,1776.078868725438,2057.9342178765382,0.8630396702174814,1433.2059396491234,672.0225280000001,19.84060470861675,98.36466507237125,2107.6625764347614,2364.5476200454427,2354.1819605847545,114.0,1671.9876565726445,2736.1856132838634,0.6110651442852921,1012.3875964878048,714.023936,84.03079641296506,69.73933735666844,522.2737709974023,736.2089335554825,733.9508134960187,164.0,520.5783292871981,640.3427873272009,0.8129682095118129,925.438844424581,714.023936,44.641360594387685,73.77191826017996,445.83466293637764,608.5250508751176,606.8236257363329,179.0,430.2921899956845,552.2331110731643,0.7791857847123476,996.21303645509,714.023936,44.641360594387685,71.25354708640745,551.0532857745212,695.6901043840227,693.6018707369758,167.0,491.9271904143195,697.3688171916846,0.7054046270599225,truth
1784138384949592526,1784138394949592526,1664.0957849600004,1344.0450560000002,29.76090706292513,66.98902622191436,1655.7162554284707,2464.6442458000815,2452.164954242783,100.0,1742.766659417642,1991.0235614857224,0.8753119215310398,1399.9251901217392,672.0225280000001,12.004399487566436,95.95091013345103,1950.0481019824824,2103.21860234099,2094.813644821749,115.0,1487.2001360330066,2549.4103392319307,0.5833506333394177,982.0917458823529,714.023936,84.03079641296506,70.84333717163928,481.2830726595035,667.6251351279005,665.6470286272729,170.0,472.0822603395236,593.1576196876417,0.7958799561373304,918.4617285303867,714.023936,89.28272118877537,74.28896427660202,445.3691858840737,609.7098004395689,608.013803272675,181.0,431.1299344467158,551.1541647144385,0.7822311107275964,993.7833142857143,714.023936,84.03079641296506,71.60786627830605,555.4044935695865,715.3953822882017,713.2616155279925,168.0,505.86092604553,699.2858247560558,0.7233965113221026,truth
1784138385949592526,1784138395949592526,1740.4333440000003,1344.0450560000002,35.713088475510155,63.70161386032496,1687.3664841754928,2536.52358724009,2523.1406241332775,96.0,1793.5930291770949,2021.3666977273554,0.8873169975510387,1418.7933244745764,672.0225280000001,7.440226765731283,96.80983149406971,1958.8894342428955,1909.0482083759996,1902.0196771456485,118.0,1349.9009337546984,2600.6497968202098,0.5190629416560467,983.3270814117647,714.023936,84.03079641296506,70.52592685736367,475.7095689017684,656.5787492472474,654.6335151610004,170.0,464.27128597571044,587.2182510776063,0.7906281610350574,913.4732450273224,714.023936,84.03079641296506,74.48087301873441,440.54129592089464,607.231211798876,605.5608722557693,183.0,429.3773076111099,544.0320125485629,0.789250076663056,984.9205911479289,714.023936,43.28859209152746,71.88796545709671,546.093517545148,693.8482992965224,691.7948294413701,169.0,490.6248375473242,689.9854304262493,0.7110655035777104,truth
1784138386949592526,1784138396949592526,1638.4666905098043,1344.0450560000002,57.14094156081623,66.40643158821995,1650.7902448845127,2459.6124170853677,2447.41603897619,102.0,1739.2086192116983,1984.387450736778,0.8764460884722649,1638.0549120000003,840.0281600000001,6.1574290475017515,96.10645900533027,2478.0302084457117,2584.3777542794546,2573.2385836882104,102.0,1827.4310351986635,3257.5320925104274,0.5609863489603714,968.7342289590644,714.023936,84.03079641296506,70.8262378009748,453.19742940134404,622.3218659530039,620.5030232640544,171.0,440.04801149603463,560.3166014149191,0.7853560119132994,886.7716624516129,714.023936,84.03079641296506,75.56031708442846,408.4653083876383,574.8496377568403,573.305393205984,186.0,406.48007702049216,501.0736371084836,0.8112182460169788,954.6871760919541,714.023936,84.03079641296506,72.2596988481583,466.90382101502166,633.3844694848583,631.5568720097964,174.0,447.87045347098723,579.4000212380915,0.7729900535970896,truth
1784138387949592526,1784138397949592526,1556.0521630476194,1344.0450560000002,57.14094156081623,69.72688543955853,1480.7802546121873,2199.273752482094,2188.677799247294,105.0,1555.1213840656735,1782.1950132658044,0.8725876643633812,2071.0323895308643,1008.033792,5.952181412585024,88.76461271861422,3196.557174170856,3299.796366019642,3279.43324975414,81.0,2333.3083869472157,4208.7755370401055,0.5543912633050884,934.6493094831462,714.023936,84.03079641296506,72.71008935218835,436.9435808539793,601.2019445916034,599.5012284697726,178.0,425.11397188326174,539.8874337802414,0.7874122368558449,862.0081714404146,714.023936,84.03079641296506,76.86608956017473,388.6802496045984,545.9083415975156,544.4848493660381,193.0,386.01549024990544,477.1170647848894,0.8090582348462896,925.8977052444443,714.023936,84.03079641296506,74.16125052744452,471.0844973458332,637.5795007880754,635.7981797592163,180.0,450.83678855278185,584.9908566147507,0.7706732224187278,truth
1784138388949592526,1784138398949592526,1515.8689978181822,1344.0450560000002,57.14094156081623,65.06420701362525,1081.3213335572264,1537.080813565399,1530.0277610470764,110.0,1086.880266503829,1322.065541474491,0.8221077037463956,2021.1279946024101,1008.033792,35.713088475510155,87.418852380601,3012.1360269535594,3051.1698605743018,3033.74334084212,83.0,2157.5028989641014,3977.24999342811,0.5424609724128721,958.5493745287357,714.023936,31.744967533786802,71.75647337079361,464.99077788073146,616.9164688949045,615.1740079224222,174.0,436.2258185812468,580.7636047737634,0.7511245797697303,877.8294272,714.023936,31.744967533786802,76.11617429073219,403.89421506642213,560.0272841922686,558.5835528520834,190.0,395.9990903018389,497.8488065349765,0.7954203868800837,926.3906056629213,714.023936,44.641360594387685,74.12709632989852,471.6700526968431,641.8687262043812,640.0656818875868,178.0,453.8697289306894,584.7618419512996,0.776161671931543,truth
1784138389949592526,1784138399949592526,1456.4172440701757,1344.0450560000002,89.28272118877537,65.86201288571772,1028.9035697151578,1459.9643504343906,1453.4899755154559,114.0,1032.3506924827707,1258.7339414706992,0.8201500400287742,1796.2602154666668,1008.033792,44.641360594387685,87.26533606552394,2679.5897476867012,2764.574576196764,2749.022716853274,90.0,1954.849429924658,3528.4110141786173,0.5540310984375865,973.4010520701753,714.023936,84.03079641296506,71.15887867686872,480.64968833261355,633.5874564562206,631.723582806425,171.0,448.01398693492996,601.4066673589605,0.7449434987183551,874.5135265684211,714.023936,84.03079641296506,75.96404804416261,366.51542076761496,494.94289193776075,493.6317826361047,190.0,349.9774751892712,455.43933816809806,0.7684392757924176,949.4718288457144,714.023936,84.03079641296506,73.16836015538262,496.5366562985373,676.0165736877811,674.0711982194126,175.0,478.0159034491254,615.5060520588906,0.776622588600298,truth
1784138390949592526,1784138400949592526,1424.8169944615388,1344.0450560000002,158.724837668934,68.74610404401751,1032.3934691615043,1445.8386293458418,1439.5931224457868,117.0,1022.3622993119079,1268.4873727426248,0.8059696306644627,1777.0170171914897,1008.033792,19.84060470861675,86.55740728816329,2626.174584372483,2709.0058394886287,2694.440686472296,94.0,1915.5563993763653,3458.1653713511296,0.5539227288682103,996.6478681445784,714.023936,44.641360594387685,70.15319092399046,501.28151586979527,656.9647507329437,654.9820526967335,166.0,464.54423024379435,628.2241999310755,0.7394561213890852,880.0188622978724,714.023936,95.23490260136039,75.89307797981148,393.41592235513457,534.3242669976036,532.893866706467,188.0,377.8243125465368,488.03337011873583,0.774177209346595,934.649309483146,714.023936,64.93288813729119,73.90970662180223,483.4428640914191,660.3381885951397,658.4712532625973,178.0,466.9296110320646,598.68386887618,0.7799268283419127,truth
1784138391949592526,1784138401949592526,1474.211581693694,1344.0450560000002,25.509348911078682,64.70065746622777,972.9627412611378,1404.8758320385455,1398.4754532756976,111.0,993.3972275595487,1183.1711481874786,0.8396056894062638,1912.2710010114945,1344.0450560000002,59.52181412585026,81.34051214295509,2715.36135039762,2857.690419478747,2841.0381059696683,87.0,2020.6922741452515,3564.3759472130905,0.5669133402511,1002.2143198072289,714.023936,25.973155254916474,70.77983527780061,529.524866556002,696.3262090094777,694.2159096420964,166.0,492.37698430852294,663.0049933929049,0.7426444585112413,875.3626778412699,714.023936,89.28272118877537,76.3393897297622,395.6626894118347,546.398229111348,544.9431505423249,189.0,386.361893032955,488.3238386472728,0.7912001472285951,932.2896798202247,714.023936,51.018697822157364,74.33694872764148,511.6915295151808,696.631948003171,694.6661778930405,178.0,492.5931744242366,634.2967956804583,0.7765972929057516,truth
1784138392949592526,1784138402949592526,1416.201321025641,1344.0450560000002,44.641360594387685,66.30165604350708,849.1366447062866,1208.6119426669384,1203.3946185461123,117.0,854.6177004828389,1037.7284691945254,0.8235465498466904,1938.4138180465118,1176.039424,35.713088475510155,77.96061881570381,2721.228462512799,2870.6591899055197,2853.7476412627393,86.0,2029.8625796576741,3570.713884397949,0.5684752812391535,989.0331550476191,714.023936,84.03079641296506,70.71343640381227,478.6428235973951,632.5630653448559,630.666320249411,168.0,447.2896330334967,598.4679584179542,0.7473911121589596,875.6188267789473,714.023936,64.93288813729119,76.17560631592751,390.2779774612502,539.2122473708537,537.785015952273,190.0,381.28063661476875,481.60807453136266,0.7916824006445089,933.4694946516854,714.023936,84.03079641296506,74.76376683305384,532.6763412616422,701.0044031937006,699.021359890679,178.0,495.68496713989435,666.8105996124685,0.7433669582156799,truth
1784138393949592526,1784138403949592526,1399.5599604869565,1344.0450560000002,44.641360594387685,66.12391943163762,821.579798980529,1115.9796904465097,1111.1065757306953,115.0,789.1168067811913,1019.13397785252,0.7743013420512069,1660.3156582400004,1008.033792,178.56544237755074,89.20667045497957,2545.905777030104,2588.1184451858876,2575.013963791733,100.0,1830.076103104925,3359.86356560094,0.5446876241766682,986.0330544761905,714.023936,89.28272118877537,70.59936222058985,461.54544544905605,627.3846952459386,625.5198598124788,168.0,443.6279724210587,572.4032734640197,0.7750269661044216,866.4977973333333,714.023936,84.03079641296506,76.58239698396483,379.35103450260993,520.4572206757217,519.092979218713,192.0,368.0188300573062,469.1433524180285,0.7844485660097009,914.1075664175823,714.023936,84.03079641296506,75.48621481280045,502.20402338630106,694.6688082754439,692.7471758022809,182.0,491.20502501034406,619.4970330139366,0.7929094068789407,truth
1784138394949592526,1784138404949592526,1403.3411614117651,1344.0450560000002,59.52181412585026,67.21534420531026,916.0429051705624,1232.3928393570989,1227.1630288909155,119.0,871.4333337951482,1139.548674081974,0.7647179568675986,1431.831782630631,1008.033792,59.52181412585026,91.08842712876721,2252.5342298414794,2354.7576459293687,2347.0551329730947,111.0,1665.0650994875277,2960.0000034542886,0.5625219924136535,1008.2883459878789,714.023936,84.03079641296506,70.44199610921402,555.1712008679233,782.5387001017344,780.1553166911303,165.0,553.3384213828424,680.6896651610307,0.8129085098595396,875.6188267789472,714.023936,84.03079641296506,76.29163613734356,403.26367374397967,557.087332736665,555.61800185722,190.0,393.92023069122234,497.6510896693273,0.7915590639075448,909.1124431038253,714.023936,84.03079641296506,75.4945310722449,490.60643533678314,669.2554765490454,667.4200754683078,183.0,473.2350858140644,607.7940650952492,0.7786109029213741,truth
1784138395949592526,1784138405949592526,1335.980785664,1344.0450560000002,178.56544237755074,72.06831354615393,893.1803621091883,1213.6581567033845,1208.7666167071714,125.0,858.1859126473288,1107.836083625117,0.7746506232574856,1250.2744706976746,672.0225280000001,44.641360594387685,94.70241987521476,1779.9762341295839,1881.2548757552347,1873.8936534291627,129.0,1330.2480797867825,2334.9198725532447,0.569718942146032,1023.8491369876543,714.023936,89.28272118877537,69.68064330209526,561.4629138849145,791.5691158819184,789.1070407051056,162.0,559.7238896179446,688.3573134875211,0.8131298653342361,863.8727093333333,714.023936,44.641360594387685,77.09634692750619,398.82085444719525,554.1524289739612,552.7097072437921,192.0,391.8449403384846,491.26868335926576,0.7976183982644129,916.3732607292818,714.023936,44.641360594387685,75.35303453177205,504.6288838419168,690.4373154001756,688.5256592927213,181.0,488.21290770369933,624.5996311164673,0.7816413641343692,truth
1784138396949592526,1784138406949592526,1369.384748429752,1344.0450560000002,43.28859209152746,68.20686833910787,881.6374566813423,1144.2796414717363,1139.5534925856305,121.0,809.1278940583761,1107.8019839192473,0.7303903638047259,1116.415047608392,672.0225280000001,13.604986085908628,97.34243754662565,1154.9382842695063,1112.4302795036892,1109.0650363482791,143.0,786.606994234305,1535.7049193297578,0.5122123295519633,1001.7461560718563,714.023936,84.03079641296506,70.928034492838,555.0260530191152,782.5839986680625,780.2232572451078,167.0,553.3704523062711,680.4398653203176,0.813254014806689,866.795896704663,714.023936,84.03079641296506,76.8804283363232,398.9052652841543,552.4673475083895,551.0267522336924,193.0,390.653407807327,491.87984185886717,0.7942049552813661,919.1846596923075,714.023936,84.03079641296506,75.36716552650111,512.3271727398143,708.2078978713596,706.2488127964465,182.0,500.77860707470825,632.1144336299405,0.79222776831557,truth
1784138397949592526,1784138407949592526,1472.2794432566373,1344.0450560000002,22.320680297193842,65.52846356321395,973.096587002841,1181.3442402076853,1176.09299600431,113.0,835.3365231665239,1242.956307279217,0.6720562245627467,1058.5452892026146,672.0225280000001,35.713088475510155,98.40420384794626,886.837146974081,1181.4608847150917,1177.5680870327092,153.0,835.4190032886992,1106.344338340606,0.7551166253914537,1005.2336981333334,714.023936,95.23490260136039,70.84595301766797,559.3721588571623,795.5612813374656,793.1322463102617,165.0,562.5467768831807,683.7872374636845,0.8226927120924177,886.0509794042553,714.023936,84.03079641296506,76.05874702636916,421.63123953590565,589.5500301093564,587.9715800744068,188.0,416.87482413905917,518.317947600392,0.8042839845099431,946.4635461818183,714.023936,44.641360594387685,73.94119282656237,539.7120968104757,728.6534650011398,726.5775345124671,176.0,515.2358062373806,670.7043513147792,0.768201078802256,truth
1784138398949592526,1784138408949592526,1564.2580456074768,1344.0450560000002,22.320680297193842,65.23947156071489,1112.9115716341228,1300.5287780866852,1294.441774580385,107.0,919.6127181133497,1433.2831391237235,0.6416127372262119,1024.9908821863355,672.0225280000001,44.641360594387685,99.33109843150893,858.8797419742428,1172.9711678344602,1169.3074310249247,161.0,829.4158669120507,1063.665117508678,0.7797716153884156,955.9520460799998,714.023936,84.03079641296506,72.95371668759918,522.602225247635,758.3686120543206,756.1862518115486,175.0,536.2475882226402,634.3858713198621,0.8453019092417021,885.1407834074074,714.023936,43.28859209152746,76.13905052371591,429.4583385623097,603.8236855570118,602.2262390736904,189.0,426.9678226984166,526.9897231554763,0.8102014212760075,953.2388516781609,714.023936,43.28859209152746,73.86735013775534,557.3475660084994,717.1746542604773,715.1584009424228,174.0,507.11906132270116,701.9171941851748,0.722477046471833,truth
1784138399949592526,1784138409949592526,1657.6001216633663,1344.0450560000002,29.153541612661343,62.23852417685504,1132.1941229626486,1383.5443697395194,1376.679042219929,101.0,978.3136059152821,1444.0146496427387,0.6774956238548723,1085.1736328366014,672.0225280000001,7.763714885980468,100.36241382598668,1170.573818713636,1472.1347998696333,1468.0900139826317,153.0,1040.9564998085186,1482.7983385709763,0.7020216254165244,937.3950603636364,714.023936,43.28859209152746,73.7245286368512,503.7386280401697,736.4061466789352,734.2991147590004,176.0,520.7177800241305,609.8620397622363,0.8538288105735192,891.5650227891891,714.023936,44.641360594387685,75.64964442951916,430.2132890987641,603.4808624017497,601.8387778516746,185.0,426.72541012058304,528.3177646199905,0.8077059654193514,941.1162945084745,714.023936,84.03079641296506,74.46316022688552,573.7382397813996,771.2982592293932,769.103949635848,177.0,545.3902294184836,713.8808614904481,0.7639793400257462,truth
1784138400949592526,1784138410949592526,1628.26817615534,1344.0450560000002,59.52181412585026,62.57142010253699,1164.0247671440834,1446.6365504460887,1439.5314975729896,103.0,1022.9265147327443,1478.7555544369175,0.6917482146819429,1204.141085467626,672.0225280000001,7.142617695102029,99.42380889506991,1763.0906383280806,1943.9477397622686,1937.7729734334039,139.0,1374.578629058162,2296.1367542436424,0.5986484152207887,955.95204608,714.023936,43.28859209152746,72.92061619220502,521.4757971224152,749.2258821612694,747.074550683203,175.0,529.7827019167067,635.2473206112983,0.8339786485158206,889.8489790638297,714.023936,43.28859209152746,75.52349742201135,421.58880916298097,583.6794155484113,582.1182433197018,188.0,412.72367277328243,519.907523497388,0.7938405468667082,925.438844424581,714.023936,84.03079641296506,74.6061770224891,519.5268065176804,679.0848463041242,677.1864988642786,179.0,480.1854998226706,651.5574788619532,0.7369810268487585,truth
1784138401949592526,1784138411949592526,1609.7847335384615,1344.0450560000002,158.724837668934,65.98558653536244,1178.4899963609657,1463.314036681862,1456.248112894104,104.0,1034.719278343205,1497.449615365471,0.6909877085184392,1302.3717840000002,672.0225280000001,12.754674455539341,96.12462780983725,1901.1357333965332,2073.4036158212407,2065.4295302821242,128.0,1466.1177568839064,2480.702222167989,0.5910091682034311,929.662449698324,714.023936,43.28859209152746,73.43495638839188,451.7417914826524,625.7954319050483,624.0465242031551,179.0,442.50419353562404,556.9886100232264,0.7944582448771648,879.5979075368421,714.023936,79.362418834467,76.12155057007979,416.4697085005363,577.4616397283306,575.9429131983767,190.0,408.3270413270056,513.3503188443641,0.7954159690525114,923.3348200662982,714.023936,79.362418834467,74.51328552540883,506.29605819247666,665.7528310196004,663.9455961876581,181.0,470.75834140810116,633.9279841431725,0.7426053955393465,truth
1784138402949592526,1784138412949592526,1611.2893088627454,1344.0450560000002,57.14094156081623,63.075648287032074,1183.2914056475336,1528.1301887533032,1520.66669370947,102.0,1080.5512190033396,1488.8121550127908,0.7257807611021663,1363.5091231219515,672.0225280000001,35.713088475510155,94.01427711725773,1926.4306147398547,2160.7167392273304,2151.8713226999953,123.0,1527.8574585309304,2501.0189163658183,0.6108940034532127,913.0142132459015,714.023936,84.03079641296506,74.84106892987093,463.28730992650327,644.4323490716677,642.6714667196077,183.0,455.6824840445525,570.4796227257946,0.7987708340348202,879.3768474947367,714.023936,84.03079641296506,76.39688390626537,430.2371475606049,592.6769574523694,591.1069495091283,190.0,419.0858956675813,531.4052242012888,0.7886371390071949,938.6606799101123,714.023936,84.03079641296506,73.76957424326831,519.043179471966,703.0318760153125,701.0430972755623,178.0,497.1186069207276,644.3975400630675,0.771447089745368,truth
1784138403949592526,1784138413949592526,1602.9191187692306,1344.0450560000002,59.52181412585026,62.162550926869685,1136.250116192287,1463.0939295927321,1456.036394215419,104.0,1034.563639127894,1430.7227863535252,0.7231055862084089,1344.383777032258,672.0225280000001,178.56544237755074,94.99443615904288,1919.3997928220456,2145.410687169751,2136.671707110551,124.0,1517.0344453278215,2493.490400064752,0.6083979490309754,927.9977756444443,714.023936,43.28859209152746,74.22014593658233,481.6947059935826,669.9588853889759,668.0954194915715,180.0,473.73247097472586,593.1680643262736,0.7986479708964037,907.8239109565219,714.023936,84.03079641296506,75.24543592943166,468.0952478437931,648.8033295640167,647.0282145287267,184.0,458.77323399112663,577.052754949273,0.7950282362510444,954.5119978057143,714.023936,84.03079641296506,72.85600440629351,515.4028139935784,698.845789195167,696.8347180063995,175.0,494.15859654356706,639.6747314659572,0.7725154242236403,truth
1784138404949592526,1784138414949592526,1618.4814403106798,1344.0450560000002,35.713088475510155,60.30448448910308,1113.084945735985,1428.963767487251,1421.9733303584237,103.0,1010.4299700601122,1402.6517139512296,0.7203712511167579,1355.3137264390245,672.0225280000001,35.713088475510155,92.3793283320355,1921.9275486004744,2147.966339887973,2139.146858651898,123.0,1518.8415646952342,2496.8322240022303,0.6083074185339725,904.1716146086958,714.023936,44.641360594387685,74.98840058242364,431.02272382000876,605.2228029221034,603.576742066186,184.0,427.9571480749487,529.1384663811707,0.8087810190814309,899.2842004756758,714.023936,95.23490260136039,75.37354242747213,443.8187728227318,608.9905644385387,607.3336157758575,185.0,430.6213577931139,548.8468177241796,0.7845929754657348,950.6718690742858,714.023936,95.23490260136039,73.4192287291592,524.4871901615592,720.8108541935169,718.7367361932751,175.0,509.69024295310356,648.2912566172231,0.7862056409840569,truth
1784138405949592526,1784138415949592526,1666.61586944,1344.0450560000002,36.62880869283092,54.90342735587904,1099.6609712649422,1396.605185060359,1389.5710266366664,100.0,987.548996996473,1389.5617988100933,0.7106909515230837,1322.8763463680004,672.0225280000001,178.56544237755074,94.29400248389639,1914.3823168618121,2116.384170044863,2107.833087923563,125.0,1496.5095982345858,2491.9768902263677,0.6005310900369726,912.9536815824177,714.023936,84.03079641296506,74.6648335878398,439.26640523736813,617.7999589132261,616.090965434861,182.0,436.8505403643126,538.971940115646,0.8105255725754082,902.0086161297296,714.023936,84.03079641296506,75.14537508015268,444.0494510312912,606.4686307959312,604.8183729593275,185.0,428.83808141272357,549.9170663722933,0.7798231908707496,948.1340567272728,714.023936,84.03079641296506,73.3059033522418,514.4986570594747,709.4227502861062,707.392924236552,176.0,501.63763745531645,635.2932996468089,0.7896158164019701,truth
1784138406949592526,1784138416949592526,1748.4203138723406,1344.0450560000002,44.641360594387685,54.20945177134011,1207.0192718940652,1572.7335861225629,1564.4596190124344,94.0,1112.0905837471012,1515.0637980685417,0.7340222802266377,1421.0476373333333,672.0225280000001,89.28272118877537,87.29289948298751,1976.7327942664324,2151.256226939188,2141.7183052429345,114.0,1521.1678661384863,2580.3040986229894,0.5895304615259402,907.9648636502732,714.023936,84.03079641296506,74.9359915805136,437.05981978597634,611.167114309854,609.485771057414,183.0,432.1604109667116,537.2720556098574,0.8043604845149939,893.3202690752689,714.023936,84.03079641296506,75.76167636769298,442.09791340745613,605.8320534450978,604.1924508353846,186.0,428.3879532511995,546.9396775084773,0.7832453392349831,944.0771025454546,714.023936,84.03079641296506,73.45988446893433,507.6827786538424,687.799082965993,685.8311273360094,176.0,486.3473956591424,630.2513092815892,0.7716721702863577,truth
1784138407949592526,1784138417949592526,1790.8292641758246,1344.0450560000002,12.869581432616272,54.879473317174956,1359.2792648295738,1583.5162332937311,1574.76965394745,91.0,1119.7150666809764,1751.684710304643,0.6392218074942505,1512.4395899259264,840.0281600000001,12.754674455539341,85.52634568833564,2108.590748773015,2254.8105958472997,2244.620633981145,108.0,1594.3918626149054,2760.6642653238323,0.5775392113563942,917.9976245745854,714.023936,84.03079641296506,74.62504494478073,452.0901478325163,629.6534026006032,627.9019293814324,181.0,445.2321907760698,556.4666671803654,0.8001057691956207,880.2517306243386,714.023936,64.93288813729119,76.19404996799761,423.0156309134892,575.1309753199404,573.6004198966123,189.0,406.67901271916276,524.5860637694811,0.7752379272085842,923.0976113777779,714.023936,84.03079641296506,74.21694994668275,464.3232267987941,645.6524565183256,643.8464321232382,180.0,456.5452302938606,571.8175795108539,0.7984106236894641,truth
1784138408949592526,1784138418949592526,1818.6609664000005,1344.0450560000002,22.320680297193842,54.464942954930564,1401.0801485307802,1641.2782179435176,1632.035873368768,90.0,1160.5589577216335,1803.4973296459589,0.643504672085908,1553.6362404752476,672.0225280000001,13.735803259811597,86.00402190532542,2213.6574624113855,2282.3405662969267,2271.0219953689684,101.0,1613.858491405702,2915.182516865468,0.5536046137999596,933.7054576179773,714.023936,28.570470780408115,73.48856057584584,446.37567202612195,621.2967091757986,619.5886349864895,178.0,439.3231161870935,549.5453402089538,0.7994301544255649,871.2543376753925,714.023936,62.10971908784374,77.10693425595959,447.04667776623666,615.8070498563292,614.1857992298231,191.0,435.44134085589275,552.1746857113878,0.788593450811489,913.1844585494506,714.023936,79.362418834467,74.40618871237376,414.0881646737129,578.1108482451277,576.5116917497658,182.0,408.78610107163695,509.2985156379436,0.8026453808913904,truth
1784138409949592526,1784138419949592526,1873.0740264269666,1344.0450560000002,35.713088475510155,51.298595054536065,1399.0704926945482,1632.204464677273,1622.944504241358,89.0,1154.1428452562584,1802.4354727504187,0.640324085219594,1543.0420181747575,1008.033792,35.713088475510155,84.7223275287718,1906.8530497225267,1949.1235578426636,1941.156215279378,103.0,1378.2384851209972,2514.4395887628502,0.5481294882885277,929.4278049608938,714.023936,84.03079641296506,74.0115377257947,452.96064362149485,644.6815533473696,642.8680995346268,179.0,455.858698077802,553.5730421845011,0.8234842800128049,849.5054007794872,714.023936,68.02493042954313,77.98890078732431,397.7073466363648,555.436506163482,554.0037961063889,195.0,392.7529200267618,489.095940529362,0.8030181555006867,919.1308117333334,714.023936,51.018697822157364,74.27983762180085,423.66512199043416,595.3089692312996,593.6493771689369,180.0,420.9470090446257,519.9866142224537,0.8095343178671554,truth
1784138410949592526,1784138420949592526,1940.9591838117651,1386.046464,178.56544237755074,50.9743020553814,1438.8762139214155,1695.8160662704645,1685.7344155214425,85.0,1199.123040104941,1849.8057966506635,0.6482426654063491,1456.0488106666667,840.0281600000001,178.56544237755074,86.81656890001726,1702.7773414850676,1874.4824682196524,1866.3617475746419,114.0,1325.4592644934132,2218.2155482356084,0.5975340248370801,919.3899364419891,714.023936,84.03079641296506,74.04317400484695,420.8042472254946,599.0452114154904,597.3788793659324,181.0,423.5889312292223,514.2359746615098,0.823724811372921,866.7165546666665,714.023936,25.973155254916474,77.3936569895646,424.8730814702705,581.098004374776,579.6350464654694,192.0,410.89833942737414,525.9425330242834,0.7812609051879105,927.0984945617979,714.023936,64.93288813729119,73.94240708857187,431.18514565058837,603.2728975083143,601.567493008252,178.0,426.5783567341861,529.9591611081169,0.804926847272973,truth
1784138411949592526,1784138421949592526,2012.0192555180724,1638.054912,178.56544237755074,49.459325257445585,1478.3764306868673,1825.7911058658176,1814.6287096402623,83.0,1291.0292719878053,1880.908145300084,0.6863861349177324,1269.660883053435,672.0225280000001,178.56544237755074,94.84404058452022,1598.7852104104588,1734.4611313034623,1727.7849817709164,131.0,1226.449227649169,2088.0946923101474,0.5873532614042021,939.9298140564973,714.023936,43.28859209152746,73.02090572437542,434.9920774028191,620.3915719561166,618.6383688887676,177.0,438.683087521152,531.2389191012787,0.8257736241600904,866.4977973333333,714.023936,84.03079641296506,76.8132988222116,400.54967676738283,558.5264719225271,557.0624419550991,192.0,394.9378557686167,492.8408791459505,0.8013496292211169,924.2643171555553,714.023936,43.28859209152746,73.79831513733617,418.59200674928985,590.4633387943429,588.8236586605037,180.0,417.52063090352976,513.1050551434416,0.8137137350689506,truth
1784138412949592526,1784138422949592526,2079.069696,1680.0563200000001,35.713088475510155,48.34183599927643,1532.9512466517065,1942.6531666943183,1930.318736169198,80.0,1373.663227663073,1938.1444006330323,0.7087517458525847,1206.6973860437959,672.0225280000001,44.641360594387685,98.04043045523085,1556.2833102423947,1654.1097395629483,1648.0339014385493,137.0,1169.632213671675,2039.6116605493312,0.5734582892885876,940.1671101468925,714.023936,84.03079641296506,72.72904589111818,421.0851309267129,600.3116055288041,598.603793007866,177.0,424.48440709440115,514.3266170848941,0.8253207067141467,871.2543376753927,714.023936,43.28859209152746,76.30493491174587,391.36503634387276,540.8453592194268,539.4318000237815,191.0,382.4354210773309,482.9127847733833,0.7919347615880505,900.7475867826089,714.023936,29.76090706292513,74.90850678115702,396.36766663715247,551.4096589331268,549.9412914997911,184.0,389.9055090433753,488.05891173051526,0.7988902562210851,truth
1784138413949592526,1784138423949592526,2071.1944320000002,1680.0563200000001,35.713088475510155,47.95320989435855,1477.384548493433,1844.4279794831323,1832.7616258883725,80.0,1304.2075317027252,1874.7937394228818,0.6956538760920973,1225.4528451764706,672.0225280000001,178.56544237755074,95.8435799867227,1565.766508613085,1682.217688783414,1675.9756721231759,136.0,1189.507535170713,2048.3616455291453,0.5807116813415202,919.1578844640885,714.023936,84.03079641296506,73.72593995327058,396.37110890860436,559.9041767616139,558.3537423900839,181.0,395.91204020280856,485.64075216779145,0.8152364447084516,853.8842945979382,714.023936,44.641360594387685,77.00314534019968,357.8639933427012,504.48913771042993,503.19106223882545,194.0,356.727690309999,438.755003328072,0.8130452931684555,904.1716146086958,714.023936,44.641360594387685,74.82205895277706,413.06963489948413,548.7535180889795,547.2615708901495,184.0,388.0273338406922,515.7232209705398,0.7523945365703397,truth
1784138414949592526,1784138424949592526,2058.0689920000004,1659.055616,95.23490260136039,49.74691077199805,1523.5589237877796,1838.9641580469645,1825.9678778912307,72.0,1300.3440265140184,1948.59341445603,0.6673244489420709,1270.0086757966103,672.0225280000001,178.56544237755074,95.92852176242836,1651.5047440757899,1760.6654691755334,1753.12746361827,118.0,1244.978492655014,2163.3192357631606,0.5754945789199805,912.3214925575758,714.023936,79.362418834467,74.25685341253413,397.6925905550803,568.660459959086,566.9241459365319,165.0,402.1036674297308,485.25778044726053,0.8286392998358794,865.1324498390806,714.023936,40.814958257725884,77.0813043508354,405.71148735073206,577.8511660922268,576.1952280557571,174.0,408.6024780603675,495.70720127727606,0.8242819087710083,907.9940747636364,714.023936,79.362418834467,74.61431185323117,416.7352299518373,557.8036766905244,556.100514354534,165.0,394.4267623586583,519.1823074158582,0.7597076339558846,truth
1784138415949592526,1784138425949592526,2109.021519737705,1680.0563200000001,95.23490260136039,50.09100096001103,1533.4467057342065,1828.8653077607803,1813.7768774755527,61.0,1293.20306099447,1966.4003967075084,0.6576499186837924,1347.4391091717175,672.0225280000001,178.56544237755074,94.90427198331756,1774.4845652357305,1889.1398830244696,1879.7300053815857,99.0,1335.8236218965637,2324.9470037209994,0.5745608909616533,916.263592328767,714.023936,79.362418834467,74.12262796694598,407.39808183211574,583.2396350185016,581.2250564980659,146.0,412.4127009783495,496.89463289197016,0.8299801883108932,863.0611901935483,714.023936,40.814958257725884,76.76074241574997,381.54758269296656,539.9119688461518,538.1785444536152,155.0,381.77541441489393,467.20539615019464,0.8171468428249121,897.815332080537,714.023936,79.362418834467,75.22181596827873,414.9167724513102,552.5073620685596,550.6376925726229,149.0,390.6817023741695,517.683068911699,0.754673517129856,truth
1784138416949592526,1784138426949592526,2069.3193691428573,1680.0563200000001,95.23490260136039,51.96527862718347,1556.11449445665,1781.8531565737835,1769.442013117799,56.0,1259.9604500919775,2012.2709737553143,0.626138560126736,1270.1964265494507,672.0225280000001,178.56544237755074,99.82092429107027,1786.1805212668048,1806.4696220908888,1797.9568210894522,91.0,1277.3669197879674,2359.0355201271577,0.5414784596880993,937.6899704715446,714.023936,79.362418834467,73.33673542743396,431.4767667994404,623.1350946661975,620.6677719130674,123.0,440.62305103378947,524.6618568413703,0.8398229169668995,874.1345664962407,714.023936,40.814958257725884,76.40210416912201,402.86834153929357,571.1715215293177,569.0189152723093,133.0,403.8792560940187,492.9975400321109,0.819231787784808,886.1660703030302,714.023936,79.362418834467,75.93765372426782,412.83035707642404,547.7923099273646,545.6975883752666,132.0,387.34765703148247,515.5954846037794,0.7512627022502888,truth
1784138417949592526,1784138427949592526,1838.5521992452834,1638.054912,95.23490260136039,54.33499308051109,1217.9472864101497,1707.921984329116,1692.068588435674,53.0,1207.6832168567023,1495.841505243459,0.8073604139364638,1069.1267490909092,672.0225280000001,178.56544237755074,102.91237375773477,1383.4019794056246,1505.6080737343339,1497.0098612246782,88.0,1064.6256787467628,1805.7929436464462,0.5895613240114668,936.5921447476634,714.023936,79.362418834467,73.24243043281712,427.2510599810936,621.1032419760696,618.1677101077979,107.0,439.1863142182279,518.3093933276148,0.8473439221284293,864.3447646315791,714.023936,40.814958257725884,76.22203133996075,329.6269249892226,447.59331131874336,445.65863242101676,114.0,316.4962656472249,408.9289379236712,0.7739639734332048,886.8615883893805,714.023936,79.362418834467,75.66449615493524,392.27542806026474,508.7197757408829,506.51080977241435,113.0,359.719203150078,493.012241594734,0.729635438638407,truth
1784138418949592526,1784138428949592526,1721.1826986666667,1365.04576,95.23490260136039,57.6786591858945,1188.752717917127,1721.2472847297095,1703.2318296361652,48.0,1217.1056271313098,1444.1582305666384,0.8427785829630033,912.6658891294121,672.0225280000001,178.56544237755074,105.89532890141122,879.7023302397711,1068.0251931650346,1062.1161104077628,85.0,755.2078565650683,1123.6471538475787,0.6721040977846959,914.3383433846152,714.023936,79.362418834467,74.29303686615248,407.27059305755864,575.2254151804507,572.0695247414448,91.0,406.7457917849439,499.01663536552627,0.8150946540830355,885.1573324255319,714.023936,40.814958257725884,75.19379375427128,350.8276525421187,482.3312209040949,479.79990646920953,94.0,341.05967707927215,433.5887820409085,0.7865970966174435,885.1573324255319,714.023936,79.362418834467,75.93756440274173,402.4506427757604,525.4554965855381,522.6230269018981,94.0,371.55314484737875,504.8833231730444,0.7359188307355363,truth
1784138419949592526,1784138429949592526,1654.2092996923077,1344.0450560000002,95.23490260136039,58.25802502555831,1148.1801817441042,1718.154516475381,1695.4325273979828,39.0,1214.9187097260356,1377.9048312124683,0.8817145293387096,783.5077467654322,672.0225280000001,178.56544237755074,109.49039502317004,524.1415805564877,684.5655006184078,680.5815926929855,81.0,484.06090765363984,657.4886400366728,0.7362270283888712,910.2222939178081,714.023936,79.362418834467,74.21729255660844,392.32894937347936,542.0445656045337,538.3585528527454,73.0,383.2833880442822,484.13937172847693,0.7916798558974493,910.2222939178083,714.023936,40.814958257725884,73.56782083796402,360.2268518864413,484.0503309247657,480.6771167907979,73.0,342.2752714324942,448.2751263710027,0.7635383970629219,885.9496994133333,714.023936,79.362418834467,75.49989566266254,393.7159865778477,521.2027764343493,517.7590746060661,75.0,368.54601758998444,492.04824218080216,0.7490038292923378,truth
1784138420949592526,1784138430949592526,1714.8161059310346,1386.046464,95.23490260136039,55.810621819593656,1151.8470561323488,1729.5477882503203,1698.7961865871666,29.0,1222.9749694579966,1380.4598485581255,0.8859185370261801,731.3186334117647,672.0225280000001,178.56544237755074,110.34634113607476,437.2288727889205,645.4740148033443,640.8155787631337,68.0,456.4190529471507,527.4267707027707,0.8653695229367944,902.6484410181819,714.023936,79.362418834467,75.35239150130049,415.3896803869709,591.8355515014513,586.4620411524767,55.0,418.49093181395637,507.473982721009,0.8246549499346998,919.364152888889,714.023936,40.814958257725884,74.04945851365441,425.81199407514106,596.9800470659889,591.3218717445731,54.0,422.128639513425,523.0061323232916,0.8071198661443035,870.9765658947371,714.023936,79.362418834467,76.80299767512736,412.0273531753364,553.0220485545475,548.0626225693101,57.0,391.04564067859667,512.9081135861273,0.7624087635200422,truth
1784138421949592526,1784138431949592526,1568.0525653333334,1386.046464,95.23490260136039,52.2541839359225,982.5397312402541,1255.9736932669448,1225.2970485040664,21.0,888.1075155009695,1239.5165054918346,0.716495110445159,731.7578638222222,672.0225280000001,178.56544237755074,116.69083513055979,507.46456372389054,733.6272818531967,725.885702821631,45.0,518.7528258618499,616.8373527123091,0.8409880231487773,842.1820783589745,714.023936,79.362418834467,78.4200321034831,355.08206230646186,527.1801321687662,520.1984798092831,39.0,372.77264636335497,427.41878644398713,0.8721484833755816,912.3639182222224,714.023936,40.814958257725884,75.38037828395902,466.0465233941946,672.5142763385559,663.1891791890581,36.0,475.53940524375656,566.859648383829,0.8389014928114301,887.705433945946,714.023936,79.362418834467,77.09413040198919,477.3690082247606,627.6153350554682,618.8381656866032,37.0,443.7910593943887,597.7349645351075,0.7424545755651927,truth
1784138422949592526,1784138432949592526,2016.0675840000001,1848.061952,95.23490260136039,41.49353856192039,1363.5910900183815,1982.4952719158607,1846.083554023988,8.0,1401.8358504419737,1654.1431152602393,0.8474695070271648,686.0229973333335,672.0225280000001,178.56544237755074,115.55331208246174,388.4533817001317,532.9381222160569,521.2237659521096,24.0,376.8441601717988,480.4022262445733,0.7844346665869676,804.3269632,714.023936,79.362418834467,79.6274374906681,267.82452744927804,422.68288383319435,411.4152476174247,20.0,298.88193344993743,314.31632145892735,0.950895365734271,893.696625777778,714.023936,40.814958257725884,74.97011044592395,371.17167598052606,492.1676592049387,477.4791555622503,18.0,348.01508930452184,463.6588993091453,0.7505842976875167,893.6966257777779,714.023936,79.362418834467,78.44592093374142,578.197148993727,786.9620612399435,763.4693393034466,18.0,556.4662100393072,716.7960412496661,0.7763243349798095,truth
1784138423949592526,1784138433949592526,,,,,,,,0.0,,,,,,,,,,,0.0,,,,,,,,,,,0.0,,,,,,,,,,,0.0,,,,,,,,,,,0.0,,,,truth
1784138424949592526,1784138434949592526,,,,,,,,0.0,,,,,,,,,,,0.0,,,,,,,,,,,0.0,,,,,,,,,,,0.0,,,,,,,,,,,0.0,,,,truth
1784138425949592526,1784138435949592526,,,,,,,,0.0,,,,,,,,,,,0.0,,,,,,,,,,,0.0,,,,,,,,,,,0.0,,,,,,,,,,,0.0,,,,truth
1784138426949592526,1784138436949592526,,,,,,,,0.0,,,,,,,,,,,0.0,,,,,,,,,,,0.0,,,,,,,,,,,0.0,,,,,,,,,,,0.0,,,,truth
1784138427949592526,1784138437949592526,,,,,,,,0.0,,,,,,,,,,,0.0,,,,,,,,,,,0.0,,,,,,,,,,,0.0,,,,,,,,,,,0.0,,,,truth
1784138428949592526,1784138438949592526,,,,,,,,0.0,,,,,,,,,,,0.0,,,,,,,,,,,0.0,,,,,,,,,,,0.0,,,,,,,,,,,0.0,,,,truth
1784138429949592526,1784138439949592526,,,,,,,,0.0,,,,,,,,,,,0.0,,,,,,,,,,,0.0,,,,,,,,,,,0.0,,,,,,,,,,,0.0,,,,truth
1784138430949592526,1784138440949592526,,,,,,,,0.0,,,,,,,,,,,0.0,,,,,,,,,,,0.0,,,,,,,,,,,0.0,,,,,,,,,,,0.0,,,,truth
1784138431949592526,1784138441949592526,,,,,,,,0.0,,,,,,,,,,,0.0,,,,,,,,,,,0.0,,,,,,,,,,,0.0,,,,,,,,,,,0.0,,,,truth
1784138432949592526,1784138442949592526,,,,,,,,0.0,,,,,,,,,,,0.0,,,,,,,,,,,0.0,,,,,,,,,,,0.0,,,,,,,,,,,0.0,,,,truth
1784138433949592526,1784138443949592526,,,,,,,,0.0,,,,,,,,,,,0.0,,,,,,,,,,,0.0,,,,,,,,,,,0.0,,,,,,,,,,,0.0,,,,truth
1784138434949592526,1784138444949592526,,,,,,,,0.0,,,,,,,,,,,0.0,,,,,,,,,,,0.0,,,,,,,,,,,0.0,,,,,,,,,,,0.0,,,,truth
1784138435949592526,1784138445949592526,,,,,,,,0.0,,,,,,,,,,,0.0,,,,,,,,,,,0.0,,,,,,,,,,,0.0,,,,,,,,,,,0.0,,,,truth
1784138436949592526,1784138446949592526,,,,,,,,0.0,,,,,,,,,,,0.0,,,,,,,,,,,0.0,,,,,,,,,,,0.0,,,,,,,,,,,0.0,,,,truth
1784138437949592526,1784138447949592526,,,,,,,,0.0,,,,,,,,,,,0.0,,,,,,,,,,,0.0,,,,,,,,,,,0.0,,,,,,,,,,,0.0,,,,truth
1784138438949592526,1784138448949592526,,,,,,,,0.0,,,,,,,,,,,0.0,,,,,,,,,,,0.0,,,,,,,,,,,0.0,,,,,,,,,,,0.0,,,,truth
1784138439949592526,1784138449949592526,,,,,,,,0.0,,,,,,,,,,,0.0,,,,,,,,,,,0.0,,,,,,,,,,,0.0,,,,,,,,,,,0.0,,,,truth
1784138440949592526,1784138450949592526,,,,,,,,0.0,,,,,,,,,,,0.0,,,,,,,,,,,0.0,,,,,,,,,,,0.0,,,,,,,,,,,0.0,,,,truth
1784138441949592526,1784138451949592526,,,,,,,,0.0,,,,,,,,,,,0.0,,,,,,,,,,,0.0,,,,,,,,,,,0.0,,,,,,,,,,,0.0,,,,truth
1784138442949592526,1784138452949592526,,,,,,,,0.0,,,,,,,,,,,0.0,,,,,,,,,,,0.0,,,,,,,,,,,0.0,,,,,,,,,,,0.0,,,,truth
1784138443949592526,1784138453949592526,,,,,,,,0.0,,,,,,,,,,,0.0,,,,,,,,,,,0.0,,,,,,,,,,,0.0,,,,,,,,,,,0.0,,,,truth
1784138444949592526,1784138454949592526,,,,,,,,0.0,,,,,,,,,,,0.0,,,,,,,,,,,0.0,,,,,,,,,,,0.0,,,,,,,,,,,0.0,,,,truth
1784138445949592526,1784138455949592526,,,,,,,,0.0,,,,,,,,,,,0.0,,,,,,,,,,,0.0,,,,,,,,,,,0.0,,,,,,,,,,,0.0,,,,truth
1784138446949592526,1784138456949592526,,,,,,,,0.0,,,,,,,,,,,0.0,,,,,,,,,,,0.0,,,,,,,,,,,0.0,,,,,,,,,,,0.0,,,,truth
1784138447949592526,1784138457949592526,,,,,,,,0.0,,,,,,,,,,,0.0,,,,,,,,,,,0.0,,,,,,,,,,,0.0,,,,,,,,,,,0.0,,,,truth
1784138448949592526,1784138458949592526,,,,,,,,0.0,,,,,,,,,,,0.0,,,,,,,,,,,0.0,,,,,,,,,,,0.0,,,,,,,,,,,0.0,,,,truth
1784138449949592526,1784138459949592526,,,,,,,,0.0,,,,,,,,,,,0.0,,,,,,,,,,,0.0,,,,,,,,,,,0.0,,,,,,,,,,,0.0,,,,truth
1784138450949592526,1784138460949592526,,,,,,,,0.0,,,,,,,,,,,0.0,,,,,,,,,,,0.0,,,,,,,,,,,0.0,,,,,,,,,,,0.0,,,,truth
1784138451949592526,1784138461949592526,,,,,,,,0.0,,,,,,,,,,,0.0,,,,,,,,,,,0.0,,,,,,,,,,,0.0,,,,,,,,,,,0.0,,,,truth
1784138452949592526,1784138462949592526,,,,,,,,0.0,,,,,,,,,,,0.0,,,,,,,,,,,0.0,,,,,,,,,,,0.0,,,,,,,,,,,0.0,,,,truth
1784138453949592526,1784138463949592526,,,,,,,,0.0,,,,,,,,,,,0.0,,,,,,,,,,,0.0,,,,,,,,,,,0.0,,,,,,,,,,,0.0,,,,truth
1784138454949592526,1784138464949592526,,,,,,,,0.0,,,,,,,,,,,0.0,,,,,,,,,,,0.0,,,,,,,,,,,0.0,,,,,,,,,,,0.0,,,,truth
1784138455949592526,1784138465949592526,,,,,,,,0.0,,,,,,,,,,,0.0,,,,,,,,,,,0.0,,,,,,,,,,,0.0,,,,,,,,,,,0.0,,,,truth
1784138456949592526,1784138466949592526,,,,,,,,0.0,,,,,,,,,,,0.0,,,,,,,,,,,0.0,,,,,,,,,,,0.0,,,,,,,,,,,0.0,,,,truth
1784138457949592526,1784138467949592526,,,,,,,,0.0,,,,,,,,,,,0.0,,,,,,,,,,,0.0,,,,,,,,,,,0.0,,,,,,,,,,,0.0,,,,truth
1784138458949592526,1784138468949592526,,,,,,,,0.0,,,,,,,,,,,0.0,,,,,,,,,,,0.0,,,,,,,,,,,0.0,,,,,,,,,,,0.0,,,,truth
1784138459949592526,1784138469949592526,,,,,,,,0.0,,,,,,,,,,,0.0,,,,,,,,,,,0.0,,,,,,,,,,,0.0,,,,,,,,,,,0.0,,,,truth
1784138460949592526,1784138470949592526,,,,,,,,0.0,,,,,,,,,,,0.0,,,,,,,,,,,0.0,,,,,,,,,,,0.0,,,,,,,,,,,0.0,,,,truth
1784138461949592526,1784138471949592526,,,,,,,,0.0,,,,,,,,,,,0.0,,,,,,,,,,,0.0,,,,,,,,,,,0.0,,,,,,,,,,,0.0,,,,truth
1784138462949592526,1784138472949592526,,,,,,,,0.0,,,,,,,,,,,0.0,,,,,,,,,,,0.0,,,,,,,,,,,0.0,,,,,,,,,,,0.0,,,,truth
1784138463949592526,1784138473949592526,,,,,,,,0.0,,,,,,,,,,,0.0,,,,,,,,,,,0.0,,,,,,,,,,,0.0,,,,,,,,,,,0.0,,,,truth
1784138464949592526,1784138474949592526,,,,,,,,0.0,,,,,,,,,,,0.0,,,,,,,,,,,0.0,,,,,,,,,,,0.0,,,,,,,,,,,0.0,,,,truth
1784138465949592526,1784138475949592526,,,,,,,,0.0,,,,,,,,,,,0.0,,,,,,,,,,,0.0,,,,,,,,,,,0.0,,,,,,,,,,,0.0,,,,truth
1784138466949592526,1784138476949592526,,,,,,,,0.0,,,,,,,,,,,0.0,,,,,,,,,,,0.0,,,,,,,,,,,0.0,,,,,,,,,,,0.0,,,,truth
1784138467949592526,1784138477949592526,,,,,,,,0.0,,,,,,,,,,,0.0,,,,,,,,,,,0.0,,,,,,,,,,,0.0,,,,,,,,,,,0.0,,,,truth
1784138468949592526,1784138478949592526,,,,,,,,0.0,,,,,,,,,,,0.0,,,,,,,,,,,0.0,,,,,,,,,,,0.0,,,,,,,,,,,0.0,,,,truth
1784138469949592526,1784138479949592526,,,,,,,,0.0,,,,,,,,,,,0.0,,,,,,,,,,,0.0,,,,,,,,,,,0.0,,,,,,,,,,,0.0,,,,truth
1784138470949592526,1784138480949592526,,,,,,,,0.0,,,,,,,,,,,0.0,,,,,,,,,,,0.0,,,,,,,,,,,0.0,,,,,,,,,,,0.0,,,,truth
1784138471949592526,1784138481949592526,,,,,,,,0.0,,,,,,,,,,,0.0,,,,,,,,,,,0.0,,,,,,,,,,,0.0,,,,,,,,,,,0.0,,,,truth
1784138472949592526,1784138482949592526,,,,,,,,0.0,,,,,,,,,,,0.0,,,,,,,,,,,0.0,,,,,,,,,,,0.0,,,,,,,,,,,0.0,,,,truth
1784138473949592526,1784138483949592526,,,,,,,,0.0,,,,,,,,,,,0.0,,,,,,,,,,,0.0,,,,,,,,,,,0.0,,,,,,,,,,,0.0,,,,truth
1784138474949592526,1784138484949592526,,,,,,,,0.0,,,,,,,,,,,0.0,,,,,,,,,,,0.0,,,,,,,,,,,0.0,,,,,,,,,,,0.0,,,,truth
1784138475949592526,1784138485949592526,,,,,,,,0.0,,,,,,,,,,,0.0,,,,,,,,,,,0.0,,,,,,,,,,,0.0,,,,,,,,,,,0.0,,,,truth
1784138476949592526,1784138486949592526,,,,,,,,0.0,,,,,,,,,,,0.0,,,,,,,,,,,0.0,,,,,,,,,,,0.0,,,,,,,,,,,0.0,,,,truth
1784138477949592526,1784138487949592526,,,,,,,,0.0,,,,,,,,,,,0.0,,,,,,,,,,,0.0,,,,,,,,,,,0.0,,,,,,,,,,,0.0,,,,truth
1784138478949592526,1784138488949592526,,,,,,,,0.0,,,,,,,,,,,0.0,,,,,,,,,,,0.0,,,,,,,,,,,0.0,,,,,,,,,,,0.0,,,,truth
1784138479949592526,1784138489949592526,,,,,,,,0.0,,,,,,,,,,,0.0,,,,,,,,,,,0.0,,,,,,,,,,,0.0,,,,,,,,,,,0.0,,,,truth
1784138480949592526,1784138490949592526,,,,,,,,0.0,,,,,,,,,,,0.0,,,,,,,,,,,0.0,,,,,,,,,,,0.0,,,,,,,,,,,0.0,,,,truth
1784138481949592526,1784138491949592526,,,,,,,,0.0,,,,,,,,,,,0.0,,,,,,,,,,,0.0,,,,,,,,,,,0.0,,,,,,,,,,,0.0,,,,truth
1784138482949592526,1784138492949592526,,,,,,,,0.0,,,,,,,,,,,0.0,,,,,,,,,,,0.0,,,,,,,,,,,0.0,,,,,,,,,,,0.0,,,,truth
1784138483949592526,1784138493949592526,,,,,,,,0.0,,,,,,,,,,,0.0,,,,,,,,,,,0.0,,,,,,,,,,,0.0,,,,,,,,,,,0.0,,,,truth
1784138484949592526,1784138494949592526,,,,,,,,0.0,,,,,,,,,,,0.0,,,,,,,,,,,0.0,,,,,,,,,,,0.0,,,,,,,,,,,0.0,,,,truth
1784138485949592526,1784138495949592526,,,,,,,,0.0,,,,,,,,,,,0.0,,,,,,,,,,,0.0,,,,,,,,,,,0.0,,,,,,,,,,,0.0,,,,truth
1784138486949592526,1784138496949592526,,,,,,,,0.0,,,,,,,,,,,0.0,,,,,,,,,,,0.0,,,,,,,,,,,0.0,,,,,,,,,,,0.0,,,,truth
1784138487949592526,1784138497949592526,,,,,,,,0.0,,,,,,,,,,,0.0,,,,,,,,,,,0.0,,,,,,,,,,,0.0,,,,,,,,,,,0.0,,,,truth
1784138488949592526,1784138498949592526,,,,,,,,0.0,,,,,,,,,,,0.0,,,,,,,,,,,0.0,,,,,,,,,,,0.0,,,,,,,,,,,0.0,,,,truth
1784138489949592526,1784138499949592526,,,,,,,,0.0,,,,,,,,,,,0.0,,,,,,,,,,,0.0,,,,,,,,,,,0.0,,,,,,,,,,,0.0,,,,truth
1784138490949592526,1784138500949592526,,,,,,,,0.0,,,,,,,,,,,0.0,,,,,,,,,,,0.0,,,,,,,,,,,0.0,,,,,,,,,,,0.0,,,,truth
1784138491949592526,1784138501949592526,,,,,,,,0.0,,,,,,,,,,,0.0,,,,,,,,,,,0.0,,,,,,,,,,,0.0,,,,,,,,,,,0.0,,,,truth
1784138492949592526,1784138502949592526,,,,,,,,0.0,,,,,,,,,,,0.0,,,,,,,,,,,0.0,,,,,,,,,,,0.0,,,,,,,,,,,0.0,,,,truth
1784138493949592526,1784138503949592526,,,,,,,,0.0,,,,,,,,,,,0.0,,,,,,,,,,,0.0,,,,,,,,,,,0.0,,,,,,,,,,,0.0,,,,truth
1784138494949592526,1784138504949592526,,,,,,,,0.0,,,,,,,,,,,0.0,,,,,,,,,,,0.0,,,,,,,,,,,0.0,,,,,,,,,,,0.0,,,,truth
1784138495949592526,1784138505949592526,,,,,,,,0.0,,,,,,,,,,,0.0,,,,,,,,,,,0.0,,,,,,,,,,,0.0,,,,,,,,,,,0.0,,,,truth
1784138496949592526,1784138506949592526,,,,,,,,0.0,,,,,,,,,,,0.0,,,,,,,,,,,0.0,,,,,,,,,,,0.0,,,,,,,,,,,0.0,,,,truth
1784138497949592526,1784138507949592526,,,,,,,,0.0,,,,,,,,,,,0.0,,,,,,,,,,,0.0,,,,,,,,,,,0.0,,,,,,,,,,,0.0,,,,truth
1784138498949592526,1784138508949592526,,,,,,,,0.0,,,,,,,,,,,0.0,,,,,,,,,,,0.0,,,,,,,,,,,0.0,,,,,,,,,,,0.0,,,,truth
1784138499949592526,1784138509949592526,,,,,,,,0.0,,,,,,,,,,,0.0,,,,,,,,,,,0.0,,,,,,,,,,,0.0,,,,,,,,,,,0.0,,,,truth
1784138500949592526,1784138510949592526,,,,,,,,0.0,,,,,,,,,,,0.0,,,,,,,,,,,0.0,,,,,,,,,,,0.0,,,,,,,,,,,0.0,,,,truth
1784138501949592526,1784138511949592526,,,,,,,,0.0,,,,,,,,,,,0.0,,,,,,,,,,,0.0,,,,,,,,,,,0.0,,,,,,,,,,,0.0,,,,truth
1784138502949592526,1784138512949592526,,,,,,,,0.0,,,,,,,,,,,0.0,,,,,,,,,,,0.0,,,,,,,,,,,0.0,,,,,,,,,,,0.0,,,,truth
1784138503949592526,1784138513949592526,,,,,,,,0.0,,,,,,,,,,,0.0,,,,,,,,,,,0.0,,,,,,,,,,,0.0,,,,,,,,,,,0.0,,,,truth
1784138504949592526,1784138514949592526,,,,,,,,0.0,,,,,,,,,,,0.0,,,,,,,,,,,0.0,,,,,,,,,,,0.0,,,,,,,,,,,0.0,,,,truth
1784138505949592526,1784138515949592526,,,,,,,,0.0,,,,,,,,,,,0.0,,,,,,,,,,,0.0,,,,,,,,,,,0.0,,,,,,,,,,,0.0,,,,truth
1784138506949592526,1784138516949592526,,,,,,,,0.0,,,,,,,,,,,0.0,,,,,,,,,,,0.0,,,,,,,,,,,0.0,,,,,,,,,,,0.0,,,,truth
1784138507949592526,1784138517949592526,,,,,,,,0.0,,,,,,,,,,,0.0,,,,,,,,,,,0.0,,,,,,,,,,,0.0,,,,,,,,,,,0.0,,,,truth
1784138508949592526,1784138518949592526,,,,,,,,0.0,,,,,,,,,,,0.0,,,,,,,,,,,0.0,,,,,,,,,,,0.0,,,,,,,,,,,0.0,,,,truth
1784138509949592526,1784138519949592526,,,,,,,,0.0,,,,,,,,,,,0.0,,,,,,,,,,,0.0,,,,,,,,,,,0.0,,,,,,,,,,,0.0,,,,truth
1784138510949592526,1784138520949592526,,,,,,,,0.0,,,,,,,,,,,0.0,,,,,,,,,,,0.0,,,,,,,,,,,0.0,,,,,,,,,,,0.0,,,,truth
1784138511949592526,1784138521949592526,,,,,,,,0.0,,,,,,,,,,,0.0,,,,,,,,,,,0.0,,,,,,,,,,,0.0,,,,,,,,,,,0.0,,,,truth
1784138512949592526,1784138522949592526,,,,,,,,0.0,,,,,,,,,,,0.0,,,,,,,,,,,0.0,,,,,,,,,,,0.0,,,,,,,,,,,0.0,,,,truth
1784138513949592526,1784138523949592526,,,,,,,,0.0,,,,,,,,,,,0.0,,,,,,,,,,,0.0,,,,,,,,,,,0.0,,,,,,,,,,,0.0,,,,truth
1784138514949592526,1784138524949592526,,,,,,,,0.0,,,,,,,,,,,0.0,,,,,,,,,,,0.0,,,,,,,,,,,0.0,,,,,,,,,,,0.0,,,,truth
1784138515949592526,1784138525949592526,,,,,,,,0.0,,,,,,,,,,,0.0,,,,,,,,,,,0.0,,,,,,,,,,,0.0,,,,,,,,,,,0.0,,,,truth
1784138516949592526,1784138526949592526,,,,,,,,0.0,,,,,,,,,,,0.0,,,,,,,,,,,0.0,,,,,,,,,,,0.0,,,,,,,,,,,0.0,,,,truth
1784138517949592526,1784138527949592526,,,,,,,,0.0,,,,,,,,,,,0.0,,,,,,,,,,,0.0,,,,,,,,,,,0.0,,,,,,,,,,,0.0,,,,truth
1784138518949592526,1784138528949592526,,,,,,,,0.0,,,,,,,,,,,0.0,,,,,,,,,,,0.0,,,,,,,,,,,0.0,,,,,,,,,,,0.0,,,,truth
1784138519949592526,1784138529949592526,,,,,,,,0.0,,,,,,,,,,,0.0,,,,,,,,,,,0.0,,,,,,,,,,,0.0,,,,,,,,,,,0.0,,,,truth
1784138520949592526,1784138530949592526,,,,,,,,0.0,,,,,,,,,,,0.0,,,,,,,,,,,0.0,,,,,,,,,,,0.0,,,,,,,,,,,0.0,,,,truth
1784138521949592526,1784138531949592526,,,,,,,,0.0,,,,,,,,,,,0.0,,,,,,,,,,,0.0,,,,,,,,,,,0.0,,,,,,,,,,,0.0,,,,truth
1784138522949592526,1784138532949592526,,,,,,,,0.0,,,,,,,,,,,0.0,,,,,,,,,,,0.0,,,,,,,,,,,0.0,,,,,,,,,,,0.0,,,,truth
1784138523949592526,1784138533949592526,,,,,,,,0.0,,,,,,,,,,,0.0,,,,,,,,,,,0.0,,,,,,,,,,,0.0,,,,,,,,,,,0.0,,,,truth
1784138524949592526,1784138534949592526,,,,,,,,0.0,,,,,,,,,,,0.0,,,,,,,,,,,0.0,,,,,,,,,,,0.0,,,,,,,,,,,0.0,,,,truth
1784138525949592526,1784138535949592526,,,,,,,,0.0,,,,,,,,,,,0.0,,,,,,,,,,,0.0,,,,,,,,,,,0.0,,,,,,,,,,,0.0,,,,truth
1784138526949592526,1784138536949592526,,,,,,,,0.0,,,,,,,,,,,0.0,,,,,,,,,,,0.0,,,,,,,,,,,0.0,,,,,,,,,,,0.0,,,,truth
1784138527949592526,1784138537949592526,,,,,,,,0.0,,,,,,,,,,,0.0,,,,,,,,,,,0.0,,,,,,,,,,,0.0,,,,,,,,,,,0.0,,,,truth
1784138528949592526,1784138538949592526,,,,,,,,0.0,,,,,,,,,,,0.0,,,,,,,,,,,0.0,,,,,,,,,,,0.0,,,,,,,,,,,0.0,,,,truth
1784138529949592526,1784138539949592526,,,,,,,,0.0,,,,,,,,,,,0.0,,,,,,,,,,,0.0,,,,,,,,,,,0.0,,,,,,,,,,,0.0,,,,truth
1784138530949592526,1784138540949592526,,,,,,,,0.0,,,,,,,,,,,0.0,,,,,,,,,,,0.0,,,,,,,,,,,0.0,,,,,,,,,,,0.0,,,,truth
1784138531949592526,1784138541949592526,,,,,,,,0.0,,,,,,,,,,,0.0,,,,,,,,,,,0.0,,,,,,,,,,,0.0,,,,,,,,,,,0.0,,,,truth
1784138532949592526,1784138542949592526,,,,,,,,0.0,,,,,,,,,,,0.0,,,,,,,,,,,0.0,,,,,,,,,,,0.0,,,,,,,,,,,0.0,,,,truth
1784138533949592526,1784138543949592526,,,,,,,,0.0,,,,,,,,,,,0.0,,,,,,,,,,,0.0,,,,,,,,,,,0.0,,,,,,,,,,,0.0,,,,truth
1784138534949592526,1784138544949592526,,,,,,,,0.0,,,,,,,,,,,0.0,,,,,,,,,,,0.0,,,,,,,,,,,0.0,,,,,,,,,,,0.0,,,,truth
1784138535949592526,1784138545949592526,,,,,,,,0.0,,,,,,,,,,,0.0,,,,,,,,,,,0.0,,,,,,,,,,,0.0,,,,,,,,,,,0.0,,,,truth
1784138536949592526,1784138546949592526,,,,,,,,0.0,,,,,,,,,,,0.0,,,,,,,,,,,0.0,,,,,,,,,,,0.0,,,,,,,,,,,0.0,,,,truth
1784138537949592526,1784138547949592526,,,,,,,,0.0,,,,,,,,,,,0.0,,,,,,,,,,,0.0,,,,,,,,,,,0.0,,,,,,,,,,,0.0,,,,truth
1784138538949592526,1784138548949592526,,,,,,,,0.0,,,,,,,,,,,0.0,,,,,,,,,,,0.0,,,,,,,,,,,0.0,,,,,,,,,,,0.0,,,,truth
1784138539949592526,1784138549949592526,,,,,,,,0.0,,,,,,,,,,,0.0,,,,,,,,,,,0.0,,,,,,,,,,,0.0,,,,,,,,,,,0.0,,,,truth
1784138540949592526,1784138550949592526,,,,,,,,0.0,,,,,,,,,,,0.0,,,,,,,,,,,0.0,,,,,,,,,,,0.0,,,,,,,,,,,0.0,,,,truth
1784138541949592526,1784138551949592526,,,,,,,,0.0,,,,,,,,,,,0.0,,,,,,,,,,,0.0,,,,,,,,,,,0.0,,,,,,,,,,,0.0,,,,truth
1784138542949592526,1784138552949592526,,,,,,,,0.0,,,,,,,,,,,0.0,,,,,,,,,,,0.0,,,,,,,,,,,0.0,,,,,,,,,,,0.0,,,,truth
1784138543949592526,1784138553949592526,,,,,,,,0.0,,,,,,,,,,,0.0,,,,,,,,,,,0.0,,,,,,,,,,,0.0,,,,,,,,,,,0.0,,,,truth
1784138544949592526,1784138554949592526,,,,,,,,0.0,,,,,,,,,,,0.0,,,,,,,,,,,0.0,,,,,,,,,,,0.0,,,,,,,,,,,0.0,,,,truth
1784138545949592526,1784138555949592526,,,,,,,,0.0,,,,,,,,,,,0.0,,,,,,,,,,,0.0,,,,,,,,,,,0.0,,,,,,,,,,,0.0,,,,truth
1784138546949592526,1784138556949592526,,,,,,,,0.0,,,,,,,,,,,0.0,,,,,,,,,,,0.0,,,,,,,,,,,0.0,,,,,,,,,,,0.0,,,,truth
1784138547949592526,1784138557949592526,,,,,,,,0.0,,,,,,,,,,,0.0,,,,,,,,,,,0.0,,,,,,,,,,,0.0,,,,,,,,,,,0.0,,,,truth
1784138548949592526,1784138558949592526,,,,,,,,0.0,,,,,,,,,,,0.0,,,,,,,,,,,0.0,,,,,,,,,,,0.0,,,,,,,,,,,0.0,,,,truth
1784138549949592526,1784138559949592526,,,,,,,,0.0,,,,,,,,,,,0.0,,,,,,,,,,,0.0,,,,,,,,,,,0.0,,,,,,,,,,,0.0,,,,truth
1784138550949592526,1784138560949592526,,,,,,,,0.0,,,,,,,,,,,0.0,,,,,,,,,,,0.0,,,,,,,,,,,0.0,,,,,,,,,,,0.0,,,,truth
1784138551949592526,1784138561949592526,,,,,,,,0.0,,,,,,,,,,,0.0,,,,,,,,,,,0.0,,,,,,,,,,,0.0,,,,,,,,,,,0.0,,,,truth
1784138552949592526,1784138562949592526,,,,,,,,0.0,,,,,,,,,,,0.0,,,,,,,,,,,0.0,,,,,,,,,,,0.0,,,,,,,,,,,0.0,,,,truth
1784138553949592526,1784138563949592526,,,,,,,,0.0,,,,,,,,,,,0.0,,,,,,,,,,,0.0,,,,,,,,,,,0.0,,,,,,,,,,,0.0,,,,truth
1784138554949592526,1784138564949592526,,,,,,,,0.0,,,,,,,,,,,0.0,,,,,,,,,,,0.0,,,,,,,,,,,0.0,,,,,,,,,,,0.0,,,,truth
1784138555949592526,1784138565949592526,,,,,,,,0.0,,,,,,,,,,,0.0,,,,1814.4608256000004,1764.0591360000003,34.01246521477157,33.64392381767077,287.0266945686081,512.1187200237131,445.4922062427435,5.0,362.1226197013425,314.96388831147055,1.1497274231744188,1638.0549120000003,1680.0563200000001,35.713088475510155,37.34237155317079,250.25227017227536,301.66057244237624,271.3889053347021,5.0,213.30623639062,320.1603070513106,0.6662482253193067,1589.0532693333334,1701.0570240000002,34.01246521477157,40.77110345918504,382.5741925405822,646.8762281832904,578.6446650595439,6.0,457.4105675367812,433.720891759893,1.0546196326415438,deceptive
1784138556949592526,1784138566949592526,22176.743424,22176.743424,2.7055370057204664,2.7055370057204664,,,,1.0,,,,,,,,,,,0.0,,,,1875.0628571428572,1701.0570240000002,30.394117851498,33.98584211714327,555.8967346827657,900.7294104359786,865.8812080433131,14.0,636.9118741334415,644.3710045896198,0.9884241680599382,1648.555264,1638.054912,40.814958257725884,40.10352239984166,425.43922587204014,657.0809285867258,635.6891477970316,16.0,464.62638039202733,504.0418962180655,0.9218011119278352,1741.6583850666668,1806.0605440000002,27.471606519623194,36.50164507086383,371.2406766695666,521.6420202428294,503.3914870285023,15.0,368.85660986555496,455.64424796918075,0.809527633695716,deceptive
1784138557949592526,1784138567949592526,9156.306944000002,10101.338624,35.713088475510155,13.138200288668061,5862.67041299654,8600.585286334262,8262.685110939787,4.0,6081.532178140201,7088.673495511886,0.8579224564357004,,,,,,,,0.0,,,,1788.5599573333336,1659.055616,43.28859209152746,36.66382591700354,570.6652171547812,841.9310093851877,823.4753939007255,24.0,595.335126027501,688.5532833409023,0.8646173657598419,1723.7377843200002,1596.0535040000002,37.59272471106332,36.425029867114496,377.1327294769215,527.3407988531857,516.4778640094511,25.0,372.8862548654188,463.6120271861448,0.8043066896444023,1827.9743220869568,1806.0605440000002,35.713088475510155,34.556482773163744,371.56618540679676,488.3212299046684,477.1283313093133,23.0,345.29525306294613,465.30468983410657,0.7420841882897269,deceptive
1784138558949592526,1784138568949592526,5917.998387200001,6048.202752000001,5.927483564400026,16.1722198145866,3645.7958720391216,5742.957706974086,5489.68382400881,10.0,4060.884338668922,4282.3199641236215,0.9482907332217487,59179.98387200001,59179.98387200001,1.013856308744078,1.013856308744078,,,,1.0,,,,1812.4243936969697,1722.0577280000002,34.84203753708307,38.99927231352384,567.7109490846112,777.8666742255236,765.6261654533076,33.0,550.0348002038949,702.3690644550277,0.7831136478521732,1699.2569636571432,1680.0563200000001,19.304372148924408,39.70397251878786,539.0697874553676,745.614486503009,735.3245888555783,35.0,527.2290595572032,664.9866396203491,0.7928415822883391,1811.1516237575759,1764.0591360000003,23.040702242264615,34.83387926888662,386.6294022125794,501.62429229666077,494.35362812730847,33.0,354.70193869087166,485.85785643023365,0.730052903326479,deceptive
1784138559949592526,1784138569949592526,4429.913208470589,3696.123904,44.641360594387685,21.65106169588379,2869.34939099301,4388.305519922776,4249.141001102447,17.0,3103.000591055753,3413.5063382301983,0.9090361298888248,47377.58822400001,47377.58822400001,1.2664215771457499,1.2664215771457499,,,,1.0,,,,1813.0607786666667,1722.0577280000002,30.394117851498,37.90607594612665,516.2400313650442,700.7134180876257,692.1767887242769,42.0,495.4792095981646,640.5136348240782,0.7735654366425028,1766.989466790698,1680.0563200000001,47.617451300680194,37.51054415032973,532.022730769101,676.8112674006159,668.9215195752322,43.0,478.5778367624372,671.9955350967116,0.7121741317724108,1761.1288052093025,1680.0563200000001,37.59272471106332,36.09917246276179,402.1741579349591,539.095196587908,532.6622029005309,43.0,381.1978692124047,500.8315074706743,0.7611299679158572,deceptive
1784138560949592526,1784138570949592526,3896.585169454546,3339.1119360000002,35.713088475510155,29.21644010091347,2589.008679159485,4140.502407981917,4040.7408566702793,22.0,2927.7773302032424,3019.932422075082,0.9694843860749317,21431.218432,19173.642752,2.2893005433019327,3.7040656563251946,12806.842752103872,27306.030276924277,22937.601754099174,4.0,19308.279176098335,11900.656292119133,1.6224549892164088,1780.213523692308,1722.0577280000002,43.28859209152746,37.82521187637222,484.2162955903218,655.7739378431025,649.3260101688588,52.0,463.70219837426333,601.182981663541,0.7713162423379769,1753.756903849057,1680.0563200000001,46.08140448452923,37.334297484770524,504.0778522675024,659.2145292969683,652.9730596900553,53.0,466.13506392258427,632.0981042402992,0.7374410092288107,1829.9436975686278,1806.0605440000002,33.22147765163735,35.04036631652937,446.10596094818743,570.8711319623233,565.1335880318788,51.0,403.66684859419917,562.6256254917877,0.7174697175254974,deceptive
1784138561949592526,1784138571949592526,3536.247576774194,2982.0999680000004,9.920302354308374,32.31662271430288,2266.167518716016,3307.740115524126,3254.978145232533,31.0,2338.9254660898837,2745.131012867167,0.8520268996731709,19841.4651392,13482.451968000001,4.450229093521514,3.853298343764459,11646.801862214315,24065.169675185836,20858.827012232836,5.0,17016.64466772877,11247.794866616598,1.5128871809561617,1748.058599619048,1722.0577280000002,39.6812094172335,38.05472745431007,466.5157166525044,621.2600716007536,616.231032353126,63.0,439.29720950933284,582.0505206820592,0.7547406864176585,1738.7249533968259,1680.0563200000001,32.46644406864559,37.23306684863743,469.68330077337106,620.163289496785,615.1449989792964,63.0,438.5216674461326,587.4131251860736,0.7465302504216654,1825.99341559322,1806.0605440000002,28.010265470988355,34.89827179915418,423.57317067190974,538.6537201565136,534.0213888403332,59.0,380.8856982340317,535.0621499101732,0.7118531899480747,deceptive
1784138562949592526,1784138572949592526,3436.169243675676,2688.0901120000003,43.28859209152746,33.12133543054154,2312.914777142388,3267.502502336877,3221.8423203587063,37.0,2310.473176946419,2833.726589131846,0.8153479541067038,14126.473557333335,12768.428032000002,4.238942252286072,7.897909756916274,9501.652427260407,15231.366711456089,14256.926155731662,9.0,10770.202688409645,11070.870097793308,0.9728415737220516,1738.1678570958907,1722.0577280000002,46.08140448452923,38.07414979725828,457.67993241194523,631.3471945980931,626.960807182606,73.0,446.4298825834145,565.0593075363726,0.7900584533857591,1739.3185806027398,1680.0563200000001,32.46644406864559,36.93021007539415,444.9328237324808,594.3006394058989,590.1617158864727,73.0,420.23401218741225,554.6459436158824,0.7576617426385497,1797.7785762253525,1806.0605440000002,32.46644406864559,35.570884626141975,424.4084235509298,559.7063931324147,555.6944331337288,71.0,395.77218605739415,530.9681801517362,0.7453783500628857,deceptive
1784138563949592526,1784138573949592526,3387.1135451428577,2835.09504,14.880453531462566,34.448352963486705,2327.4334455342864,3115.4488751860235,3077.6304483582335,42.0,2202.955026084039,2899.5495276523106,0.7597576813484246,13085.347746909094,12768.428032000002,35.713088475510155,10.06857158938553,9304.868801922283,14079.773693262387,13383.37151116321,11.0,9955.903456077795,11117.605858664101,0.8955078622722557,867.029065142857,714.023936,64.93288813729119,76.52972928862597,374.4444297241026,316.1751131767641,315.1720624766443,14.0,223.56956656971403,505.3964645253584,0.44236472207948413,1012.2339328000002,714.023936,59.52181412585026,70.3528315331354,521.7687728331439,874.4411159138284,824.4838233148723,10.0,618.3232428109999,594.4102020553269,1.0402298625982318,1008.0337920000002,819.027456,43.28859209152746,67.47207760574648,418.4839689759878,490.2745491554072,470.9541159775109,12.0,346.6764583509658,538.6700114099602,0.6435785378947413,deceptive
1784138564949592526,1784138574949592526,3274.3954808163267,2688.0901120000003,13.604986085908628,36.843653108345606,2296.145678387958,3076.8744460366424,3045.077941164095,49.0,2175.678785652112,2859.681951474861,0.7608114547598627,13002.935893333335,13104.439296,4.355254692135384,7.085386326409776,5117.202011111209,7551.368527554652,7207.962717597843,12.0,5339.6238930725685,6173.793095440232,0.8648854619077283,840.0281600000001,714.023936,44.641360594387685,76.5972885612977,261.53826373523754,340.0850927693453,334.6536371793057,32.0,240.47647527766014,328.4662223338981,0.7321193441717331,926.9276248275866,714.023936,84.03079641296506,74.41906204782795,441.50467612162316,697.2227703699062,684.7922602943038,29.0,493.0109489262317,517.9988997999388,0.9517606101415312,930.8053966451614,714.023936,84.03079641296506,71.79085029835342,349.9159750891665,501.0491514461796,494.5357385633879,31.0,354.29525269535907,426.7549838068329,0.8302076510856353,deceptive
1784138565949592526,1784138575949592526,1738.8582912,1680.0563200000001,59.52181412585026,59.08905931442121,1253.0583970747973,1742.60468993965,1733.3439049273934,95.0,1232.2075931838074,1543.0952389951196,0.798529839276955,1848.544726804598,1008.033792,10.427179116937271,76.84176843362815,2521.3091767005026,3281.336825023631,3262.8118178044724,87.0,2320.2555203313455,3165.7869620702986,0.7329158746721197,895.1550080000001,714.023936,43.28859209152746,74.02822016009166,347.23525604752354,477.52469064862544,472.45874243771135,48.0,337.6609469416514,429.11209321110033,0.7868828501543539,949.5970504347828,714.023936,84.03079641296506,72.7146993794206,435.5454212059639,667.6890932718784,660.2820832368034,46.0,472.12748557684245,517.636403809088,0.9120832346848813,855.675743372549,714.023936,84.03079641296506,75.46987795745476,271.5462697370665,367.17701294561675,363.54881527350113,51.0,259.63335574966635,337.2981077731017,0.7697444775596549,deceptive
1784138566949592526,1784138576949592526,1727.307904,1680.0563200000001,35.713088475510155,54.908674929269914,1169.8373363243313,1639.4824367376848,1630.8460959024094,96.0,1159.2891486534618,1437.03274904366,0.8067242374434156,1977.1394497560982,1008.033792,22.320680297193842,75.94845612948461,2677.364028657768,3473.58607017883,3452.566076849705,82.0,2456.196265258581,3364.536556075146,0.7300251384766713,1042.069415724138,714.023936,89.28272118877537,68.49277608502176,582.5975263828717,834.3886464611178,827.0698870697393,58.0,590.0018700577211,710.4848007938507,0.830421522597655,1042.069415724138,714.023936,44.641360594387685,68.14001532925309,488.64331347132025,662.8035594163215,656.9786432609836,58.0,468.6728914578617,606.3970943257608,0.7728811629266932,974.1616887741936,714.023936,44.641360594387685,70.76205560941428,464.65813209675053,600.4927636502847,595.5698556485995,62.0,424.6125052305671,584.522428695592,0.7264263685794289,deceptive
1784138567949592526,1784138577949592526,1727.8052890947374,1680.0563200000001,62.10971908784374,55.86817903248804,1204.8203101686045,1743.5420329622964,1734.2477382910477,95.0,1232.8703947914187,1463.966958101504,0.8421435934525633,1740.3192097391309,1008.033792,89.28272118877537,79.87760673431617,2476.6573547513926,3168.511591238013,3151.056257656607,92.0,2240.476032432577,3123.7472496563996,0.71723985757139,1003.1245365194807,714.023936,89.28272118877537,69.69414581002272,527.2444355563008,747.5571682180845,742.643307008852,77.0,528.6027429716202,645.1844385225081,0.8193048551854977,1029.8745241600002,714.023936,89.28272118877537,69.17600909500005,510.89266113233833,689.9197671964462,685.2657973262812,75.0,487.84694585925126,634.842737302448,0.7684532202923102,1002.5790636883119,714.023936,89.28272118877537,70.38759516100271,532.9098390435482,686.9070438390285,682.3910814801974,77.0,485.7166287433821,670.8393782269513,0.7240431085413408,deceptive
1784138568949592526,1784138578949592526,1641.8350387200005,1344.0450560000002,59.52181412585026,58.56023160878144,1183.9990436313387,1705.8107624917363,1697.1779856957423,100.0,1206.190357578902,1440.9232739052034,0.8370954785884427,2120.805272303798,1344.0450560000002,178.56544237755074,71.44604516486562,2859.742987712658,3625.6964972468622,3605.5563158668333,79.0,2563.754579727569,3615.223525455431,0.7091552048374651,989.4647484631578,714.023936,95.23490260136039,70.64260154073533,514.1442719678478,728.9146899021258,725.0437769066732,95.0,515.4205201362827,629.1736711798407,0.8192023025530526,999.9909691914895,714.023936,95.23490260136039,70.17866159280257,478.0284850423829,649.4396784096031,645.9577341677237,94.0,459.223200575041,592.941389220418,0.7744832945104645,949.0621181414141,714.023936,95.23490260136039,73.10953978465537,491.8305691314501,625.9082945364364,622.7214453930019,99.0,442.5839994676211,621.1717308216421,0.7124986175436577,deceptive
1784138569949592526,1784138579949592526,1651.9153766400004,1344.0450560000002,11.904362825170049,57.932723119454,1201.3594552702075,1688.2689903929427,1679.8441782831374,100.0,1193.786451573816,1474.4375319265505,0.8096554962311451,1905.9949285517248,1344.0450560000002,35.713088475510155,72.04725209298093,2531.5780628260172,3279.760022790763,3260.645258106051,87.0,2319.1405527798943,3182.5412054818307,0.728707156653697,971.9273184561403,714.023936,44.641360594387685,71.53485572458882,502.46196910315075,703.7774431573285,700.6600127620036,114.0,497.64580250267704,617.3413872532478,0.8061111935437615,963.4757765565219,714.023936,44.641360594387685,71.71514411828063,447.52958495136744,596.8434200152433,594.2240316472581,115.0,422.0320295993493,558.1307569106126,0.756152611863567,954.8078697931035,714.023936,44.641360594387685,73.02402628384662,505.97188453647635,660.3216184624931,657.4493573223052,116.0,466.917894178905,634.8298480148482,0.7355008521401221,deceptive
1784138570949592526,1784138580949592526,1536.712065174312,1344.0450560000002,59.52181412585026,61.81213630118343,1135.4085857389289,1595.778015997672,1588.4003967401231,109.0,1128.3854563803686,1393.4412237529011,0.8097833171185591,2161.672465066667,1344.0450560000002,19.84060470861675,68.65475916579025,2796.710898931225,3549.485608709693,3527.7128297076674,75.0,2509.8653436426844,3534.6105418832353,0.71008257172951,943.0093899851853,714.023936,89.28272118877537,72.97328233571784,474.2964934256149,655.1650143769148,652.7233167495331,135.0,463.2716244620984,585.3238661935741,0.7914791301349201,943.0093899851853,714.023936,89.28272118877537,72.87281787312435,436.12085557334973,583.391422555555,581.218964251766,135.0,412.52003097509953,543.430228598127,0.7591039461298774,928.9362499270073,714.023936,89.28272118877537,74.1956883446696,476.6652502561558,614.0702719120112,611.8148090163442,137.0,434.21325339405024,600.124109574015,0.7235390921092422,deceptive
1784138571949592526,1784138581949592526,1566.8525251047622,1344.0450560000002,57.14094156081623,60.94302535077948,1179.2101188494184,1664.5719821680057,1656.564129126821,105.0,1177.0301363641297,1445.1204233000924,0.8144858500278137,1872.880965818182,1344.0450560000002,59.52181412585026,73.37510660967045,2387.0156998299503,3055.115311667307,3037.508886613754,88.0,2160.2927541868057,3010.3580369406773,0.7176198736753042,941.6001924183007,714.023936,95.23490260136039,72.87743480516151,466.97811995348593,644.224968686938,642.1095049421244,153.0,455.5358439682251,576.5246538186057,0.7901411343833914,929.450512516129,714.023936,95.23490260136039,73.68908738302285,430.6979159678404,579.3696665964129,577.4933254826047,155.0,409.6762200641128,535.8022834918419,0.7646033484483097,929.1795356903225,714.023936,95.23490260136039,73.6223136223773,458.01461369827473,591.863656070976,589.9451955623606,155.0,418.51080474564964,576.1762975669287,0.7263589399857868,deceptive
1784138572949592526,1784138582949592526,1702.3427813877554,1344.0450560000002,59.52181412585026,56.09216605502075,1302.8633613989684,1868.089156599617,1858.7576960510028,98.0,1320.9385104926473,1588.2275034453885,0.8317061048414642,2104.611092756757,1344.0450560000002,59.52181412585026,66.7745675552241,2567.56076062985,3071.999934779526,3055.167172456563,74.0,2172.2319856872346,3290.2037352162424,0.6602119991649905,940.7332902923977,714.023936,95.23490260136039,72.90954897269836,460.83433454144244,622.0617223208657,620.2353847997309,171.0,439.8640621696673,572.7096744340082,0.7680402161957047,915.6306943999999,714.023936,79.362418834467,74.33334941771739,416.81558770631733,555.2099355662223,553.6155738213369,175.0,392.5927104210219,520.0057212878174,0.7549776749547071,936.240687627907,714.023936,71.42617695102031,73.79065063901422,501.79592805305657,649.4287131890294,647.5281791130287,172.0,459.2154469932161,630.9983307764506,0.7277601613115937,deceptive
1784138573949592526,1784138583949592526,1619.11310054902,1344.0450560000002,43.28859209152746,57.99845584905368,1228.3381614996658,1750.625757364198,1741.9395217171277,102.0,1237.8793443520601,1500.4854689086512,0.8249858929006539,1902.132730114943,1008.033792,35.713088475510155,73.44579912497325,2412.7113941729713,2872.3531988034547,2855.607313770862,87.0,2031.060424836794,3095.117012081297,0.6562144232056083,939.4552218757062,714.023936,44.641360594387685,73.0844920390185,464.1705183281308,644.284153309702,642.4511932561047,177.0,455.57769381632346,571.9554376160011,0.7965265540882729,919.8308352000001,714.023936,29.153541612661343,74.32550151466945,448.27867199571466,599.3343431977314,597.7111250468981,180.0,423.79337827310144,558.6654829130032,0.758581640060078,935.8957805197739,714.023936,42.01539820648253,73.69900045926269,491.6737720125641,636.3018432996114,634.4917720839456,177.0,449.93334827865516,618.2767885207279,0.727721558745806,deceptive
1784138574949592526,1784138584949592526,1613.8722831515156,1344.0450560000002,29.76090706292513,57.119749941065784,1127.5763897384052,1714.7145152591015,1705.9469850686291,99.0,1212.4862615387144,1344.5428822395095,0.9017832584998422,1848.5338779325846,1008.033792,178.56544237755074,79.03099196811785,2431.390619555638,2911.68254890247,2895.1142917102443,89.0,2058.8704749914677,3115.0998175548884,0.6609324245049462,939.6925179661017,714.023936,44.641360594387685,73.43158919555748,487.9649141260591,660.9119606895935,659.0401640066483,177.0,467.3353291709085,605.8204023392277,0.7714090304096843,913.8767894505495,714.023936,95.23490260136039,74.646425727636,445.2390338810297,594.2448887793743,592.6014635825012,182.0,420.19459054134126,555.1520941350421,0.7568999468443469,939.6925179661017,714.023936,44.641360594387685,73.4262159662089,490.5667139504943,638.1757121186693,636.3689007736123,177.0,451.25837362766504,616.0311207949072,0.7325252871078581,deceptive
1784138575949592526,1784138585949592526,1604.1306978461541,1344.0450560000002,35.713088475510155,57.784287961015266,1121.6092747962477,1697.4023951119157,1689.1456306131001,104.0,1200.2447439859232,1340.0451514352092,0.8956748529707692,1886.6839363678164,1008.033792,25.509348911078682,75.87713159736407,2456.217880131558,2928.4892595054466,2911.4369696880995,87.0,2070.7546140282725,3149.920667825817,0.6573989736248114,923.7976348444445,714.023936,44.641360594387685,74.16113785091096,466.8536420164792,622.6453410619536,620.9136481309679,180.0,440.2767429391181,582.222329476947,0.7562003733773848,908.6534113224044,714.023936,44.641360594387685,74.92168849917606,442.3640832693597,592.6899724992086,591.0695973837375,183.0,419.0950986954587,550.9551828036505,0.7606700359234408,955.6527257011494,714.023936,95.23490260136039,72.72694153290948,502.2980331740177,647.8868319755787,646.0117953834924,174.0,458.1251723314011,632.1924481509844,0.7246609377750564,deceptive
1784138576949592526,1784138586949592526,1658.6356019200002,1344.0450560000002,16.233222034322797,60.438856940784454,1245.7699545843814,1876.335122724421,1867.0845255768095,100.0,1326.7692890569308,1491.216679861792,0.889722672080021,1886.5632426666673,1008.033792,43.28859209152746,75.01024481530257,2482.9988737469466,2944.5787232223884,2926.8138857644,84.0,2082.131582928177,3187.935201622472,0.6531285773526684,889.2169747165775,714.023936,29.153541612661343,76.02700571194156,417.00589811960094,548.4534492509948,547.0248541863186,187.0,387.8151531305304,522.0991683906818,0.7427997909399695,893.9977111397848,714.023936,95.23490260136039,75.79564608076134,439.10407123433635,583.9783389300052,582.3980574549773,186.0,412.9350435234627,548.0575660131665,0.7534519530992888,889.2169747165775,714.023936,44.641360594387685,75.26977328103565,382.434394514244,512.7762131704949,511.3959247632656,187.0,362.5875375640156,476.2113722041764,0.7614004173939709,deceptive
1784138577949592526,1784138587949592526,1648.451300118812,1344.0450560000002,29.76090706292513,62.07485428403587,1293.8807063204404,1840.4034372456765,1831.208404605977,101.0,1301.3617505954485,1581.6078405913831,0.8228093698048771,1953.3184925301207,1344.0450560000002,22.320680297193842,71.84010315439673,2538.231477680264,3041.98436231211,3023.389886340757,83.0,2151.0077708543286,3251.433661238688,0.6615567146570249,894.2235251612902,714.023936,43.28859209152746,75.80108114772639,421.5813567144168,554.0246497300378,552.5371977685845,186.0,391.75458676861155,527.9449332375622,0.7420368339671738,875.3977667368422,714.023936,37.59272471106332,76.4282776504695,405.947662386281,530.5793917488013,529.1944590841583,190.0,375.1762858634111,509.1251186659719,0.7369039006491402,870.8145323560209,714.023936,28.570470780408115,76.19674465862057,354.68824515967526,457.5724450704498,456.4250195719852,191.0,323.5525787934241,446.3903749936398,0.7248197920890076,deceptive
1784138578949592526,1784138588949592526,1692.4853080816326,1344.0450560000002,59.52181412585026,63.35429731339306,1358.0341907730967,1974.3919579122858,1964.1883135962296,98.0,1396.1059421599618,1647.4094286941245,0.8474553549609298,1850.3953635555558,1008.033792,6.3773372277696705,79.27404582907364,2562.6263108403577,3018.2548216394443,3002.981038043263,90.0,2134.2284517302446,3294.9418319501615,0.6477287189215929,895.4246116324325,714.023936,36.62880869283092,75.53600239949994,414.2239000694002,538.7688295080743,537.3097715256594,185.0,380.9670928370983,520.1873853382392,0.7323651122169825,867.2960898010471,714.023936,64.93288813729119,77.0752966118158,408.05579113100043,536.3587660645886,534.9465754063845,191.0,379.2629206331197,510.9783516622904,0.7422289406181684,892.7001959783784,714.023936,26.454139611488998,74.96302849481562,372.1470706325812,464.8917560548608,463.7036659767131,185.0,328.72811322411434,472.18195449305307,0.6961894881752638,deceptive
1784138579949592526,1784138589949592526,1681.7883368247424,1344.0450560000002,178.56544237755074,64.15717127086147,1351.7195414294497,2004.7803469330856,1994.3114485008475,97.0,1417.5937781059042,1627.7301304277064,0.8709022162865621,1993.5302431219513,1176.039424,178.56544237755074,78.05527932948799,2868.0139419762904,3587.214533646526,3566.8941496783627,82.0,2536.543722312397,3637.853888646374,0.6972637714309718,908.0193895248619,714.023936,44.641360594387685,74.79942534007662,417.776164705686,542.5560438865183,541.0597258254511,181.0,383.64505780590315,524.8638703539591,0.7309420203512571,876.9182855449737,714.023936,95.23490260136039,76.86533420085406,459.6351091556782,614.711566990811,613.0745566768437,189.0,434.6667174930111,572.7663480766219,0.7588901110420396,912.1963251270718,714.023936,40.814958257725884,74.61691160866248,457.3958884486234,573.398863475538,571.821057746783,181.0,405.45422468821226,579.8494920068925,0.6992404585626381,deceptive
1784138580949592526,1784138590949592526,1764.5059594893617,1386.046464,29.153541612661343,60.44662183967062,1355.8413936593777,2044.0983463081031,2033.0917094506106,94.0,1445.3958020866673,1622.3523837858181,0.8909259273954921,1804.151389090909,1008.033792,19.84060470861675,80.63193221870698,2647.363605068574,3417.1293348257564,3397.488782172851,88.0,2416.275324846769,3331.347308845428,0.7253147453077167,931.3458279550563,714.023936,44.641360594387685,73.45111169087082,433.5772578488704,574.7841247625512,573.170716067315,178.0,406.4337523379745,541.6495910897826,0.7503628896317306,883.1526002994652,714.023936,84.03079641296506,76.71391598918527,473.0599022625369,639.9177377669478,638.1952503994477,187.0,452.4901717765636,587.5352453088154,0.7701498342260803,927.8063834606742,714.023936,84.03079641296506,73.99095924391129,471.3014253237267,591.1393343437851,589.467131700393,178.0,417.99863194059225,597.40157253915,0.6996945625100429,deceptive
1784138581949592526,1784138591949592526,1702.807082666667,1344.0450560000002,25.509348911078682,62.84119846741851,1317.5597008555521,1923.1863227571853,1913.5900097645017,96.0,1359.898090306826,1596.0155771881011,0.8520581564139413,2014.530947121952,1008.033792,178.56544237755074,80.95100613880795,2965.6509389792045,3901.8758653578343,3877.7509127254966,82.0,2759.042883742653,3712.68261053527,0.7431399807550132,930.1660131235956,714.023936,95.23490260136039,73.8188218738801,439.40673918154374,592.5281006762362,590.8519692953957,178.0,418.980638031752,546.2455284517828,0.7670188884095104,894.970542356757,714.023936,95.23490260136039,76.0037481412862,478.7239123368682,649.5040991896764,647.736778042638,185.0,459.2687529454801,594.0448423900225,0.7731213541013212,926.3906056629214,714.023936,95.23490260136039,74.21059342044917,474.6611436228399,601.0601665087473,599.3598984319062,178.0,425.0137196394506,600.2400116535083,0.708072956463942,deceptive
1784138582949592526,1784138592949592526,1664.9358131200006,1344.0450560000002,46.08140448452923,62.440663347326954,1211.8223260520415,1774.4684774666682,1765.4878982468124,100.0,1254.7386934184494,1466.2339872802165,0.8557561100775741,1813.3021660689656,1008.033792,178.56544237755074,84.10262931196881,2654.3335537120224,3545.3827670761757,3524.7444527972084,87.0,2506.96419650149,3308.857580412431,0.757652493519836,923.7976348444445,714.023936,95.23490260136039,74.22056229854047,446.41480458384575,604.4326319690638,602.7682151254932,180.0,427.3984128357578,554.2902252935767,0.7710733354704004,891.1109535135136,714.023936,71.42617695102031,76.0594016456257,462.7966613065483,638.7215251699691,636.9904164234199,185.0,451.64432173749924,571.2881958820024,0.7905717726938382,905.7995956043956,714.023936,71.42617695102031,75.01215642097222,448.8076200200889,559.6061489308383,558.0593406364699,182.0,395.70130270268487,569.7076435294616,0.6945690604592033,deceptive
1784138583949592526,1784138593949592526,1688.6280359183675,1344.0450560000002,44.641360594387685,60.687709934821044,1188.3153424696916,1687.8987337791975,1679.1792575501072,98.0,1193.5246406114577,1453.250209848382,0.8212795240098252,2006.4528038554222,1008.033792,19.84060470861675,80.83480033828413,2895.5373748906204,3897.721487705416,3873.988181386022,83.0,2756.105295133018,3601.4184955162877,0.7652832622935457,917.5335206187846,714.023936,95.23490260136039,74.41579217038786,441.8880432633396,593.1094017094142,591.4597650987957,181.0,419.39167993422285,550.077626303035,0.7624227197766121,890.1588727741935,714.023936,71.42617695102031,76.87552605134013,511.51971892373405,697.9099810021326,696.021515173556,186.0,493.4968802243825,633.6680994811342,0.778793946907651,894.2894384432432,714.023936,42.01539820648253,75.76606300286042,445.86047648746865,553.265541509113,551.7737002174913,185.0,391.2178161979411,566.6193070589125,0.6904420857605289,deceptive
1784138584949592526,1784138594949592526,1709.9336102268041,1386.046464,35.713088475510155,61.11871503505216,1202.9810923388422,1653.031753564119,1644.4145749484185,97.0,1168.8699624618785,1487.0099268252018,0.7860539068205422,1943.9910937283953,1344.0450560000002,10.427179116937271,79.32953272285201,2731.409679026641,3805.355578252291,3781.785994802147,81.0,2690.7927342082507,3361.6982166944845,0.8004266179651526,902.9167546810812,714.023936,64.93288813729119,74.58272475087148,397.7649404381414,553.4870824922876,551.9821723889866,185.0,391.3744693294546,489.7416748266991,0.7991447112765052,899.0571658378379,714.023936,68.02493042954313,76.02423991680133,505.57996249444346,686.9889518604975,685.1201991400832,185.0,485.77454646079644,627.0835207188668,0.7746568525735158,894.2894384432432,714.023936,84.03079641296506,75.66169933833734,444.15844447881807,556.8309048857764,555.3157159414695,185.0,393.7389088189739,563.061527228338,0.6992822094543518,deceptive
1784138585949592526,1784138595949592526,1692.3597627474749,1344.0450560000002,44.641360594387685,59.53296908254826,1171.3193735631694,1600.6608950261648,1592.570263124155,99.0,1131.8381732531298,1450.3273163504646,0.7804018861764488,1971.101370729412,1344.0450560000002,44.641360594387685,78.42641542097041,2764.1554517009813,3766.989395635921,3744.5189351494623,85.0,2663.663746311974,3425.428213468813,0.777614820780195,896.7074793978495,714.023936,84.03079641296506,75.12135105065967,400.5641748151749,570.5083886760691,568.9643847931162,186.0,403.41035035665897,489.4214552952117,0.824259635518692,877.8294272,714.023936,84.03079641296506,77.31612520418435,494.09577434073356,674.2251094531083,672.4390795356907,190.0,476.7491469405351,612.0591424760145,0.7789266001515828,896.7074793978495,714.023936,84.03079641296506,75.45466911456215,443.40874469813457,567.6780673761174,566.1417233754097,186.0,401.4090109725264,559.1583252573282,0.7178807733709328,deceptive
1784138586949592526,1784138596949592526,1635.9960194509808,1344.0450560000002,29.76090706292513,59.91491057013078,1144.8736159767873,1564.1442841941987,1556.4386229616543,102.0,1106.0170301078963,1417.6862691283932,0.7801564099142231,1911.8052653176478,1344.0450560000002,14.880453531462566,76.73396034225566,2469.4798140704656,3314.4762077157025,3294.807098427369,85.0,2343.6886025572453,3074.1214958626206,0.7623929651809644,887.3914498723402,714.023936,84.03079641296506,75.7168802055034,404.2535092853751,577.0788546594065,575.5337947123536,188.0,408.05637140903235,493.54513310874484,0.82678633428875,868.9041279999998,714.023936,84.03079641296506,77.14470547747483,431.5677376377477,592.6907899697898,591.1372072453264,192.0,419.09567673445014,533.5548999032567,0.7854780769709732,896.9332934193549,714.023936,84.03079641296506,75.26177657113477,436.5414683500501,566.6468927501842,565.1133394842983,186.0,400.67986040194154,548.5113781067589,0.7304859596257193,deceptive
1784138587949592526,1784138597949592526,1623.3748082330098,1344.0450560000002,35.713088475510155,60.1988066540264,1076.7204586508283,1513.8098592389808,1506.6708392327494,103.0,1070.4252168949363,1321.267883387852,0.8101500311581539,2055.994848395062,1344.0450560000002,35.713088475510155,77.51231168110296,2737.5599883419936,3645.3064152155607,3622.490563683419,81.0,2577.6208857017473,3415.6119018909485,0.7546585969778143,864.966496,714.023936,84.03079641296506,77.0652113659695,391.40114115114386,562.9295677150697,561.4636855627758,192.0,398.0513146617376,476.62068989592393,0.8351532426102968,883.3700384680851,714.023936,84.03079641296506,76.6136405687011,450.42338840871287,603.1324694465252,601.5176540468882,188.0,426.4790590994262,561.0884633691968,0.7600923685697001,906.454299826087,714.023936,84.03079641296506,74.78513325777077,444.79138749530784,576.0155002002974,574.4864812101708,184.0,407.3044662601915,559.2229364593807,0.7283400585086269,deceptive
