window_start_ns,window_end_ns,red_Mean_NN,red_Median_NN,red_Heart_Rate,red_Mean_HR,red_SDNN,red_SDSD,red_RMSSD,red_NN_Count,red_SD1,red_SD2,red_SD1_SD2,infrared_Mean_NN,infrared_Median_NN,infrared_Heart_Rate,infrared_Mean_HR,infrared_SDNN,infrared_SDSD,infrared_RMSSD,infrared_NN_Count,infrared_SD1,infrared_SD2,infrared_SD1_SD2,ppg0_Mean_NN,ppg0_Median_NN,ppg0_Heart_Rate,ppg0_Mean_HR,ppg0_SDNN,ppg0_SDSD,ppg0_RMSSD,ppg0_NN_Count,ppg0_SD1,ppg0_SD2,ppg0_SD1_SD2,ppg1_Mean_NN,ppg1_Median_NN,ppg1_Heart_Rate,ppg1_Mean_HR,ppg1_SDNN,ppg1_SDSD,ppg1_RMSSD,ppg1_NN_Count,ppg1_SD1,ppg1_SD2,ppg1_SD1_SD2,ppg2_Mean_NN,ppg2_Median_NN,ppg2_Heart_Rate,ppg2_Mean_HR,ppg2_SDNN,ppg2_SDSD,ppg2_RMSSD,ppg2_NN_Count,ppg2_SD1,ppg2_SD2,ppg2_SD1_SD2,label
1783771144598075143,1783771154598075143,1461.25824,1517.4604799999997,142.3430809875194,56.2050041118712,699.8420684109365,970.0849180792103,965.8244613583274,114.0,685.953623900606,862.723393889495,0.7951026119832665,1503.0301751351349,1559.6121599999997,28.468616197503874,55.819876220955635,752.0479910569193,1110.22925394344,1105.2775235199847,111.0,785.050634135088,907.1935364780463,0.8653618027117479,886.978968510638,716.5785599999998,83.73122411030553,76.435905360021,421.96354659682527,608.1161821691092,606.4884004678146,188.0,430.0030761610509,513.473608434902,0.8374394888020161,916.2200334065931,716.5785599999998,83.73122411030553,75.27009732471063,468.66274206009604,671.7060498194858,669.8483025799193,182.0,474.9679027913873,571.3950273230874,0.8312426256429831,906.26112,716.5785599999998,29.04960836479987,76.067604633827,477.6648399725961,680.5532147441686,678.7391116722532,184.0,481.2237931039063,583.5573914941324,0.824638330553551,base
1783771145598075143,1783771155598075143,1508.6469469090905,1538.5363199999997,39.53974471875539,52.890930155836934,685.4807589039859,945.2149605113799,940.8698368347992,110.0,668.3679082565715,846.4100136822204,0.7896502846757507,1501.5111956756757,1475.3087999999998,158.15897887502155,55.559056442248554,776.8239525652057,1095.401945561895,1090.5138856908416,111.0,774.5661438317534,952.3311141472075,0.8133370130675203,873.48874052356,716.5785599999998,43.13426696591496,76.95383427537578,401.89544944815503,580.7738455691359,579.2557549609149,191.0,410.6691245377247,488.58503829935114,0.8405274258236943,887.4273906382979,716.5785599999998,83.73122411030553,76.73990101796832,445.8301182767831,639.8518150442519,638.1387277781171,188.0,452.4435573723111,543.301391882558,0.8327671604237541,892.1729916577538,716.5785599999998,83.73122411030553,76.73038641082084,467.9938933469138,663.8125156603033,662.0257072889975,187.0,469.3863312599018,572.6035316282898,0.81974054530388,base
1783771146598075143,1783771156598075143,1467.1022782300886,1517.4604799999997,142.3430809875194,54.49967534041423,676.65447419313,929.6729010533394,925.5732604747835,113.0,657.3780126201865,836.4506136963075,0.7859137190601221,1460.1489852631578,1433.1571199999996,43.13426696591496,56.16676240597281,748.8035338248127,1093.7844972758862,1088.9342433651877,114.0,773.4224351804979,906.819901037019,0.8528953040135415,869.0749520418848,716.5785599999998,79.07948943751077,77.07039701918369,393.17777234565057,559.3816720976843,557.9077171440281,191.0,395.5425736117423,480.5731552674121,0.823064229194502,897.2611667027026,716.5785599999998,79.07948943751077,76.71628034159619,480.5409700014998,684.947485984585,683.083718260932,185.0,484.3310120963777,586.9846531731591,0.8251169932265694,891.0459413903742,716.5785599999998,79.07948943751077,76.64244744356621,463.3014650102236,656.3773469445687,654.6108667821514,187.0,464.1288730417397,567.0879028561103,0.8184425566198423,base
1783771147598075143,1783771157598075143,1455.342214736842,1496.3846399999998,47.44769366250646,54.16959342336698,652.4379504796469,845.8608419419357,842.1098602147746,114.0,598.1139372773052,820.049033576337,0.7293636267929676,1439.3345213793102,1412.0812799999999,142.3430809875194,58.16761316887654,818.8858832815172,1209.8124834689245,1204.5418365860164,116.0,855.4666110250143,987.5406920153667,0.8662596062539798,878.0860496842104,716.5785599999998,83.73122411030553,76.8663292167827,426.7985069283028,596.6456099326188,595.0651307779906,190.0,421.89215674853847,524.7069992571953,0.8040528472953338,897.9447074594593,716.5785599999998,71.1715404937597,75.64737543851814,425.4961110214586,588.0461146914464,586.4467021490093,185.0,415.81139534872403,525.0184022849527,0.791993944477099,926.8686079999998,716.5785599999998,26.35982981250359,75.33575645035884,523.7142108875095,704.0146785711207,702.102429563653,180.0,497.8135532725071,651.6471303244984,0.7639311678156437,base
1783771148598075143,1783771158598075143,1482.0232269026544,1475.3087999999998,41.865612055152766,53.439061009912905,719.5073935155746,1000.7724958256514,996.2973031218318,113.0,707.653018223304,885.9996509857529,0.7987057528024729,1535.249262385321,1433.1571199999996,29.04960836479987,52.8533383473286,825.5285648373653,1210.7482943232997,1205.1375896552545,109.0,856.1283292260512,998.2569632480331,0.8576231979794687,904.0729180327868,716.5785599999998,41.865612055152766,75.76696698180886,457.68459433714224,631.8870718125808,630.1640916021844,183.0,446.8116334227868,564.9159741998269,0.7909346767112958,917.788789392265,716.5785599999998,28.468616197503874,75.52406632366286,503.41131702982176,685.1314804263486,683.2748467097387,181.0,484.46111581384946,624.0950423289704,0.7762617597569095,926.6225247457627,716.5785599999998,64.70140044887245,75.09074368240647,516.7484528203993,699.7593970388565,697.7706263543488,177.0,494.8046148451851,641.5934254249391,0.7712121029255667,base
1783771149598075143,1783771159598075143,1447.5774315789472,1412.0812799999999,47.44769366250646,55.1193007530006,716.980631438648,998.6439457013603,994.2462075076475,114.0,706.1479059963223,882.4964697633806,0.8001707997604321,1472.2979657142855,1391.00544,39.53974471875539,54.377451108520795,773.640911979127,1154.1107084295243,1149.0273283526576,112.0,816.079508170527,929.5416287331441,0.8779375586252628,951.7657745454545,716.5785599999998,83.73122411030553,74.9526469362819,605.2998555126,838.597385760897,836.3228382006388,176.0,592.9778981568414,746.3005000104823,0.7945564797940141,962.7056110344824,716.5785599999998,83.73122411030553,74.1956834075555,613.3819752523792,836.3501135318544,833.963618730347,174.0,591.3888367245132,760.0029717230283,0.7781401635624604,1000.5344881437123,716.5785599999998,83.73122411030553,73.84987434658412,730.692325799146,1036.8843015551759,1033.7701914305014,167.0,733.1879209355419,893.8905337124002,0.8202211493286016,base
1783771150598075143,1783771160598075143,1470.5020294736837,1433.1571199999996,37.45870552303141,53.65184597947116,720.479398366372,975.3336901948718,971.0119749218537,114.0,689.6650662564931,894.6296301450408,0.7708945054107832,1490.8783394594589,1391.00544,37.45870552303141,53.0964256251287,772.0032185598739,1144.693253179014,1139.4782870587533,111.0,809.4203617013703,929.7296800496476,0.870597528582875,916.6832386813185,716.5785599999998,38.47110296959983,75.27539769546782,500.47809907838644,668.2261065742558,666.3955668859868,182.0,472.5072113245409,623.9592317911349,0.7572725704661241,950.8353103448273,716.5785599999998,44.4822128085998,74.66239980576819,595.5021963253836,817.9283265681145,815.5714641541238,174.0,578.3626662408786,736.2024482478189,0.7856027477460812,981.3902908235292,716.5785599999998,38.47110296959983,72.89897614894971,608.2871042266539,850.9400494776266,848.4349078720624,170.0,601.7054793688461,747.6641360836094,0.8047804493080017,base
1783771151598075143,1783771161598075143,1443.6950399999996,1391.00544,79.07948943751077,53.93960196590945,692.3076254612275,968.1263820267264,963.9749158189309,116.0,684.5687297766964,851.0361470874706,0.8043944221635224,1503.7896648648648,1391.00544,23.72384683125323,52.1463155025559,792.2877332268821,1143.0026066579392,1137.8185728878593,111.0,808.2248940817287,963.7561749409813,0.8386196790191492,926.8711955801103,716.5785599999998,79.07948943751077,74.86729826642859,516.0208319419731,681.8403152304797,679.9440393966286,181.0,482.1339105858454,645.2351851284709,0.7472219768825055,953.2027636363636,716.5785599999998,79.07948943751077,74.11789786545903,554.187334310819,723.8586190432501,721.7878502703757,176.0,511.84533814581187,695.1650005072628,0.7362933084552843,975.3702697674418,716.5785599999998,79.07948943751077,73.09258062764022,592.9747340078494,804.5987427634343,802.2430060871992,172.0,568.937227142195,735.7943232515692,0.7732286172418247,base
1783771152598075143,1783771162598075143,1384.7349421487602,1348.85376,25.41840731919989,58.179503738130364,686.3017819831413,972.4907193769875,968.4801405034306,121.0,687.6547823124517,839.9915011997905,0.818644928347786,1495.2350487272731,1412.0812799999999,74.91741104606282,50.92780684061855,746.1154121903219,1061.1759743144835,1056.3412201601457,110.0,750.3647274700129,912.0596496393722,0.8227145316281743,897.196242580645,716.5785599999998,64.70140044887245,76.02206013988294,478.57948250624446,624.1350603595436,622.4469656780816,186.0,441.33013355650843,600.5751399778272,0.7348458239093979,921.9806691712705,716.5785599999998,64.70140044887245,75.0523578684503,477.71983910495396,577.0683611119887,575.4643520707848,181.0,408.0489513504945,610.8850268256762,0.6679635830506884,958.6496365714285,716.5785599999998,64.70140044887245,73.18096122829803,552.3283514461847,744.1952449373349,742.0537109897543,175.0,526.2255042219732,686.7871394949714,0.7662133927099056,base
1783771153598075143,1783771163598075143,1395.9644611764706,1391.00544,64.70140044887245,58.531079359485375,720.897887444384,1041.6374453995193,1037.2153206870084,119.0,736.5489011798321,876.4333325067813,0.8403935289329416,1584.1002788571425,1475.3087999999998,12.270955257544776,48.337735575001375,813.5967418362211,1095.9968768315136,1091.452744841969,105.0,774.9868237668406,1011.7198367863117,0.7660093195647482,888.0846019047617,716.5785599999998,35.58577024687985,75.71595325446494,431.0073782146582,542.7971001845607,541.3783094487401,189.0,383.8155103488967,545.7815929094301,0.7032401153415028,907.9886478688524,716.5785599999998,94.89538732501292,75.99452637123713,461.4042216650299,576.1004129397159,574.5155394749223,183.0,407.3645086340433,585.5038770950167,0.6957503179230621,950.9419007999999,716.5785599999998,67.78241951786637,73.46753994226661,546.2278388325021,742.0862829172275,739.9522059752808,175.0,524.7342428762904,677.5372248133492,0.7744729347097444,base
1783771154598075143,1783771164598075143,1376.1487003278687,1433.1571199999996,33.10304209012079,59.0341776723702,702.5565631170559,978.2562173793275,974.2329165796381,122.0,691.7316050468238,864.8266543344811,0.7998500064491411,1609.0593230769227,1517.4604799999997,21.56713348295748,49.80657369085627,885.3790105210929,1268.349551491232,1262.2497446699647,104.0,896.8585687743663,1079.6362064837474,0.830704420052133,897.196242580645,716.5785599999998,83.73122411030553,75.38865019918416,449.69277174149624,580.8047172674086,579.2328477620728,186.0,410.6909541249201,565.7858676328707,0.7258770104017707,936.9918140782121,716.5785599999998,41.865612055152766,74.31074353929587,492.19395632266617,628.6761010816259,626.9164358839937,179.0,444.5411342447371,621.0486062002865,0.7157912115197209,958.4087698285713,716.5785599999998,41.865612055152766,72.79987365069061,529.5290711714808,705.3974914924861,703.3826263246461,175.0,498.79134966631693,660.6100734779099,0.7550465390882297,base
1783771155598075143,1783771165598075143,1329.4506057142855,1369.9296,61.888296081530164,62.514450456792005,719.7680625301157,1046.3576315758555,1042.1682155760705,126.0,739.8865768335825,873.1643913877012,0.8473622883976026,1573.9355464077669,1517.4604799999997,177.9288512343992,50.06519755449175,784.8116578843584,1126.2691209413192,1120.7986692174386,103.0,796.3925328586186,956.4194391091743,0.8326812487211599,920.6204835164833,716.5785599999998,28.468616197503874,74.27258970896635,468.21260038939687,596.0007744012461,594.4079705484139,182.0,421.43618917155476,591.3052067714954,0.7127219316612834,956.3314682080924,716.5785599999998,41.865612055152766,73.2772748550081,503.0878756582067,646.2043829747481,644.339967958555,173.0,456.9355012339132,633.8767980646008,0.7208585369097942,978.6628291764704,716.5785599999998,83.73122411030553,72.26847702248715,571.5244360648995,774.4985539486795,772.2038994961871,170.0,547.6531795162864,709.4493354154713,0.7719412115532774,base
1783771156598075143,1783771166598075143,1347.4940283870965,1391.00544,37.45870552303141,63.34019328145665,728.403517213236,1049.7630626904706,1045.51420812415,124.0,742.2945802675905,886.3649055721389,0.8374593529156565,1673.0001791999998,1601.7638399999998,37.45870552303141,48.98786954231205,929.0712404730158,1379.6369882422616,1372.6927103921485,100.0,975.5506699618883,1118.2563144988685,0.8723855678821435,957.2044361142854,716.5785599999998,36.49822589423574,72.96520301216668,522.2302965018175,698.6368383459981,696.6506298803798,175.0,494.010845981185,650.7116159983848,0.7591855344755537,969.48864,716.5785599999998,83.73122411030553,72.4287558114058,505.16622286814044,648.8422005570098,646.9718480757715,173.0,458.80071993386355,636.5035547016306,0.7208140732991388,998.3424685714285,716.5785599999998,83.73122411030553,71.90235834930333,608.3599922406505,833.9294781875005,831.4442592945397,168.0,589.6771890577406,752.5584141251558,0.7835633460337249,base
1783771157598075143,1783771167598075143,1333.2168464516128,1391.00544,118.61923415626613,62.8202626784639,705.7106328526144,1007.8569114756957,1003.7705250900384,124.0,712.6624565701943,861.4587083198724,0.8272740755736515,1711.2712973195873,1601.7638399999998,41.865612055152766,49.30269582207571,995.9990182882342,1456.9111927226593,1449.3247990069283,97.0,1030.1917839607734,1205.562330612612,0.8545321613004254,967.2957780346819,716.5785599999998,83.73122411030553,72.44870830265471,531.3426852381134,731.7729910118286,729.6426841510515,173.0,517.4416442336264,656.3361720326698,0.7883789836405212,968.9985041860463,716.5785599999998,83.73122411030553,72.33860253355955,512.1482806652335,667.344291768509,665.4234164683598,172.0,471.88367409564665,642.8488328041876,0.7340507597054048,986.1996610650887,716.5785599999998,83.73122411030553,72.54145437934022,602.8928649102367,827.1635444989815,824.7258970637896,169.0,584.8929514655304,745.5935426103931,0.784466224610483,base
1783771158598075143,1783771168598075143,1296.89936372093,1348.85376,64.70140044887245,64.76509736481712,727.259866104924,1042.1236039257392,1038.0452967327972,129.0,736.892667170454,886.7403364170997,0.8310129097632916,1725.6115595876286,1643.9155199999998,64.70140044887245,49.729579151470034,1008.4302069241986,1493.9276155444707,1486.1269574027672,97.0,1056.3663475533447,1214.869554459559,0.8695306781502766,959.314096551724,716.5785599999998,31.631795775004306,72.80713475166081,521.2580749893615,727.632844449675,725.5588860892136,174.0,514.5141185244215,641.1377171893324,0.8025017164486704,959.3140965517239,716.5785599999998,31.631795775004306,73.42319318142995,542.2523775189193,719.4664751562489,717.416517274083,174.0,508.7396234193663,677.2497911637935,0.7511846146827783,993.5753142857142,716.5785599999998,31.631795775004306,72.36844167381717,613.6436118950413,847.2086277576316,844.6978320986742,168.0,599.0669657671708,757.4142526401532,0.790937011917819,base
1783771159598075143,1783771169598075143,1326.59767296,1433.1571199999996,118.61923415626613,62.82472559265467,709.9608221663499,1021.939894487663,1017.8463057407045,125.0,722.6206293572914,864.2907213639835,0.8360851406768374,1726.9016399999998,1643.9155199999998,101.67362927679956,50.33397786456154,1009.7612189358113,1496.3272980436304,1488.4723897427195,96.0,1058.0631793211953,1216.3414787039997,0.8698734671521288,919.6518470718231,716.5785599999998,83.73122411030553,74.18338684650311,460.9245832048964,645.696599922046,643.9005427812644,181.0,456.5764443939759,566.2790107513189,0.8062747086250054,909.6010072131145,716.5785599999998,83.73122411030553,75.10199108124093,474.1263729189648,659.4060496505849,657.5920400944603,183.0,466.27048926336187,583.8557616532007,0.7986056144125503,945.7783199999999,716.5785599999998,83.73122411030553,73.8091340031085,521.7020013462403,718.2651666185998,716.2100808300316,176.0,507.8901700060974,644.4918494619881,0.7880474678307822,base
1783771160598075143,1783771170598075143,1361.9829718032788,1454.2329599999998,29.04960836479987,61.367108631018716,732.3593581684345,1101.3959240226702,1096.847705870527,122.0,778.8045266476536,877.1728527663887,0.8878575347965849,1698.8005199999998,1664.9913599999998,39.53974471875539,51.336208845369384,984.3377043379995,1457.9228870445895,1450.229308871468,96.0,1030.9071598762982,1185.941249059454,0.8692733815388324,898.8560951351349,716.5785599999998,40.66945171071982,74.80250354554848,417.40228477148094,602.8219277664867,601.1957345436604,185.0,426.2594729716299,507.5438557562086,0.8398475681210444,884.5126468085107,716.5785599999998,40.66945171071982,76.31654892436173,446.67628662558,626.5860764484374,624.9216384700546,188.0,443.0632636537626,548.5315690709815,0.8077260975228009,922.2135513812153,716.5785599999998,83.73122411030553,74.73406311691825,492.0638307342392,687.0251972439648,685.1142960552022,181.0,485.8001758172329,605.1881704244398,0.8027258290202931,base
1783771161598075143,1783771171598075143,1369.4070585123964,1433.1571199999996,38.47110296959983,60.33437127580091,730.0908603137221,1097.9851043313017,1093.400821047752,121.0,776.3927129144823,874.4555484951233,0.8878584100136363,1674.5712872727267,1686.0671999999997,30.285761912238165,51.05846295746531,948.9396582769119,1400.0996534203373,1392.9396315808651,99.0,990.0199592704554,1144.9468067226824,0.8646864233844256,925.9319039999999,716.5785599999998,83.73122411030553,74.24492734400651,500.511568911318,719.7196625477442,717.7066112788045,180.0,508.91865394080355,609.528147884639,0.8349387238423694,891.2713514438501,716.5785599999998,83.73122411030553,75.30764821835605,414.1910594952598,570.8989080666522,569.3623456879973,187.0,403.68648926592516,511.49494300890973,0.7892287006616473,941.6256650847456,716.5785599999998,83.73122411030553,74.05852109364346,526.605274542037,741.0752218117146,738.9670506712133,177.0,524.0193147123882,646.0093724205307,0.8111636410922983,base
1783771162598075143,1783771172598075143,1333.3419417599996,1348.85376,38.47110296959983,61.16023484242725,709.4350767179856,1069.4058779305922,1065.085245416661,125.0,756.184148125475,848.9340511592069,0.8907454555426498,1611.9948302912617,1643.9155199999998,54.74733884135361,52.69629558714008,948.1871564176229,1381.9737897187817,1375.1932162167977,103.0,977.2030381322224,1149.1974931765437,0.8503351633939747,969.9787758139532,716.5785599999998,83.73122411030553,72.57750926452033,557.0454775985801,818.7631183253765,816.365600998868,172.0,578.9529531533173,673.0572540605939,0.8601838100109019,937.2828620224717,716.5785599999998,41.865612055152766,73.5321424203112,491.91678451049,706.6064118007844,704.620560280279,178.0,499.64618541422874,599.2838146210731,0.8337388282881539,987.1973339644968,716.5785599999998,83.73122411030553,72.20338387371913,568.0913230288077,802.3418434846728,799.9503966081828,169.0,567.3413583577277,696.0728368135381,0.8150603332761647,base
1783771163598075143,1783771173598075143,1331.3186611200001,1348.85376,59.309617078133066,60.67094515276837,711.7066365795496,1048.2406724055618,1044.0177910796115,125.0,741.2180877735191,859.273266360262,0.8626104369721579,1577.2757211428568,1643.9155199999998,44.4822128085998,52.03071980174201,845.6797532455093,1214.5359373909646,1208.6882224168762,105.0,858.8065973239112,1030.3271831293368,0.8335280398169456,976.6371705263156,716.5785599999998,83.73122411030553,72.06904474118566,556.0572092551308,819.0088649024531,816.5966129920781,171.0,579.1267222244215,671.3459314928539,0.8626353345683246,932.9885818994412,716.5785599999998,41.865612055152766,73.58763919428402,483.30364879791045,705.7946992853548,703.8237191588867,179.0,499.07221799019453,585.3445946602068,0.85261267045595,972.4466526315788,716.5785599999998,83.73122411030553,72.89809514923664,559.6083928736332,791.406897510152,789.0759528465508,171.0,559.6091839072354,685.3771862212516,0.8164981198054992,base
1783771164598075143,1783771174598075143,1363.0194885245896,1391.00544,24.54191051508955,58.474599480177666,672.9144002462591,976.8412158809867,972.9282828481981,122.0,690.7310478919579,816.7453029290124,0.8457116868806688,1606.6747153398055,1643.9155199999998,30.944148040765082,51.36289897659489,853.4309716230757,1224.0163719053742,1218.001793460142,103.0,865.5102768576452,1040.2570965765701,0.8320157389033852,955.4380799999998,716.5785599999998,83.73122411030553,73.38025886774093,533.1106307923875,790.0384229354418,787.7517656852626,174.0,558.6415262555765,642.1633062540513,0.8699368537799448,928.74986547486,716.5785599999998,83.73122411030553,73.66545798522868,467.6533857645964,683.9157002493444,681.9918829355527,179.0,483.6014294062576,566.0955813043352,0.8542752237917074,960.9608434682077,716.5785599999998,83.73122411030553,73.44849237844792,532.6183276458689,762.3642749416045,760.1448691407668,173.0,539.072948545574,649.6651013882113,0.8297705192932131,base
1783771165598075143,1783771175598075143,1382.926368,1391.00544,27.373669420676805,57.00801875015872,697.7193871598416,1036.1430654099388,1031.7922555326886,120.0,732.6637878307841,839.7776928676624,0.872449690023193,1582.4945005714283,1643.9155199999998,14.983482209212564,52.56910145879241,770.4172247720118,1071.0917120730844,1066.1462216151122,105.0,757.376212879587,948.8287709238713,0.7982222252199755,958.1028413793102,716.5785599999998,79.07948943751077,73.10733490591181,533.2997584471012,793.814371378009,791.5171226783564,174.0,561.3115250047266,641.3126777695161,0.8752540600896379,926.16608,716.5785599999998,79.07948943751077,73.3996839586871,448.3205783327371,652.3912637843929,650.5667731117113,180.0,461.31028660880594,543.671860268352,0.8485086691466925,952.6279679999999,716.5785599999998,79.07948943751077,73.33670584837233,513.2352164899281,725.452349411637,723.3650775018081,175.0,512.9722756966812,628.6895076857978,0.8159389800935742,base
1783771166598075143,1783771176598075143,1354.6796019512194,1391.00544,52.71965962500718,58.631853074603384,662.4288316868658,988.3453089172002,984.2924427685385,123.0,698.8656700892654,795.8751797143777,0.8781096431981622,1492.9358661818183,1622.8396799999998,109.49467768270722,55.174037264397924,681.9352104854785,983.8483680787164,979.5082071610101,110.0,695.6858527277788,829.5069980156643,0.8386738802589843,959.5563475862065,716.5785599999998,83.73122411030553,73.10534334795216,535.462236674644,772.576313593246,770.3500622176138,174.0,546.293950325889,651.3225573614756,0.8387456324849853,919.843328,716.5785599999998,83.73122411030553,73.55574301566128,417.92580632225145,595.4278428555631,593.7623071654949,180.0,421.03106539044666,510.5784760135319,0.8246157744011285,940.748858181818,716.5785599999998,83.73122411030553,73.75429982868285,495.72528091175906,694.0072307995522,692.0215121922932,176.0,490.7372190908608,609.1597484811099,0.8055969231625595,base
1783771167598075143,1783771177598075143,1399.084512,1433.1571199999996,52.71965962500718,56.83189662165496,711.6399388515655,1052.8541715895847,1048.429698202419,120.0,744.4803243315401,857.7513208843937,0.8679442470154819,1503.9117257142857,1643.9155199999998,27.373669420676805,54.57633124274452,666.6018006568898,967.9185570365454,963.5513931507846,112.0,684.4217753168393,809.0113336746828,0.845997759027758,927.8053119999998,716.5785599999998,83.73122411030553,74.4831651016433,510.2161690321884,725.9517244043516,723.9308910500966,180.0,513.3253871403847,623.6101360163676,0.8231511283949234,907.6356313043478,716.5785599999998,83.73122411030553,74.12507257169827,405.022154551754,574.2657050738196,572.7063816914674,184.0,406.0671742605718,495.62144460213483,0.8193091293427515,912.5953888524587,716.5785599999998,83.73122411030553,75.27048907078581,475.2473919185034,654.7844257464832,653.0857637706923,183.0,463.0025076606777,586.9706176638156,0.7888001438699952,base
1783771168598075143,1783771178598075143,1381.948054214876,1433.1571199999996,50.83681463839978,58.11567269299274,674.980039102254,1034.578391015644,1030.2687492743944,121.0,731.5573959562295,802.2518274107146,0.9118799994726682,1498.4732367567567,1643.9155199999998,158.15897887502155,55.29694066142425,688.9690305731733,995.7201843199782,991.2694748338611,111.0,704.0804944969757,837.5511798166865,0.8406417559474714,944.8203272727271,716.5785599999998,71.1715404937597,73.8844979333878,538.7950684414653,732.7052697525957,730.6098195252968,176.0,518.1008648531789,668.121245338659,0.7754593473383152,929.468224719101,716.5785599999998,83.73122411030553,73.75483828238748,444.5196309621787,586.8983953334617,585.2383357616675,178.0,414.999835207794,555.9523118130323,0.7464666058396734,908.6796590163932,716.5785599999998,71.1715404937597,74.98291653181617,452.81560605106614,617.8414686021889,616.1428521733416,183.0,436.87989214686314,560.9384334181972,0.7788375089306022,base
1783771169598075143,1783771179598075143,1411.724062372881,1433.1571199999996,35.58577024687985,55.3006771262975,628.6681059157279,957.0516330580128,952.9553436770057,118.0,676.7376996809803,749.3064911680569,0.9031520581465233,1532.5422737614672,1643.9155199999998,35.58577024687985,53.92070255693563,703.2891967184613,1010.761702465205,1006.0714433376586,109.0,714.716453976806,856.6338679092762,0.8343313062337382,941.3085842696627,716.5785599999998,83.73122411030553,74.12317944275449,537.2459983334471,732.3135276344254,730.2466138237498,178.0,517.8238613449444,665.7294869250651,0.7778292407276695,952.0052727272727,716.5785599999998,83.73122411030553,73.17517019259168,491.39036888597656,665.3595528411047,663.4610924899176,176.0,470.48025174119414,610.1255244853829,0.7711204217165408,925.7067845303867,716.5785599999998,83.73122411030553,74.51473452248177,493.9399306721083,682.6650787246298,680.7710192553672,181.0,482.717106445434,609.4632128333982,0.7920364942147685,base
1783771170598075143,1783771180598075143,1441.8781572413789,1433.1571199999996,101.67362927679956,54.20227200925059,645.7907545290336,955.8337079311366,951.6917049338244,116.0,675.8764965647886,778.2588759314029,0.8684468850495468,1501.2772457142855,1601.7638399999998,41.865612055152766,54.49235438392917,690.3135504684576,1001.2139461108386,996.704187001365,112.0,707.9651707135165,838.127827034174,0.8446983239045347,946.6267118644065,716.5785599999998,40.66945171071982,74.20909126363539,546.8277991469122,738.699553029945,736.6135592899655,177.0,522.3394632069459,679.4277197966325,0.7687932770292232,962.9478620689653,716.5785599999998,79.07948943751077,72.50944945136514,484.86676946409483,667.3513220311578,665.4201671441606,174.0,471.88864524203916,599.0426708565191,0.787737949564305,920.6204835164833,716.5785599999998,79.07948943751077,74.37730329269533,468.4850744149427,673.4525182789275,671.5899389138619,182.0,476.202842482187,570.5891309033949,0.8345809912786646,base
1783771171598075143,1783771181598075143,1440.061274482758,1517.4604799999997,142.3430809875194,55.13563678767419,654.3333039945228,952.6554535615694,948.5044296606167,116.0,673.6291313477319,793.3574491568269,0.849086539823454,1502.2706854054054,1601.7638399999998,74.91741104606282,54.96412424550887,695.5269374671374,1006.5378595262205,1001.9581772000837,111.0,711.7297459919831,845.1247397987613,0.8421594026006838,920.6204835164833,716.5785599999998,41.865612055152766,74.55402043300215,456.5358968722927,621.1730960215986,619.468954741134,182.0,439.2357084875148,566.0265421874781,0.7759984307273564,941.3085842696627,716.5785599999998,41.865612055152766,73.55545775747879,470.1872744390558,646.9238169459245,645.1080020373895,178.0,457.4442178735479,580.968622092351,0.7873819694875577,882.9550323809523,716.5785599999998,83.73122411030553,75.67962896631576,405.53556162849566,589.3868805911308,587.861057280508,189.0,416.7594600083745,492.01012158028095,0.8470546473104866,base
1783771172598075143,1783771182598075143,1476.4278711504421,1517.4604799999997,45.9171228991998,53.44771207923555,664.4612539857217,946.7688279422682,942.6916859656316,113.0,669.4666584540175,811.7417771100372,0.8247285988377394,1603.7710628571429,1643.9155199999998,28.468616197503874,52.02424950901229,727.0960606401842,1091.44947750907,1086.2042705181536,105.0,771.7713268691776,871.5055205265445,0.8855610305289752,907.1774608695652,716.5785599999998,61.888296081530164,75.28229787234693,448.9758978272959,604.9251664930688,603.270804943623,184.0,427.7466873376502,558.2786933024456,0.7661884511611119,931.3179519999999,716.5785599999998,83.73122411030553,74.26452086353306,476.114764807873,652.6397831852671,650.8184740339974,180.0,461.48601636242046,588.9701748705824,0.7835473442501996,885.6337021276593,716.5785599999998,25.88056017954898,75.52147912961324,405.1965015342675,581.8822209277133,580.3908815084474,188.0,411.4528642698749,493.68175979397625,0.8334374444816086,base
1783771173598075143,1783771183598075143,1435.679015384615,1475.3087999999998,35.58577024687985,55.32530247347374,646.6774954343299,944.9794706860548,940.8974668482153,117.0,668.2013918041837,783.0306610841694,0.8533527804377478,1615.544196923077,1664.9913599999998,37.45870552303141,52.017200556078706,759.1266965997133,1118.8380053877488,1113.3941827898477,104.0,791.1379406589082,916.2952921442833,0.8634093697104063,931.0837759999998,716.5785599999998,83.73122411030553,74.508444241117,489.9768763564221,644.8429836360272,643.0393959762281,180.0,455.97284652960064,613.3506830042987,0.7434129596076522,941.545391460674,716.5785599999998,83.73122411030553,73.72249388301648,486.8677056585885,666.3400701228842,664.4552580699861,178.0,471.173582160211,602.559584907313,0.7819535095980391,891.4631897872339,716.5785599999998,83.73122411030553,74.79925165055359,397.04636755788766,580.2638625631445,578.7104507327978,188.0,410.30851209589827,480.74431710905486,0.8534859331531557,base
1783771174598075143,1783771184598075143,1392.4104959999997,1475.3087999999998,142.3430809875194,57.45791851278024,608.4586283471729,892.9576277540534,889.2746169467478,120.0,631.416393897144,735.5953191661903,0.85837467619134,1606.6274953846153,1643.9155199999998,29.04960836479987,53.0922874588298,799.7138240034117,1142.78807722095,1137.3448399123818,104.0,808.0731988620697,976.0088387124013,0.8279363534536424,917.6096492307693,716.5785599999998,79.07948943751077,74.57791579984475,452.9517490874057,593.7169857538408,592.1079992828227,182.0,419.8213067321777,567.6315787634825,0.739601745989376,907.6356313043477,716.5785599999998,67.78241951786637,75.1168632394877,444.75968025548326,632.4824693712452,630.7762323400805,184.0,447.23264307402036,543.703805252853,0.8225666967072851,865.3106536787564,716.5785599999998,79.07948943751077,75.84754452871316,353.7155217533153,507.9966532611933,506.706690606769,193.0,359.207878341061,430.94569347807254,0.8335339783580835,base
1783771175598075143,1783771185598075143,1377.7677223140493,1475.3087999999998,49.0838210301791,59.50337635895415,614.5823130878388,910.2881734182525,906.4898211893571,121.0,643.6709402579623,740.4503355759331,0.869296574438454,1613.5176738461535,1643.9155199999998,83.73122411030553,51.65046189435751,782.5791503512482,1118.4657975927987,1113.3709426147298,104.0,790.8747500030884,955.0491181257325,0.8280985082266412,892.1358229787232,716.5785599999998,64.70140044887245,75.38869605165034,407.743367325439,573.3309802349618,571.7981318373209,188.0,405.40622398847194,500.33209368526445,0.8102742740374637,882.7449195789474,716.5785599999998,64.70140044887245,75.8800492625781,398.90163257166165,564.9283853884745,563.4340465934451,190.0,399.4646921929576,488.3226441424427,0.8180343405833022,851.3783488324873,716.5785599999998,64.70140044887245,76.53521501980694,337.57990655866473,485.58943641091764,484.35144327464224,197.0,343.3635833587137,411.06095829675365,0.8353106186037551,base
1783771176598075143,1783771186598075143,1434.2472496551723,1517.4604799999997,23.72384683125323,57.15428004980922,626.9739043619734,915.7699303010988,911.8294306589535,116.0,647.547127722639,759.2983025075679,0.8528230941437998,1680.5321309090903,1686.0671999999997,29.04960836479987,47.410022950078016,749.8282306917596,1027.2201628312077,1021.9731368222483,99.0,726.3543429094966,927.7334937108425,0.7829342670427375,877.1986458947367,716.5785599999998,49.0838210301791,76.00349443710131,393.7641485889788,547.6522665796772,546.2019393442622,190.0,387.2486314306726,484.8913879989438,0.7986296333881602,863.5634337823833,716.5785599999998,49.0838210301791,76.48411442678751,371.5297793205269,534.9140190786438,533.5196018000132,193.0,378.2413302422593,452.25601366062773,0.83634339581406,841.7562763636363,716.5785599999998,49.0838210301791,76.5612000207,279.14771491041796,379.0418470384794,378.0791328417862,198.0,268.02306039438287,346.3072523465694,0.7739458488907328,base
1783771177598075143,1783771187598075143,1444.9891705263158,1538.5363199999997,30.285761912238165,56.410108276932036,606.5609934006651,887.1774146991427,883.2469871365438,114.0,627.3291660493136,734.2081013870248,0.8544296431273347,1625.7324423529412,1686.0671999999997,37.45870552303141,48.27962988955804,704.9710209996059,992.5891899708804,987.6632467969805,102.0,701.8665471608717,864.6733232190591,0.8117129652478693,870.4760999999999,716.5785599999998,79.07948943751077,76.67090416057826,398.08624735750175,543.6879261851966,542.2807544382173,192.0,384.4454194548036,492.99714035729073,0.779812676349773,857.8084156701029,716.5785599999998,79.07948943751077,76.72530686224351,364.5289847609203,522.4597701547749,521.1049015198196,194.0,369.4348463736063,444.4341442824904,0.8312476688082426,831.0203711999999,716.5785599999998,79.07948943751077,77.25118047848846,272.04014760628115,363.8868159967605,362.9716232342733,200.0,257.3068351756908,338.9812385740978,0.7590592218555665,base
1783771178598075143,1783771188598075143,1396.672892773109,1517.4604799999997,101.67362927679956,58.720413946812286,599.6387231130263,839.9396693958956,836.4169691456322,119.0,593.9270360174246,736.7214768533762,0.8061758136251933,1577.275721142857,1643.9155199999998,37.45870552303141,50.29413398672599,695.3745079346564,973.0222427446649,968.3337150280739,105.0,688.0306260900956,854.6334543836713,0.805059318191887,834.8140223999998,716.5785599999998,83.73122411030553,78.07173918036797,342.01654906719193,492.17885182299614,490.9418064336905,200.0,348.02300368064954,416.4020102331533,0.8357860796247916,830.66071880597,716.5785599999998,83.73122411030553,77.53157916574169,296.8879243964839,440.17662181817593,439.07606582557474,201.0,311.2518742074186,357.5556106483149,0.870499203307315,817.9087069950738,716.5785599999998,83.73122411030553,77.99696286082775,255.21025641464044,355.62400882766195,354.7427206214404,203.0,251.4641481947844,314.0819018103221,0.8006324043040426,base
1783771179598075143,1783771189598075143,1407.4374508474573,1538.5363199999997,36.49822589423574,59.41134984481226,639.8088273585266,938.7128401016179,934.7177027493935,118.0,663.7702148227372,773.5730231134451,0.8580576041176075,1580.4872777142855,1686.0671999999997,41.865612055152766,52.02294645015883,731.6341928429305,1026.5011242845733,1021.5638308257622,105.0,725.8459058772369,898.4158528957953,0.8079175178595448,843.4593745454544,716.5785599999998,83.73122411030553,77.59198136578831,352.41016518898283,511.06195969069415,509.7631978460273,198.0,361.37537730377585,427.8899010216637,0.8445522468301483,839.2208852261305,716.5785599999998,83.73122411030553,76.75386471117397,291.73368654279153,433.35418655945756,432.2584725770292,199.0,306.4276839717727,351.09560660245126,0.8727756149872407,826.7572087128711,716.5785599999998,83.73122411030553,77.27933067328108,259.02062598572763,355.5513572234168,354.6657982960983,202.0,251.41277575275856,320.2798424288094,0.7849784546108038,base
1783771180598075143,1783771190598075143,1429.5233544827588,1517.4604799999997,11.76389099070408,59.45679562155768,723.1262259361637,1007.2550196209997,1003.3054637150741,116.0,712.2368547581979,890.0462957820982,0.8002245030774986,1643.9155200000002,1686.0671999999997,36.49822589423574,51.70157669004809,847.0285440354917,1218.059791174123,1211.9542631645838,101.0,861.2983382298924,1031.5024455147854,0.8349939856905038,837.9753983999998,716.5785599999998,41.865612055152766,77.77769427681245,340.809985060921,491.07157403072,489.84940721665924,200.0,347.2400400450738,414.74699411713425,0.837233409694116,850.736445076142,716.5785599999998,41.865612055152766,76.36419048056435,314.8218704676458,455.4054941409487,454.2569724671171,197.0,322.02031309667535,382.5925760205677,0.8416794608146393,830.8096127999999,716.5785599999998,83.73122411030553,77.1061219292211,264.62717553420435,363.1217905126221,362.20827512702436,200.0,256.76588046807603,327.2471930760416,0.7846236297843875,base
1783771181598075143,1783771191598075143,1447.3288055172413,1559.6121599999997,26.35982981250359,58.864920653563956,730.7430561993974,1063.1705080679478,1058.5608434837086,116.0,751.7750758123929,886.2211609191618,0.8482928516767468,1611.4911507692307,1664.9913599999998,38.47110296959983,52.185763172466224,832.7859723396655,1206.151936290602,1200.2831768622389,104.0,852.8782132923693,1011.6147132663957,0.8430860110155147,846.6526836363635,716.5785599999998,83.73122411030553,77.29151114152609,349.3456942108915,497.1159570010732,495.85268230059785,198.0,351.514064231499,426.97044329918936,0.8232749356497819,855.2919967346936,716.5785599999998,83.73122411030553,76.21313454418919,323.5961851274294,464.7042748519121,463.5112442767724,196.0,328.59554399416425,394.2606578034902,0.8334474604309742,838.1861567999997,716.5785599999998,83.73122411030553,76.666436738722,271.0142170101757,372.50242196075095,371.5653678401213,200.0,263.3989885768597,334.97447373138874,0.7863255538333217,base
1783771182598075143,1783771192598075143,1446.7189648695653,1559.6121599999997,118.61923415626613,59.88015095925465,755.5302314723157,1117.1293781700977,1112.2198789693105,115.0,789.9297587667871,910.8552845784805,0.8672395847517596,1617.57072,1643.9155199999998,44.4822128085998,52.2909790685132,845.8564638192407,1239.2357719296365,1233.216867332833,104.0,876.2720178203917,1023.2399475011081,0.8563700234342569,821.751134117647,716.5785599999998,61.888296081530164,78.01077405292693,271.8089129281657,373.23893516082956,372.3205769531479,204.0,263.9197820550687,336.0555677479319,0.7853456612063315,847.3129583756345,716.5785599999998,59.309617078133066,76.24567268948127,287.15167348701505,403.75978888969036,402.732147256978,197.0,285.5012846943489,352.35873111322894,0.8102574435784431,829.887283960396,716.5785599999998,61.888296081530164,77.00710569269408,257.5055640754969,353.11714102878403,352.23989227774416,202.0,249.69152497465964,318.5047915457382,0.7839490381381067,base
1783771183598075143,1783771193598075143,1500.9008914285712,1559.6121599999997,50.83681463839978,56.93391909974748,749.6539987576144,1121.0099073833533,1115.9675612804785,112.0,792.6737072880727,899.8868998900108,0.8808592584078707,1658.1051944554458,1686.0671999999997,26.35982981250359,50.56342981777466,812.8233659800244,1193.739579753743,1187.772713788623,101.0,844.1013518146511,982.4001743172345,0.8592235362756316,804.7323138461537,716.5785599999998,83.73122411030553,78.83456474814444,241.43767264335747,326.87512834336997,326.08461901601663,208.0,231.13561985281996,299.7873615756816,0.7709985458959036,837.9753983999998,716.5785599999998,64.70140044887245,76.72699609534114,275.6650496041703,390.03534565580145,389.0555646330746,200.0,275.79663781565625,337.56561796386967,0.8170163758951758,818.153827902439,716.5785599999998,56.93723239500775,77.59349923313417,237.5599632001102,332.55714787479263,331.7451737796902,205.0,235.1534143943233,291.92620314151526,0.8055234914295427,base
1783771184598075143,1783771194598075143,1503.7896648648643,1601.7638399999998,88.9644256171996,57.810056238263144,769.0943822684702,1133.2757253698258,1128.116876409278,111.0,801.3469503631073,928.4039370046389,0.8631447136561456,1638.0727128712872,1686.0671999999997,31.631795775004306,50.94246433372094,814.0848081178009,1237.412340807451,1231.2259684410508,101.0,874.9826573088678,970.912366962513,0.9011963253143431,808.6199095652173,716.5785599999998,79.07948943751077,78.60916608957388,245.52151151843955,335.44765163858875,334.63303084527564,207.0,237.1973092067488,304.02359034972517,0.7801937636941114,836.7108479999998,716.5785599999998,83.73122411030553,76.98894078476988,278.34643385303207,392.8676446329756,391.87952577332743,200.0,277.7993756287638,341.12641048082924,0.814359038449108,820.3047529411763,716.5785599999998,83.73122411030553,77.46221496346308,239.77623120060704,336.71722267003884,335.8871027397452,204.0,238.09503149228516,294.34785558396345,0.8088899816168967,base
1783771185598075143,1783771195598075143,1524.8080205504589,1601.7638399999998,36.49822589423574,56.01680047959623,780.0242769631095,1169.7941454523368,1164.3752564717474,109.0,827.1693728416698,935.2920183664581,0.884396911978752,1624.0794352941177,1686.0671999999997,118.61923415626613,52.181313030070804,857.5101843681651,1270.037965899293,1263.7780789256703,102.0,898.0524580517593,1033.1497102955823,0.8692374871738852,828.635253861386,716.5785599999998,83.73122411030553,77.70020776123815,291.05654053419363,412.3974847486217,411.37055503728226,202.0,291.6090580100262,356.2441553467481,0.818565171198922,845.3753599999999,716.5785599999998,83.73122411030553,76.53064721570387,290.95849877787873,418.2132242665706,417.1506384289518,198.0,295.72140686078245,354.38414296395024,0.8344656857032814,828.635253861386,716.5785599999998,83.73122411030553,77.18666930903366,258.2267992363759,354.8007350512631,353.91729419416396,202.0,250.8820057247197,319.2041185346737,0.7859610548773904,base
1783771186598075143,1783771196598075143,1522.058845090909,1622.8396799999998,36.49822589423574,57.39556844675433,794.3184712180142,1191.099653217561,1185.6692786929184,110.0,842.2346418590824,952.4726092977677,0.8842612728570108,1642.2625129411765,1686.0671999999997,158.15897887502155,51.36299377232231,872.6239778893804,1279.1667096351202,1272.8975409944844,102.0,904.507454651077,1055.4043518080105,0.8570245641886615,849.4526375634516,716.5785599999998,49.0838210301791,76.9374205286652,341.42690175118395,480.2142859596473,478.9971456706046,197.0,339.5627780247225,418.9191071900299,0.8105688477720597,849.4526375634516,716.5785599999998,49.0838210301791,76.7240225168714,324.49239761194406,472.64084102155516,471.4431970752453,197.0,334.20754375205456,393.3742379280896,0.8495918429034213,845.1624727272725,716.5785599999998,49.0838210301791,76.50892987389116,297.80756457915555,419.6524662175591,418.59672181254723,198.0,296.7391046040946,365.1734422716361,0.8125977145494709,base
1783771187598075143,1783771197598075143,1563.5887335849054,1622.8396799999998,19.499052190071147,55.11821520386406,799.6984384995402,1190.6654976030718,1185.218782247402,106.0,841.9276474799871,961.5685640044671,0.875577342060525,1669.2065279999997,1643.9155199999998,12.596732830753929,52.0751344243511,958.2141044579554,1405.1004449460347,1398.4879784330142,100.0,993.5560528695764,1158.780274628213,0.8574154001614779,851.378348832487,716.5785599999998,83.73122411030553,76.53232570658871,331.8381851436615,467.7281175219015,466.5336060089819,197.0,330.733723651355,406.8670105313683,0.8128791843295842,842.8217825125625,716.5785599999998,83.73122411030553,77.10624606870044,318.30862055026085,464.28060577372503,463.1068916418089,199.0,328.2959647159991,385.6833359231581,0.8512059872387315,851.3783488324872,716.5785599999998,83.73122411030553,76.1860476780969,306.6513537342972,432.4003582976246,431.2961000642018,197.0,305.7532255397432,375.935616868335,0.8133127371297411,base
1783771188598075143,1783771198598075143,1557.6424553271027,1643.9155199999998,29.654808539066533,56.06362142827116,811.287015239098,1228.3949081612961,1222.6660810543913,107.0,868.6063695358788,969.0896396061506,0.8963116868000885,1760.1654164210522,1686.0671999999997,30.285761912238165,48.14629274863712,956.7262979032411,1466.877724111616,1459.0698247910364,95.0,1037.2391858908134,1136.977508056146,0.912277664721924,860.3265969230766,716.5785599999998,83.73122411030553,76.21418811533151,346.9478839113441,483.4111468552891,482.21067612030487,195.0,341.82330004254084,426.9942436088952,0.8005337429223833,848.8402089795917,716.5785599999998,41.865612055152766,77.39760308097804,331.7829534415819,465.82781149969446,464.64999777917626,196.0,329.39000437672274,407.3217019717819,0.8086728568161142,851.8062846700506,716.5785599999998,83.73122411030553,76.2175468329395,310.721409676336,445.20075231287524,444.0648856957711,197.0,314.8044709497866,378.87288290073144,0.8308973409223077,base
1783771189598075143,1783771199598075143,1558.8242781308409,1643.9155199999998,35.58577024687985,55.0983850844939,775.0785710885201,1145.387142811955,1139.971639784665,107.0,809.911015766218,934.6205946754601,0.8665666264795433,1725.1770061855666,1686.0671999999997,33.10304209012079,49.54295130522808,954.7000260388367,1460.4251059544931,1452.8004718570685,97.0,1032.6764958355043,1135.6469111971214,0.9093288465399225,850.5224771573602,716.5785599999998,79.07948943751077,76.72177388530135,335.06651707186944,470.84412132106394,469.6418955433708,197.0,332.9370710679458,411.2366655342098,0.8095996757376916,829.4699405940592,716.5785599999998,79.07948943751077,78.45523685446527,314.50933204638477,456.8837222496728,455.74621269714424,202.0,323.0655782164947,381.63668059339784,0.8465265385763436,834.6032639999999,716.5785599999998,40.66945171071982,77.17584342528325,291.1167640493137,418.0148599634014,416.9806799673423,200.0,295.5811421168662,354.7024595820165,0.8333213772049418,base
1783771190598075143,1783771200598075143,1526.7415838532108,1643.9155199999998,38.47110296959983,54.74604448143969,685.2045254084695,1035.059430204844,1030.2599667364364,109.0,731.8975420289291,819.251778921778,0.8933731495733628,1721.2660255670098,1686.0671999999997,37.45870552303141,48.869959105579525,910.0859193635655,1401.2028274678173,1393.9362052537354,97.0,990.8000211202576,1079.662178795618,0.9176944794208799,843.2464872727269,716.5785599999998,83.73122411030553,77.43838508498523,340.3150166436215,477.8223417722097,476.60805177418536,198.0,337.8714180695656,417.7919021859174,0.8087074361704905,843.2464872727271,716.5785599999998,83.73122411030553,77.35175768689632,323.29922407148035,446.70067113210234,445.56547064094354,198.0,315.8650737180914,398.94787149823827,0.7917452285980833,814.4527047804878,716.5785599999998,83.73122411030553,78.45998968376686,275.1556469529612,399.19584035012707,398.2162707862389,205.0,282.2740857330372,334.0388156517057,0.8450337880115036,base
1783771191598075143,1783771201598075143,1589.7205028571427,1643.9155199999998,18.729352761515706,53.819216118477605,823.4884752141902,1228.1365896504653,1222.314860996231,105.0,868.4237107651643,989.538613148378,0.8776046727495889,1695.0997028571421,1686.0671999999997,23.72384683125323,50.013508921133486,915.793896436332,1424.7114309827318,1417.3751781380217,98.0,1007.4231140818795,1081.622048641235,0.9314003124727658,837.4985309090907,716.5785599999998,64.70140044887245,77.8558095708591,338.50261791211136,476.3971429058536,475.18666745771765,198.0,336.86365028662584,415.24629465473936,0.8112381847180947,836.0083199999999,716.5785599999998,64.70140044887245,77.83258095263442,320.72952414335475,461.75708976197865,460.5848688969279,198.0,326.5115694316604,390.4227872807664,0.8363025419334829,819.45369980198,716.5785599999998,64.70140044887245,78.36992870346417,289.23399841943626,423.8170176482952,422.76273222967393,202.0,299.6838871613682,349.86768294787544,0.8565635003391159,base
1783771192598075143,1783771202598075143,1656.0184776237618,1643.9155199999998,24.54191051508955,49.5264332474729,794.3178858662147,1163.237954507076,1157.414826697419,101.0,822.5334457655222,961.0417123686642,0.8558769460050148,1706.282801632653,1686.0671999999997,32.350700224436224,48.464298244827155,892.3928971447064,1348.7422879196308,1341.7805114241287,98.0,953.7048178610299,1066.7491391807985,0.8940291422155916,854.7063729230769,716.5785599999998,83.73122411030553,77.2457276041301,377.7083422349439,548.4000775455729,546.984849179696,195.0,387.7774136357031,458.41195700455006,0.8459147011993279,850.3456261224487,716.5785599999998,83.73122411030553,76.94400697591414,329.8663171725784,463.1416518969834,461.9655297299108,196.0,327.4906027062964,404.967315939859,0.8086840340343205,833.3387135999999,716.5785599999998,83.73122411030553,77.93814068678817,319.8113397514028,460.83422283534577,459.67488962051505,200.0,325.8590039697055,389.18702552000633,0.8372812622268534,base
1783771193598075143,1783771203598075143,1655.2964735999997,1643.9155199999998,22.9585614495999,49.19648371959997,789.2648899252866,1153.055550692042,1147.2521002389888,100.0,815.3333989791319,955.768725786797,0.8530655764112207,1689.5081534693875,1664.9913599999998,109.49467768270722,49.21657467343071,893.1611352734841,1343.9650869169736,1337.0830395686974,98.0,950.3268266369598,1069.538726934701,0.8885389586224685,886.7547574468083,716.5785599999998,31.631795775004306,75.82759123664395,412.548572482939,597.8517269525631,596.2821102681019,188.0,422.7450102722456,501.03490642906405,0.8437436291319502,863.78183626943,716.5785599999998,31.631795775004306,76.4024313981128,349.5858452651873,479.54901853180314,478.33529163915966,193.0,339.09236291519136,432.3525310737142,0.7842960050981582,868.2806999999999,716.5785599999998,49.0838210301791,76.31135288237466,363.4240157961284,513.8208575725325,512.4797612787235,192.0,363.32621270462494,445.141620268905,0.8162036443259196,base
1783771194598075143,1783771204598075143,1600.5361211650484,1643.9155199999998,43.13426696591496,50.892284680936584,775.1392650030807,1088.3082768599713,1082.9606076639843,103.0,769.5501625891322,951.6186389140097,0.8086749577197704,1734.8744084210527,1686.0671999999997,16.551521045060394,47.38531339803475,848.6942159370557,1248.1690638165862,1241.6909929298643,95.0,882.5888090919727,1025.2230203047695,0.8608749429266661,911.9043777049179,716.5785599999998,83.73122411030553,74.7649351047794,449.01949178906506,646.1046528355466,644.3271951272047,183.0,456.86498137619515,546.6938836397247,0.8356870179972098,882.9550323809523,716.5785599999998,41.865612055152766,75.5590584245936,374.5951976000184,504.98792607866733,503.6575052512943,189.0,357.08038694755663,465.71442189252133,0.7667368029886016,902.0459519999998,716.5785599999998,79.07948943751077,75.05173715042586,429.23953385117306,618.9753544014086,617.2911071090942,185.0,437.6816704845825,522.2169400761119,0.8381223144940328,base
1783771195598075143,1783771205598075143,1624.6812582524271,1643.9155199999998,32.350700224436224,47.71935533048297,737.9855575591456,1010.5139057548138,1005.5523663475976,103.0,714.5412352425326,913.214530053483,0.7824461960769339,1779.9921391304345,1707.14304,35.58577024687985,44.793717219436914,821.1432615573993,1226.136626510432,1219.384168629255,92.0,867.0095232667236,986.2554209152167,0.8790922765850693,901.6794156521738,716.5785599999998,83.73122411030553,74.32330942081379,381.162941444568,523.8073917295173,522.4199659203576,184.0,370.38775872758,471.14417109174803,0.7861452639206115,886.0966676756756,716.5785599999998,83.73122411030553,75.5025060016906,381.4708499684999,544.7088549366708,543.2375195139911,185.0,385.1673250980794,465.6856070244976,0.8270973362460341,892.3257285245899,716.5785599999998,83.73122411030553,74.87059573682079,377.9697035188116,535.5510110162572,534.0776904503651,183.0,378.6917515609069,462.6213053957447,0.8185782780517618,base
1783771196598075143,1783771206598075143,1580.8887222857143,1643.9155199999998,33.891209758933186,50.61762589693054,750.9017860743752,1059.2878440266184,1054.189123694634,105.0,749.0296177396997,920.4261515916055,0.8137856757377807,1765.4379165957446,1728.21888,43.13426696591496,44.58344681705948,802.2728002872129,1181.0471594605506,1174.6816810819942,94.0,835.126455355665,968.7957441813593,0.8620253137686459,922.2135513812151,716.5785599999998,83.73122411030553,73.76544870262872,422.63147882613873,581.8914347770102,580.2728184711706,181.0,411.4593794451935,522.097043970588,0.788089846891324,913.2091991208789,716.5785599999998,83.73122411030553,75.23873791767207,528.0061903633335,765.613676611841,763.4958279150031,182.0,541.3706225013973,641.1240119276663,0.8444085893361868,907.1774608695652,716.5785599999998,83.73122411030553,74.41600843986296,418.6730602633642,597.4071400017981,595.7726440797143,184.0,422.4306398245326,511.2244517326017,0.8263114927168759,base
1783771197598075143,1783771207598075143,1580.6879999999996,1643.9155199999998,35.58577024687985,50.303386595725826,754.9124871715308,1055.4517470449587,1050.4144528502595,106.0,746.3170875506788,928.0577185660111,0.8041709827098373,1779.3390025531912,1728.21888,34.71782463110228,44.521734708560864,783.746630139308,1130.9619658269633,1124.8829886469632,94.0,799.7108753003141,953.2831785323,0.8389016960643008,913.0560629508195,716.5785599999998,83.73122411030553,74.65635053256302,484.86005247757095,696.6643966343208,694.7478472077061,183.0,492.61611907136285,590.6295121246823,0.8340526657722638,918.0728545054941,716.5785599999998,83.73122411030553,75.09639396626274,532.3817099775638,757.3108465581614,755.2159301063381,182.0,535.4996350674008,650.75390176211,0.8228911630301041,922.010099340659,716.5785599999998,83.73122411030553,73.92932830929655,437.83000706127007,610.2053224211346,608.5173376593424,182.0,431.48032140010787,538.7973610632974,0.8008211483229924,base
1783771198598075143,1783771208598075143,1539.7292920754712,1517.4604799999997,25.88056017954898,53.358308215325586,780.4369075843249,1132.614769031484,1127.2267625126296,106.0,800.8795836541976,947.3433800278058,0.845395239507232,1820.3111373913043,1728.21888,24.12594593008803,44.49152696312477,933.7769300359998,1347.6562931679825,1340.2570676317775,92.0,952.9369036078064,1135.7087386324436,0.8390680384790199,914.3672123076921,716.5785599999998,83.73122411030553,74.05282501541892,411.7479463655366,561.5743112569661,560.0209007931148,182.0,397.09300362996566,510.1287248396621,0.778417258810069,919.4189648618783,716.5785599999998,83.73122411030553,75.05066888240422,543.7731299639604,793.6483584678062,791.4407438890202,181.0,561.1941361501576,658.7176971335623,0.8519493837682174,914.3672123076918,716.5785599999998,83.73122411030553,74.13505921961976,425.37395395452785,596.884214590999,595.2331249944114,182.0,422.0608757205018,522.3201221462172,0.8080501934067763,base
1783771199598075143,1783771209598075143,1577.2757211428566,1475.3087999999998,41.865612055152766,53.122972828662384,851.5983772143488,1249.3788436766536,1243.3577718297897,105.0,883.4442526347693,1029.661458146085,0.857994873601872,1822.2495507692308,1728.21888,36.49822589423574,43.05702267542157,837.372753881018,1125.337123035669,1119.0898380838707,91.0,795.7335108194818,1042.0126428043043,0.7636505337190279,925.9396667403313,716.5785599999998,41.865612055152766,73.82588246698094,487.1493596396286,702.7481825130025,700.8046927562331,181.0,496.9180053214656,592.5919719235727,0.8385500122596222,936.285361340782,716.5785599999998,41.865612055152766,73.99817624819569,548.9176419446741,807.1517803236761,804.8913742160386,179.0,570.7424973136659,663.1347194622545,0.8606735261524073,925.9396667403313,716.5785599999998,41.865612055152766,73.63114383311938,438.16352146167725,616.0412618387923,614.3405515449266,181.0,435.6069537369275,537.6781881454859,0.8101629624206742,base
1783771200598075143,1783771210598075143,1525.96815853211,1475.3087999999998,54.74733884135361,54.65210878573162,808.9914163407728,1215.4351103061465,1209.804075455875,109.0,859.4424085896956,969.3366786544656,0.8866294111378163,1741.83036,1686.0671999999997,67.78241951786637,46.172732218459394,851.6746637474928,1096.806961071734,1091.0263292283994,96.0,775.5596398264328,1072.3586565487112,0.7232278446117094,930.1470719999998,716.5785599999998,83.73122411030553,72.86363486333751,412.5098460239631,562.3823793745333,560.809328168419,180.0,397.6643940755581,511.1362450224863,0.7780007736646884,935.3434243575415,716.5785599999998,83.73122411030553,73.93342179627847,546.8918630631175,806.1040512661169,803.8365597110262,179.0,570.0016409922197,660.0988444183066,0.8635095271141059,940.5981626966292,716.5785599999998,83.73122411030553,72.78102252252191,447.5335837676442,627.4588638442009,625.6839158951337,178.0,443.6804175398411,549.6785067161151,0.8071634821424492,base
1783771201598075143,1783771211598075143,1522.8252392727268,1475.3087999999998,26.85718509198479,55.917370174705596,756.3225514282202,1131.2931050140114,1126.0941202781275,110.0,799.9450260649925,907.7949004233967,0.8811957697624178,1857.952384,1749.2947199999999,30.285761912238165,43.32210358285345,900.6064271486481,1245.3169343305497,1238.3163150080952,90.0,880.5720489915741,1111.0716927859771,0.7925429607369148,926.6383133701657,716.5785599999998,40.66945171071982,73.60600957650696,482.6827537489561,691.6928617485237,689.8095208002495,181.0,489.10071304071016,588.5197768850977,0.8310692898536219,921.5468940659338,716.5785599999998,79.07948943751077,74.59457775901518,534.8133453221274,765.9874768561234,763.8685941144005,182.0,541.6349391889385,652.201215112474,0.8304721405579288,926.6383133701655,716.5785599999998,79.07948943751077,73.46745408491938,435.6914209719104,587.3780405500507,585.792094825715,181.0,415.3389955930077,541.6648299335491,0.7667822842475505,base
1783771202598075143,1783771212598075143,1499.3954742857143,1475.3087999999998,31.631795775004306,56.12679700692417,736.3477729214935,1109.492242737005,1104.4911219479397,112.0,784.5294885132073,881.2904323771418,0.8902053848435219,1880.249096629213,1770.3705599999996,23.72384683125323,42.47948586068063,894.3441611832656,1235.5225978179199,1228.527722002993,89.0,873.6464072262705,1103.6638686010847,0.7915873954754307,896.2303726203206,716.5785599999998,64.70140044887245,74.72507145428591,440.3602924736316,631.7423118077718,630.0428099898596,187.0,446.7092726417418,536.7120151839977,0.8323071964181745,910.8428243478259,716.5785599999998,64.70140044887245,75.50158590844562,542.9060458704793,779.7770564444088,777.6444523063951,184.0,551.3856444255267,661.4233779102166,0.8336349497770146,896.2303726203206,716.5785599999998,64.70140044887245,74.65705898918472,395.03303127266855,541.3759848798521,539.9199007610713,187.0,382.81063008008925,488.702570426828,0.7833202713579882,base
1783771203598075143,1783771213598075143,1500.1481828571425,1475.3087999999998,67.78241951786637,56.38720475812041,750.938234713786,1161.3781158331885,1156.1379029092004,112.0,821.2183412273033,889.1662851941994,0.9235824107387789,1796.205460645161,1728.21888,19.769872359377693,46.07497981938249,900.929214466179,1263.6878055427578,1257.044674488059,93.0,893.5622166020313,1106.3996481777845,0.8076306044327729,878.7852867015704,716.5785599999998,83.73122411030553,75.48169661807417,422.60907512033464,610.2353635260946,608.6273624082694,191.0,431.5015636691395,513.9066656735181,0.8396496727739856,907.286431135135,716.5785599999998,83.73122411030553,75.62805671505576,538.6959155070774,776.8387356008371,774.7248847829967,185.0,549.3079378317354,655.3754446769726,0.8381576427577071,874.2082799999998,716.5785599999998,83.73122411030553,75.73345808696506,374.57757225766295,530.8963164826815,529.5047116868473,192.0,375.4003854918636,458.42555618461057,0.8188906146861666,base
1783771204598075143,1783771214598075143,1579.495027924528,1643.9155199999998,35.58577024687985,52.23412117304387,749.8511339928402,1142.7052098466186,1137.3145054586735,106.0,808.0146027797408,893.3698266384677,0.9044570106202291,1788.6973773913041,1728.21888,38.47110296959983,46.79071447688603,998.4945335568465,1419.7526072329283,1411.9309031164544,92.0,1003.9166961816845,1220.6794422163562,0.8224245133176806,863.8921632989689,716.5785599999998,83.73122411030553,75.7129254488242,324.1070467835615,429.8860048305643,428.77086415884156,194.0,303.97530915288496,404.8336217043088,0.7508647821126603,891.4631897872339,716.5785599999998,83.73122411030553,76.21109066111923,520.5743639814744,762.2473184351228,760.2064919658224,188.0,538.990247806737,629.87307709891,0.8557124719304338,842.1863300502511,716.5785599999998,83.73122411030553,76.91004376199064,318.26526805373135,452.7939330890687,451.6490666979455,199.0,320.1736605674083,389.0115361246501,0.823044128091913,base
1783771205598075143,1783771215598075143,1535.0236799999998,1622.8396799999998,59.309617078133066,55.37882981673252,755.6627899988121,1184.2467006138402,1178.7899660586738,108.0,837.3888726018415,889.6305089186667,0.9412771529381067,1785.7808516129028,1728.21888,23.334931309429408,48.39458384112174,938.0789227201481,1312.3286620422898,1305.2232740668708,93.0,927.9564960755721,1153.010191281569,0.8048120503116716,840.6558129230768,716.5785599999998,83.73122411030553,76.68387502483449,276.87681954172166,397.92429684216694,396.89739371902533,195.0,281.37496869598493,337.2471050946842,0.8343287887289268,850.0588799999997,716.5785599999998,83.73122411030553,77.25029523169617,358.74227240435084,520.2922657570496,518.9284566858925,192.0,367.9021893157231,435.5640315361495,0.8446569566779969,836.9216063999999,716.5785599999998,83.73122411030553,77.26607043934744,314.62364561339797,413.2585718824041,412.4487902328708,200.0,292.21793856151623,394.05636011814227,0.7415638170994276,base
1783771206598075143,1783771216598075143,1583.4716015094339,1601.7638399999998,33.10304209012079,53.33903799761623,822.0379187652426,1203.171164145516,1197.4412603166759,106.0,850.7704890954071,994.7801099830876,0.8552347202738816,1817.1039443478262,1728.21888,40.66945171071982,48.34206029658362,989.7181582237702,1394.3404191537804,1386.6754514711224,92.0,985.9475656661313,1213.6876716495963,0.8123569091923545,835.8678143999999,716.5785599999998,54.74733884135361,77.11168032083003,275.8123793198997,397.1680901302846,396.17351019211833,200.0,280.8402498020341,335.722078835715,0.8365260062012865,857.3003224615384,716.5785599999998,83.73122411030553,76.99756430240647,370.2465331075136,538.4901001040907,537.100445916181,195.0,380.77000138542536,449.0791618175329,0.8478906031719581,827.5918954455443,716.5785599999998,83.73122411030553,77.36647279737446,260.1955152592701,369.0860409219961,368.16677164669494,202.0,260.98324237723904,318.3508849072133,0.8197974459951802,base
1783771207598075143,1783771217598075143,1641.4114598019798,1643.9155199999998,71.1715404937597,51.37626582112273,860.964378293118,1273.3852985166784,1267.0068620903512,101.0,900.4193796443994,1037.8544174207227,0.8675777301041152,1841.560064,1728.21888,26.35982981250359,46.084344189707735,945.8311283249564,1301.206109134432,1294.0210158648129,90.0,920.0916634903197,1168.720972689687,0.7872637566970554,839.6274036363633,716.5785599999998,83.73122411030553,76.94860381736669,284.91813268255663,402.6307865905172,401.6076379031619,198.0,284.70295951262835,349.03982163215306,0.8156747221028315,848.1950302040815,716.5785599999998,83.73122411030553,77.16002842245175,340.66867477566154,492.19254261415995,490.9289358912127,196.0,348.03268453192123,414.18222703969684,0.8402887951504603,839.0090677386934,716.5785599999998,83.73122411030553,76.95369752104205,287.7198713313314,409.49144295976356,408.45606470878124,199.0,289.5541761547131,351.63139543208945,0.8234593950261608,base
1783771208598075143,1783771218598075143,1660.7761920000003,1643.9155199999998,36.49822589423574,49.07237081055818,781.6135271530496,1161.8855931033754,1156.002590273547,100.0,821.5771818463504,940.3961286564117,0.8736501106402643,1898.7636082758618,1812.5222399999998,30.944148040765082,42.6361989641582,904.5076565229843,1246.403178967028,1239.234718250812,87.0,881.3401399400555,1117.089065510277,0.788961388264477,846.2760369230767,716.5785599999998,94.89538732501292,76.89603276873929,303.5356410695722,432.64252275197094,431.5549595211322,195.0,305.92446166757384,370.7733575592169,0.8250982855981341,877.786314893617,716.5785599999998,94.89538732501292,75.72849179946893,371.59924390445286,523.0718929474624,521.6971913158875,188.0,369.8676825512345,455.81898253891495,0.8114354529314881,859.4990999999997,716.5785599999998,94.89538732501292,76.19439610655571,325.073596208776,469.2440585782037,468.0415832789043,192.0,331.8056558521454,395.3456579709413,0.8392798786638849,base
1783771209598075143,1783771219598075143,1638.9073996039608,1643.9155199999998,43.13426696591496,50.26393767148888,824.392189257943,1227.7134590468913,1221.56994050814,101.0,868.1245122460496,991.1734858428101,0.8758552611078674,1868.882351460674,1854.6739199999997,32.350700224436224,42.580120763363816,820.3335568159554,1141.8448901574432,1135.3422360710308,89.0,807.4062648935366,1009.9217051742014,0.7994741183964028,847.0989904568527,716.5785599999998,64.70140044887245,76.75871534559467,300.82992269861086,433.2518137242332,432.14650397911197,197.0,306.3552954457762,366.1563890714867,0.8366788197323107,881.8399085714283,716.5785599999998,83.73122411030553,75.65578425812271,380.7304691484216,525.0285495031962,523.6303351712448,189.0,371.25124767024704,470.10385642706325,0.7897217659346021,859.8505915025906,716.5785599999998,83.73122411030553,76.2122451673968,324.5764864392877,479.3821339067698,478.13211317704724,193.0,338.97435766515446,391.46900710183195,0.8659034342838227,base
1783771210598075143,1783771220598075143,1613.2225491262134,1643.9155199999998,41.865612055152766,52.97653265477819,852.0806070416739,1260.0216161896021,1253.8431742555397,103.0,890.9698292493009,1027.2142441948274,0.8673651424564108,1958.8133647058817,1854.6739199999997,41.865612055152766,41.65786061472314,931.9464101575463,1352.7555319958767,1344.6838953263896,85.0,956.5426099619001,1131.1769713332717,0.8456171175713229,847.9799706122446,716.5785599999998,83.73122411030553,77.17109878127758,344.6472146436676,511.07988005676697,509.76773442560034,196.0,361.3880489161473,415.0454724166579,0.8707191691838413,879.386636190476,716.5785599999998,41.865612055152766,75.6586336497009,373.90013908475476,509.9571419368865,508.615076621731,189.0,360.59415317808316,463.2370412241323,0.7784225376822004,873.9301193717275,716.5785599999998,41.865612055152766,75.33423153414279,334.30829733742604,498.5596565803156,497.26196125667104,191.0,352.5349139939775,401.7258300693735,0.877551025118546,base
1783771211598075143,1783771221598075143,1596.1436159999996,1643.9155199999998,61.888296081530164,53.145805764932206,844.3309275688733,1240.5820414799666,1234.6847923835332,105.0,877.2239741487352,1020.3080319628859,0.8597638621555461,2007.5372414457827,1896.8255999999997,26.85718509198479,40.43439474727626,929.9667961011169,1389.7700683185792,1381.4079802569795,83.0,982.7158395981587,1116.607036070701,0.8800910327918938,862.8057797938143,716.5785599999998,83.73122411030553,76.27175954469202,358.7779683054469,528.3867630690837,527.0161076784052,194.0,373.6258632553587,433.18023758721097,0.8625182564570195,904.7801150270269,716.5785599999998,83.73122411030553,74.34875459086835,395.71101044631547,529.1966510539306,527.7566574975284,185.0,374.1985405414454,493.11472671703297,0.7588468165059975,919.6940729670329,716.5785599999998,83.73122411030553,73.1441059435103,390.15728944624715,553.0818720297414,551.5519054140693,182.0,391.0879422635804,477.4625971990943,0.8190965000353796,base
1783771212598075143,1783771222598075143,1648.0480376470584,1643.9155199999998,56.93723239500775,51.00229583291296,965.525026267383,1434.7637279232051,1427.6535775886541,102.0,1014.5311614149889,1161.8263269336937,0.8732210123801825,2050.525018536585,1896.8255999999997,38.47110296959983,37.612859990005056,872.0752460462732,1234.8984437224321,1227.2520505404075,82.0,873.205063632846,1067.6080404138563,0.8179079124341829,877.9025290052354,716.5785599999998,83.73122411030553,75.51432888480731,375.2421512631538,545.3132470055554,543.8864994975029,191.0,385.594694828483,455.27102898082995,0.8469563628761434,906.3750434594593,716.5785599999998,83.73122411030553,74.01247411925824,380.53735344723964,516.5701580670262,515.1645223783561,185.0,365.27026172780097,472.1294024797764,0.7736655667054061,921.3152914285712,716.5785599999998,83.73122411030553,73.45044738289639,423.35588437038615,612.1253245574302,610.4420236103762,182.0,432.8379679305752,514.5736647176269,0.8411584144479988,base
1783771213598075143,1783771223598075143,1651.845043960396,1686.0671999999997,31.631795775004306,49.833127165233805,819.2342022071326,1224.628332525771,1218.5554218286568,101.0,865.9429983621469,983.5449750396275,0.8804305042860472,1914.7521765517233,1854.6739199999997,30.285761912238165,41.07489699087457,833.8085731383326,1176.2988587568504,1169.4408392277012,87.0,831.7688997289658,1022.0341099981923,0.8138367316629354,864.5439934020618,716.5785599999998,79.07948943751077,76.2293556804079,365.3905931596834,529.466967880902,528.0980265906135,194.0,374.3896834028658,443.7755667225512,0.8436464543730378,911.5300799999998,716.5785599999998,79.07948943751077,73.52658543799016,379.00824963160846,521.532142615521,520.110339814647,184.0,368.7789146501845,468.2900411415422,0.7875010831988201,901.7286812903224,716.5785599999998,79.07948943751077,74.30175045048797,392.49663456244315,560.2529237329732,558.7413205395843,186.0,396.1586415511749,479.2039040407037,0.8267016153472846,base
1783771214598075143,1783771224598075143,1592.5306148571426,1643.9155199999998,54.74733884135361,52.45225347765453,823.805139905673,1195.6468039510637,1189.8915199677447,105.0,845.4499629778196,999.9584976989858,0.8454850525529737,1857.4840319999998,1812.5222399999998,32.350700224436224,44.01012389369202,844.9920886158415,1166.4877622904746,1160.021241419543,90.0,824.8314068867161,1043.0004001693214,0.7908255900504088,860.6330127835049,716.5785599999998,83.73122411030553,76.52392935781332,364.97086760894314,525.3921547924623,524.0293130421096,194.0,371.50835543596236,444.2952164125591,0.8361745562684405,898.8560951351349,716.5785599999998,83.73122411030553,73.74418448325753,344.50177897320077,449.1281870569726,447.9060672758428,185.0,317.5815866900055,432.3585541297054,0.7345329094488845,878.7516025263158,716.5785599999998,83.73122411030553,75.61759024755962,375.0482449885695,532.3740985835043,530.9638804327623,190.0,376.4453352364714,458.7666366763852,0.8205595288351725,base
1783771215598075143,1783771225598075143,1598.8991627184466,1643.9155199999998,37.45870552303141,50.712074644201685,761.6006325839932,1161.511354155239,1155.8039426236658,103.0,821.3125549483391,907.0798700482736,0.9054467881694144,1811.132624175824,1770.3705599999996,36.49822589423574,45.18013972792543,795.4019546280624,1108.350960583745,1102.176653414554,91.0,783.72248016339,978.8861404144799,0.8006268020421111,860.7589218461535,716.5785599999998,83.73122411030553,76.04063651622846,322.12151982344125,449.4925943410757,448.3339277595038,195.0,317.83926155170855,396.249478201372,0.8021190664891783,892.6238117647055,716.5785599999998,83.73122411030553,74.22503660263914,345.12570130128665,443.2728872045042,442.0797455834846,187.0,313.4412644584445,434.85720215348346,0.7207912457382158,887.8758127659573,716.5785599999998,83.73122411030553,74.95561812258954,373.766626229247,531.1258681176832,529.703889783052,188.0,375.56270300960574,457.0331605251927,0.8217405988178922,base
1783771216598075143,1783771226598075143,1599.7566171428568,1643.9155199999998,30.944148040765082,51.37340005622889,847.5685343838962,1147.701968972463,1142.9187716646657,105.0,811.547845041581,1052.3496987976548,0.7711769632934774,1747.5383999999997,1728.21888,19.499052190071147,47.70652071748049,756.9018750661303,1077.6831040367877,1072.1085615793922,96.0,762.03703083458,924.9057675112944,0.8239077510404589,842.1863300502511,716.5785599999998,83.73122411030553,77.21829105949944,310.9635349633848,441.97209424820625,440.86080983768466,199.0,312.52146493812654,380.2128445099036,0.8219645113277758,877.4611501570679,716.5785599999998,83.73122411030553,75.06203927245987,333.09214366676605,414.14110761202426,413.05703374431994,191.0,292.8419855605701,423.1105506738333,0.6921169540542031,859.4619470769229,716.5785599999998,83.73122411030553,76.6556380433509,351.68297160158255,492.1151645848917,490.8510066648548,195.0,347.97797000271083,432.2238901604529,0.8050873122111141,base
1783771217598075143,1783771227598075143,1554.4909278504672,1643.9155199999998,28.468616197503874,52.33395490471079,707.2479586113841,1051.6536909323918,1046.7057796823474,107.0,743.6314563181558,850.8263503835607,0.8740108436732356,1691.1764945454547,1686.0671999999997,118.61923415626613,49.83521555768733,753.7741998716446,1076.0229418459064,1070.6130461135622,99.0,760.8631188915385,920.2688443816818,0.8267835247674323,842.3981475376884,716.5785599999998,83.73122411030553,77.48046318111894,328.2454621270799,451.3375191415245,450.19633521886715,199.0,319.14382038888516,405.66461241749204,0.7867184137334525,886.9694780952378,716.5785599999998,83.73122411030553,74.98073788129966,364.0806842074225,468.3883146563045,467.14094009907194,189.0,331.20055352201126,458.54398469421284,0.7222874240578633,846.6526836363633,716.5785599999998,83.73122411030553,77.30368134732353,337.6082525482282,465.7167972015581,464.53327102600025,198.0,329.31150541370187,416.8160632442291,0.7900643340147502,base
1783771218598075143,1783771228598075143,1564.3394512149532,1643.9155199999998,29.654808539066533,51.387577075900204,695.2394234681983,1036.8206461831217,1031.9245996520208,107.0,733.1429097903034,835.4438633450419,0.8775489795985397,1660.9465018181816,1686.0671999999997,31.631795775004306,51.36891923751299,767.164338161013,1082.208834434114,1076.67535091803,99.0,765.2372054883515,940.3660208452025,0.8137652664231265,848.1688300507612,716.5785599999998,83.73122411030553,76.60168730698766,305.1666754469475,425.4970137589089,424.4101741454472,197.0,300.8718238035502,375.48831197155516,0.8012814625940808,884.070156190476,716.5785599999998,83.73122411030553,75.2347983450326,368.4569727189054,489.9425312803932,488.63775524541944,189.0,346.4416862600682,459.90233800340764,0.7532940314330414,835.4462976,716.5785599999998,83.73122411030553,77.62092868006731,314.69068204587563,418.2254862796498,417.173345024711,200.0,295.73007741338176,392.8515131567325,0.7527782572022242,base
1783771219598075143,1783771229598075143,1600.1426215384613,1643.9155199999998,35.58577024687985,49.23349146376443,668.4903882886496,969.2264190579994,964.5294950553038,104.0,685.3465734210657,811.7319974096258,0.8443015374632546,1680.9579054545452,1686.0671999999997,37.45870552303141,49.360793578117054,692.9439583226433,1014.6195155784467,1009.4964131733202,99.0,717.4443397897295,838.4387087936399,0.8556908600057371,860.6330127835049,716.5785599999998,83.73122411030553,76.21699822064856,331.2249102792394,447.8665782643159,446.71013432518004,194.0,316.68949455751334,411.4289299471219,0.7697307396400521,878.7516025263155,716.5785599999998,83.73122411030553,75.3066008472845,356.4389549863531,494.64947376578476,493.34418286778356,190.0,349.76999721014363,439.2356221771351,0.7963151883639534,839.0090677386934,716.5785599999998,83.73122411030553,77.72157478372606,350.8446077563066,476.3003973119783,475.1008656654009,199.0,336.7952408211467,435.27963479063214,0.7737445400659371,base
1783771220598075143,1783771230598075143,1587.7132799999997,1643.9155199999998,38.47110296959983,48.93964357482107,620.8963339124549,905.634781597411,901.2706157564111,105.0,640.3804953459272,752.3170379049685,0.8512109431008514,1602.9797538461537,1686.0671999999997,37.45870552303141,52.42771559096153,691.0633504227492,985.3410123670778,980.5462225367394,104.0,696.7413116259786,844.0455443469187,0.8254783362017307,854.9225353846153,716.5785599999998,83.73122411030553,76.38781806832965,318.3746916794061,438.77749991706,437.64522293275405,195.0,310.2625456234329,393.1837547452176,0.7891031658326844,883.1673804255317,716.5785599999998,83.73122411030553,75.14049644191668,362.7671016684897,518.6504292900846,517.2618044975668,188.0,366.74123561633286,442.6628210672491,0.8284889043361012,841.9691636363633,716.5785599999998,83.73122411030553,77.3233380600981,335.83150134325246,458.9028531487696,457.7366932597843,198.0,324.4933193673494,415.83366558265294,0.7803440323011838,base
1783771221598075143,1783771231598075143,1576.0713874285714,1643.9155199999998,33.891209758933186,48.34905153730719,604.0718250662025,863.793622830666,859.6494649533124,105.0,610.7943282492589,737.0689818238817,0.8286800059579832,1579.8926852830189,1686.0671999999997,33.891209758933186,51.4003438465762,617.0163280976858,863.7229725922059,859.6010100259623,106.0,610.7443709865513,758.2308058450428,0.8054860951025078,849.7346363076921,716.5785599999998,83.73122411030553,76.56593775729014,307.2576757183207,414.2246005090978,413.1556320160439,195.0,292.9010239542717,381.9935256767044,0.7667696027973127,867.5301260732983,716.5785599999998,83.73122411030553,75.81528981474438,344.51770045466486,504.51750483704876,503.1880756360718,191.0,356.74774889759397,416.8337962322513,0.8558513060174742,816.2475570443347,716.5785599999998,83.73122411030553,78.11324929553572,249.56705625499794,364.4019889051653,363.4988846941508,203.0,257.67111743270743,302.27508788529127,0.8524391448708788,base
1783771222598075143,1783771232598075143,1578.6614769230766,1643.9155199999998,40.66945171071982,48.19937873492185,592.6285900798468,835.2682221839949,831.2158224034014,104.0,590.6238240159347,726.6354249638889,0.8128200246296642,1595.2160062135922,1686.0671999999997,39.53974471875539,50.5838303751147,606.9094944876888,881.5690030943491,877.2487202863211,103.0,623.3634201718787,736.4694781146146,0.8464212553216856,839.856337688442,716.5785599999998,83.73122411030553,77.2028253633341,300.54391400465994,406.8611133012679,405.8332790971174,199.0,287.69425221643473,373.1880184455204,0.7709096701839413,848.3827979695428,716.5785599999998,83.73122411030553,76.79778996998922,319.9969780385017,462.9777194199619,461.8172269203046,197.0,327.3746849401378,388.8560655791799,0.841891676429249,815.2751765853657,716.5785599999998,83.73122411030553,78.3264971406363,253.83986724181435,360.7734706220475,359.91429302634623,205.0,255.10536754905547,310.3707172503787,0.8219376164384085,base
1783771223598075143,1783771233598075143,1518.6100712727268,1559.6121599999997,24.54191051508955,51.45158262530128,611.7547495052642,850.5685735693975,846.689774180626,110.0,601.4428062350897,753.406279837464,0.7982981059898279,1542.0489599999996,1622.8396799999998,40.66945171071982,54.134306003277224,632.3703952262363,903.7361818625387,899.5045824591093,108.0,639.0379825986402,771.7511658010648,0.828036303560785,838.585432763819,716.5785599999998,83.73122411030553,77.16323117552209,293.7630863944636,395.0183905286286,394.01966416443514,199.0,279.32018263618914,365.49092963033314,0.7642328714386994,842.8207127272726,716.5785599999998,74.91741104606282,76.97331083479348,311.7094749524541,457.5572136467685,456.3948748303243,198.0,323.5418085504519,376.81022094712426,0.858633313441497,814.0414688780486,716.5785599999998,83.73122411030553,78.26941303358814,247.86667054789297,363.04868294504286,362.15782353301324,205.0,256.7141856112847,299.87445071223203,0.8560722162277,base
1783771224598075143,1783771234598075143,1474.9324457142854,1517.4604799999997,67.78241951786637,52.93386522591389,609.563496252548,841.2794250260259,837.509198751997,112.0,594.8743863086227,752.4609918023857,0.7905717276901059,1560.4074747169811,1643.9155199999998,47.44769366250646,52.727157237296105,623.013784861247,887.5133175564746,883.3003068014281,106.0,627.566685237553,761.1651463672305,0.8244816361241771,846.2431187817257,716.5785599999998,49.0838210301791,76.79157954232562,302.70278461026123,401.61547709561313,400.59939362044224,197.0,283.9850272837786,378.066401258996,0.7511511902091332,833.5494719999999,716.5785599999998,49.0838210301791,77.85745524536357,316.29465895595837,459.58777022520553,458.4398426763625,200.0,324.97762887664766,383.76997398570404,0.84680316571289,807.9071999999998,716.5785599999998,83.73122411030553,78.61804115053786,242.45603055188425,352.691197227257,351.82142722941944,204.0,249.3903372241955,294.06135984102616,0.8480894509874386,base
1783771225598075143,1783771235598075143,1456.8212210526315,1496.3846399999998,38.47110296959983,53.03725087408005,594.3722879610018,818.689525347011,815.058955239101,114.0,578.9009150592674,734.1619022148749,0.7885194169198858,1594.4683569230767,1664.9913599999998,33.891209758933186,49.70937885327297,594.1566009465022,845.1349541338964,841.0259352997689,104.0,597.60065708586,726.2787758305183,0.8228254452327737,860.6330127835049,716.5785599999998,83.73122411030553,75.91744853979031,316.79111877761545,418.55351409424475,417.4678274648999,194.0,295.96202810549966,396.1268292259264,0.7471395681121642,853.2456049484534,716.5785599999998,21.56713348295748,76.91568470450517,350.9865492882768,495.6282135288123,494.46313420603605,194.0,350.46207073359733,430.0828804441575,0.8148710089824227,815.4169820689652,716.5785599999998,44.4822128085998,78.10483531995966,248.5930676584173,355.0734754340453,354.209225977106,203.0,251.07486229888843,303.44313031677285,0.8274198266963049,base
1783771226598075143,1783771236598075143,1484.3413028571429,1517.4604799999997,54.74733884135361,52.03334864072456,594.0551198423187,818.118726953989,814.4478338197578,112.0,578.4972996448712,733.8074733699157,0.7883502425891049,1606.2654757281555,1643.9155199999998,109.49467768270722,51.264764446591066,725.9470581788933,1021.9582927487669,1017.0069675968427,103.0,722.63363889248,890.448524355948,0.811538925751102,902.0459519999998,716.5785599999998,83.73122411030553,74.7550408336281,423.80601761677735,568.6399931654881,567.0928556725559,185.0,402.0891952211887,527.6222329276627,0.7620778089469087,887.6516017021276,716.5785599999998,83.73122411030553,75.47868009534497,398.1280554220403,568.0688268853005,566.5480695810954,188.0,401.68531967128297,486.14437054085073,0.8262675534520652,847.0989904568527,716.5785599999998,83.73122411030553,76.82446685326242,328.23849030774295,481.3417249588881,480.11243483783903,197.0,340.3599977864598,396.93645460251327,0.8574672188456252,base
1783771227598075143,1783771237598075143,1494.126514285714,1538.5363199999997,34.71782463110228,52.51040175532355,622.6922302085349,869.7936114874539,865.8697557848702,112.0,615.0369609155159,765.7388559280905,0.8031941387773499,1623.862779029126,1643.9155199999998,37.45870552303141,49.157335374264065,702.0115262982456,978.2029236749631,973.406614948015,103.0,691.6939207070732,863.9560904002143,0.8006123556425844,883.1780571428569,716.5785599999998,83.73122411030553,75.55672825703984,404.54507490121136,536.9844047631307,535.5600294389251,189.0,379.7053139994315,505.1983496746105,0.7515965051033779,869.3783999999999,716.5785599999998,83.73122411030553,76.3345145855988,374.4287946716559,502.3259409070959,501.06215464849606,192.0,355.1980791813205,466.16628667406684,0.7619557426933088,841.3218566497459,716.5785599999998,83.73122411030553,77.0612064587969,319.9098228244934,466.70322104239204,465.5123710608135,197.0,330.00901240067964,387.59723340906544,0.8514225179011846,base
1783771228598075143,1783771238598075143,1489.1106775221238,1559.6121599999997,19.235551484799917,53.42477714047114,626.4130901870385,851.7310046127593,848.0056322929289,113.0,602.2647691085127,776.8045398043736,0.7753105681645269,1617.5707199999997,1622.8396799999998,33.891209758933186,49.17440747681307,697.2197170120178,989.2843308516143,984.4702666097818,104.0,699.5296588667726,852.9711576387004,0.8201093936204086,901.0488154838708,716.5785599999998,83.73122411030553,75.80532773757155,537.3230535687146,748.3052059348544,746.2800537668769,186.0,529.1316855137314,661.3939502940092,0.8000249855302074,872.8910399999999,716.5785599999998,83.73122411030553,76.29585089728702,396.4945975783859,528.557216871846,527.1717896027633,192.0,373.74639229517095,494.54296976184423,0.7557409874315978,863.8921632989689,716.5785599999998,83.73122411030553,76.17852407980912,372.89738406364233,529.8994828725987,528.5249485543847,194.0,374.69551768645937,455.96771003641607,0.8217588865153064,base
1783771229598075143,1783771239598075143,1420.187372307692,1517.4604799999997,34.71782463110228,56.209037294544196,592.7769915557087,824.9436911580813,821.4264995073715,117.0,583.3232781149402,729.8192242194593,0.7992709136139894,1632.6472491089105,1643.9155199999998,31.631795775004306,48.72522056685278,694.8481946752346,1016.713741337371,1011.6491015618858,101.0,718.9251810252005,840.9526260918666,0.8548937939182608,906.1471965405404,716.5785599999998,41.865612055152766,75.40270533025628,529.6401550878354,738.4153001216458,736.4163007964017,185.0,522.1384660479155,651.7078324675081,0.8011848869009066,866.1060985263155,716.5785599999998,88.9644256171996,76.43774242885368,381.41726641815444,486.65118604456904,485.3620928054642,190.0,344.1143537245909,481.4051495613112,0.714812365505793,852.3285858461536,716.5785599999998,83.73122411030553,76.41450442808538,329.73659608071773,458.8685629633742,457.6843840525662,195.0,324.46907254472814,405.97088081632006,0.7992422310986705,base
1783771230598075143,1783771240598075143,1406.94515092437,1517.4604799999997,35.58577024687985,57.778385892210565,616.1127027623888,812.019947111613,808.5721794485686,119.0,574.1848110613632,770.9381469246185,0.744787131564144,1628.2119529411762,1643.9155199999998,37.45870552303141,49.570741732858686,701.504189917351,1024.8477094597945,1019.771918573924,102.0,724.6767650425214,849.4928193027596,0.853069912512405,924.7610239999998,716.5785599999998,83.73122411030553,74.7175263782448,549.6839234199217,761.8221308071313,759.6911921346056,180.0,538.6895947517077,677.6515266608327,0.794936001112743,904.6575234782608,716.5785599999998,83.73122411030553,75.72176357720633,522.0270618345808,659.0749015858361,657.2717240617933,184.0,466.0363322212011,660.628167050267,0.7054442354495316,871.5025357068059,716.5785599999998,83.73122411030553,76.09311546603817,412.47789902571645,551.9886738881488,550.5342004503243,191.0,390.31493444447983,513.9096811154067,0.7595010344956478,base
1783771231598075143,1783771241598075143,1403.0487771428566,1517.4604799999997,22.59413983928879,59.12087370500642,633.8246465951628,834.0507214289411,830.509396070688,119.0,589.7629209759364,793.4464151938249,0.7432926908263461,1621.407341359223,1643.9155199999998,38.47110296959983,50.79211314645924,745.0339521156116,1076.8182858254995,1071.568917915779,103.0,761.4255120128847,905.6858033766306,0.8407170667510673,936.756329832402,716.5785599999998,20.932806027576383,74.41667197416174,568.6139071329343,778.866692457832,776.7696764107105,179.0,550.7419198772702,703.5518599328068,0.7828021660405662,911.3009947826087,716.5785599999998,20.932806027576383,75.61360399138471,526.5791412096177,681.2018733301946,679.4396756779666,184.0,481.6824639887602,662.2402780388514,0.7273530166652012,868.8050934715026,716.5785599999998,36.49822589423574,76.40381609584036,414.4303597065927,549.129060718052,547.7184660372238,193.0,388.2928825803339,517.8024379643255,0.7498861614226038,base
1783771232598075143,1783771242598075143,1389.9516479999995,1517.4604799999997,49.0838210301791,58.82819596407783,614.7212938775937,818.6458045834502,815.2296413756479,120.0,578.8699998108748,766.9545618565448,0.754764400135545,1651.8450439603962,1686.0671999999997,35.58577024687985,49.661837127697275,740.8321237470085,1063.752248541043,1058.4269221834784,101.0,752.1864284458093,902.6473616988943,0.8333115016589658,952.6279679999998,716.5785599999998,83.73122411030553,73.78048408045893,562.0284562432315,784.6165268217219,782.3586328546719,175.0,554.8076667466762,691.2642025404284,0.8025985791072819,910.9830295081966,716.5785599999998,83.73122411030553,75.00623337267172,472.77425634604253,629.4354225432671,627.7038225017058,183.0,445.07805559936406,589.9014808754524,0.7544955726146663,877.6818395811517,716.5785599999998,64.70140044887245,75.77250055938926,417.48140060313847,566.5444489926258,565.0526644393292,191.0,400.60742172628176,518.0137899014146,0.7733528132571974,base
1783771233598075143,1783771243598075143,1454.049691826087,1559.6121599999997,142.3430809875194,57.398655087624086,675.1515253163174,927.4428522341566,923.395772717164,115.0,655.8011299777653,834.6386063643612,0.7857306443496522,1610.3578718446604,1643.9155199999998,142.3430809875194,50.965150909659485,736.6290407878519,1028.3951985341607,1023.3417123328608,103.0,727.1852186231908,906.0052518457233,0.8026280390116521,980.0881852631577,716.5785599999998,41.865612055152766,72.2584863633294,570.5855353952558,794.1342991390753,791.8063848148116,171.0,561.5377480940665,702.4766082492026,0.7993686074381878,925.9396667403313,716.5785599999998,41.865612055152766,74.29310606538525,482.2208801768243,639.4279565635882,637.6617209957848,181.0,452.14384416637034,602.3760674597314,0.7506006107996579,886.7464533333332,716.5785599999998,41.865612055152766,75.71748427469134,436.5482838374183,597.7817473754718,596.2019665915612,189.0,422.6955272387398,540.1972360804637,0.7824836911527224,base
1783771234598075143,1783771244598075143,1488.8575542857143,1622.8396799999998,40.66945171071982,55.47557968869241,669.1662228627871,920.094783492888,915.9436694145995,112.0,650.6052607421894,826.9965326337181,0.786708571401407,1655.1837908910886,1686.0671999999997,41.865612055152766,48.582604366209196,722.0101970404613,1025.451485112838,1020.314479554113,101.0,725.1036989011037,883.0117565359933,0.8211710586341973,1009.8628395180722,716.5785599999998,83.73122411030553,70.95650104019276,591.2055599341262,829.6521899579598,827.1342715868697,166.0,586.652689545543,725.9251608248179,0.8081448628657129,931.3179519999999,716.5785599999998,83.73122411030553,74.00898427362709,487.6092168992671,668.3012763823498,666.4318985208866,180.0,472.5603644055846,603.2154240457247,0.7834023228984339,916.0504445901638,716.5785599999998,83.73122411030553,74.42895356058091,469.9204453869376,649.3478509329278,647.561471067111,183.0,459.1582687435847,579.8597176106585,0.7918437077084259,base
1783771235598075143,1783771245598075143,1487.3521371428571,1622.8396799999998,33.10304209012079,55.151681049517784,645.2788447297146,886.4470734575151,882.4686480102565,112.0,626.8127368047785,797.698233294447,0.7857767644991247,1664.5698432,1686.0671999999997,30.944148040765082,46.80731868583679,704.224663911334,987.9107422033976,982.9916231551065,100.0,698.5583850190577,864.7964187494335,0.8077720604223019,1017.005079272727,716.5785599999998,83.73122411030553,70.78727274892184,612.1321472621036,875.9942326897974,873.3194348954553,165.0,619.4214622152622,746.7061386495899,0.829538462527547,922.010099340659,716.5785599999998,83.73122411030553,74.0025252489362,468.0628218679135,649.6769883861339,647.8798148509512,182.0,459.39100406868914,576.754335155176,0.7965107084025468,932.2546559999997,716.5785599999998,83.73122411030553,74.65618892007616,563.3307092778994,801.2806539052764,799.0393050284081,180.0,566.590984010012,688.6002501091366,0.8228155361840381,base
1783771236598075143,1783771246598075143,1493.7501599999998,1601.7638399999998,44.4822128085998,54.49116394976223,643.2751843601449,852.4513154016252,848.7672369079573,112.0,602.7741057518816,803.7024414201231,0.7499966090519696,1658.6686079999997,1686.0671999999997,38.47110296959983,47.03490437846248,644.4452196180368,879.9040307017339,875.4504483945276,100.0,622.1861069025722,798.1613285331418,0.7795242448616543,980.0881852631577,716.5785599999998,94.89538732501292,72.33913595126609,582.4238854286126,826.2806828206475,823.8470103400003,171.0,584.2686739859306,712.5659428676651,0.819950321558434,877.4611501570679,716.5785599999998,44.4822128085998,75.78926418207391,384.4166366697089,511.749606774318,510.4119688475865,191.0,361.8616172196694,479.6669533003965,0.7544018088589267,901.0488154838708,716.5785599999998,44.4822128085998,75.47458280194707,487.4452603384447,679.4038892307651,677.57379394461,186.0,480.41109723958806,599.8402724703934,0.8008983712631598,base
1783771237598075143,1783771247598075143,1516.687054678899,1601.7638399999998,39.53974471875539,52.294392864040496,644.847274964948,869.7642913623098,865.7832244638645,109.0,615.0162284562014,801.5818956458494,0.767253142563395,1639.3247429702972,1686.0671999999997,26.85718509198479,48.13365737142919,643.6080097253052,877.1098207671618,872.7332042991295,101.0,620.2103021097773,797.578918316919,0.7776162181149026,980.4630418934909,716.5785599999998,83.73122411030553,72.37997856326588,584.6729719807964,828.6178606408947,826.1480933643464,169.0,585.9213082714663,715.5648667915726,0.8188234714465537,875.8675402105262,716.5785599999998,83.73122411030553,75.64982845273262,352.5424928093781,488.51196965629026,487.2179469852379,190.0,345.43012643475976,434.63942797235245,0.7947510147577607,905.4549403278686,716.5785599999998,83.73122411030553,75.3066272898924,491.6054077226238,689.2484904009975,687.3523814248298,183.0,487.37228148513634,603.8094760967576,0.8071623596166239,base
1783771238598075143,1783771248598075143,1489.6102628571427,1601.7638399999998,39.53974471875539,53.77480732849915,648.6221148431396,895.1277469268005,891.0878121517165,112.0,632.9508998801764,800.6921224151087,0.7905047173075983,1636.0637364705879,1686.0671999999997,36.49822589423574,49.25541755907535,712.5714256192476,988.3190251459554,983.414982820707,102.0,698.847084656383,878.2496509260513,0.7957271419572998,944.0071159322032,716.5785599999998,83.73122411030553,73.01378013548688,480.79542944740183,656.4573966620817,654.6091256135498,177.0,464.1854767398252,595.4783048499195,0.7795170251531087,861.2848428865977,716.5785599999998,83.73122411030553,76.3123367716763,332.34101794280446,451.69852273145364,450.5270113079043,194.0,319.39908847535673,412.1810470595107,0.7748999881337142,874.0927326315788,716.5785599999998,83.73122411030553,76.70748217369773,443.86091810941787,636.1270154947275,634.44226065627,190.0,449.8097263522818,541.1659951339453,0.8311862356409668,base
1783771239598075143,1783771249598075143,1506.6325255045865,1601.7638399999998,22.59413983928879,52.88133812151887,664.9791186675948,871.0337579600653,867.026955084329,109.0,615.9138768959641,833.4983531185612,0.738950322566928,1626.558945882353,1686.0671999999997,30.285761912238165,48.01905459012257,623.586309664697,866.1582029894911,861.8645758354143,102.0,612.4663389142233,768.220191775102,0.7972536331009692,887.8758127659573,716.5785599999998,83.73122411030553,75.11375675899447,395.62481078254876,554.375667197691,552.8914382819098,188.0,392.00279360030396,486.00914262823676,0.8065749370072218,843.0335999999996,716.5785599999998,83.73122411030553,77.20685021667494,310.7097100613872,422.19363972167645,421.1207733112415,198.0,298.5359856210276,385.3818632181637,0.7746498061119891,847.5269262944161,716.5785599999998,83.73122411030553,77.39062121810205,371.03889515028436,520.4867101861762,519.1572400450973,197.0,368.03968229012247,455.6458268859491,0.8077319281193484,base
1783771240598075143,1783771250598075143,1578.4800548571427,1601.7638399999998,34.71782463110228,49.32021498992115,699.9342030512767,980.272149156576,975.5492656445896,105.0,693.1570840769257,859.9897706362782,0.8060061965203161,1672.4424145454543,1686.0671999999997,36.49822589423574,46.488694119636776,627.000822869912,878.308226367158,873.8165244368123,99.0,621.0577028361466,770.327027069048,0.8062260325970341,879.3866361904761,716.5785599999998,41.865612055152766,76.14179044073762,412.89084249269854,569.4041567457346,567.9005561163948,189.0,402.62954047071673,509.80625947395987,0.7897697075868925,835.1963529648239,716.5785599999998,79.07948943751077,77.81636233328722,309.5782008023012,445.55529844139005,444.4287855570977,199.0,315.0551729215029,376.89181979936996,0.8359299840713327,824.1380193103447,716.5785599999998,41.865612055152766,78.06329646772687,275.58173463086547,396.0174012641999,395.03947125812135,203.0,280.0265899017898,335.6830937034228,0.8341992645873143,base
1783771241598075143,1783771251598075143,1573.132510188679,1601.7638399999998,177.9288512343992,49.88096067452279,705.6574481206802,1001.3825187370751,996.7016633130861,106.0,708.0843695606508,863.2572797076946,0.8202472034761334,1671.7356287999996,1686.0671999999997,22.9585614495999,47.6364778408641,705.7705392413723,977.8003826579155,972.8796499757649,100.0,691.409281224213,870.1728052752645,0.7945654897885454,859.5466292783503,716.5785599999998,83.73122411030553,76.91145079134087,378.8943744640643,525.2599002168475,523.8975381228731,194.0,371.4148373287022,467.06252612158465,0.7952143804232676,826.3398653465346,716.5785599999998,67.78241951786637,78.01531435310159,285.95333359903054,410.3658280219896,409.3456785134525,202.0,290.17245976158137,348.4804008703411,0.8326794248309697,822.4768693596058,716.5785599999998,64.70140044887245,78.50465647845527,319.65459365110473,475.5066352982825,474.3304275032299,203.0,336.2339663186141,384.48859336959833,0.8744965965619729,base
1783771242598075143,1783771252598075143,1587.0505177358489,1601.7638399999998,25.41840731919989,49.391107086337975,711.4486858237991,1012.813254225548,1008.1131677442271,106.0,716.1671201384997,869.4083005913191,0.8237408357516326,1611.5855906796116,1643.9155199999998,118.61923415626613,49.68067383199338,711.8519960391639,959.2528326946082,954.5412674123262,103.0,678.2941828707623,885.1130036733874,0.7663362531741283,850.9504129949237,716.5785599999998,83.73122411030553,76.91367387434057,348.8159147078628,472.9077081612308,471.7123185960034,197.0,334.3962473161951,432.9372467198787,0.7723896473443365,825.7991692610836,716.5785599999998,83.73122411030553,77.88312585322608,280.6868349975708,403.4620242017796,402.46217087733777,203.0,285.29073326432933,341.8695620242576,0.8345017075374681,838.1861567999999,716.5785599999998,37.45870552303141,77.77805570289783,347.75030091095,508.9996429013984,507.74052348150843,200.0,359.9170991171099,420.8210836553639,0.8552734477815945,base
1783771243598075143,1783771253598075143,1593.7349485714285,1601.7638399999998,118.61923415626613,49.91679199417289,720.409065658807,1062.5360369240398,1057.4899956310453,105.0,751.3264369640683,869.3288999718286,0.8642602782311916,1689.4733963636363,1686.0671999999997,142.3430809875194,46.180997544086715,702.4135529071676,945.604294112508,940.9326821282832,99.0,668.6432086860729,873.6290564961408,0.7653628318725987,837.9753983999998,716.5785599999998,64.70140044887245,77.96440234487997,356.30729165334424,498.5325252651435,497.3022171882708,200.0,352.5157292570368,437.9224845607638,0.804972892886763,813.5683479611649,716.5785599999998,64.70140044887245,78.46756406026196,260.3958479955602,383.0522449047177,382.11953974701817,206.0,270.85883992085604,314.5309837281819,0.8611515365205884,821.544508235294,716.5785599999998,64.70140044887245,78.37298584817827,317.93525739120514,463.2581506458388,462.11799790943144,204.0,327.5729797616118,385.3746582870662,0.8500117294106094,base
1783771244598075143,1783771254598075143,1631.5179670588236,1643.9155199999998,33.891209758933186,49.72717057516865,753.7658889551931,1108.5142024754223,1103.0156996945443,102.0,783.8379096119686,910.5630655986407,0.860827700162253,1731.7315199999996,1686.0671999999997,36.49822589423574,45.90805871530957,773.0805767721126,1047.9371849651607,1042.4072292649032,96.0,741.0034897464064,959.5645212576527,0.7722289364921606,803.7605713170731,716.5785599999998,74.91741104606282,79.09054458035104,257.2980088422666,366.20504305635114,365.3066127642346,205.0,258.9460692498575,314.4487196959374,0.823492204071464,821.751134117647,716.5785599999998,64.70140044887245,77.88345895311888,265.6202604138131,388.23890129626386,387.28820267064606,204.0,274.52635982700286,321.5989495702237,0.8536295289330783,792.9784799999999,716.5785599999998,61.888296081530164,79.20968039829057,202.8028058308519,283.36882051163263,282.68616644454625,208.0,200.3720145606091,249.36616449749945,0.8035252696145886,base
1783771245598075143,1783771255598075143,1645.1675500990098,1643.9155199999998,35.58577024687985,49.51691754257819,762.8046280915613,1129.7701917721995,1124.115050604737,101.0,798.8681637845485,919.0465873510233,0.8692357653893628,1750.4039747368422,1686.0671999999997,38.47110296959983,47.28181781793126,907.3052816595092,1092.8619622709793,1088.033250346927,95.0,772.7701044226465,1160.9560418507622,0.665632527473408,791.6486948571427,716.5785599999998,83.73122411030553,79.7359271560782,238.12345872512796,361.6234329930974,360.7573242136597,210.0,255.70638170537828,284.09978241457196,0.9000583510910238,810.4990508737861,716.5785599999998,83.73122411030553,78.33275337824632,240.40570208083403,353.76348495858645,352.89965227685775,206.0,250.14855915040167,290.3491903957138,0.86154384935421,792.2917672037914,716.5785599999998,64.70140044887245,79.25524856427693,201.9898353606048,281.2385292797535,280.5692634623197,211.0,198.8656711846451,248.64836534783166,0.7997867627500946,base
1783771246598075143,1783771256598075143,1731.29244,1664.9913599999998,38.47110296959983,47.318551646149565,831.2203472965252,1218.465973753413,1212.0426076821896,96.0,861.585552686108,1005.3306417397208,0.8570171015529156,1749.9602728421048,1686.0671999999997,38.47110296959983,45.034443769767876,813.918436792591,1114.9622436950547,1109.0165519178381,95.0,788.3973632837411,1007.0457994974272,0.7828813383434954,794.6890191469192,716.5785599999998,83.73122411030553,79.34428316180701,234.0850072446212,355.35561066631163,354.5087435272051,211.0,251.27436203483558,279.32450434113713,0.899578655397723,810.0453286956518,716.5785599999998,83.73122411030553,78.37751909150396,240.91484277280938,352.5677005156463,351.7111507026426,207.0,249.30301186196132,291.5543295421495,0.8550825235676015,795.4624182857141,716.5785599999998,83.73122411030553,79.18442274391353,215.55486540373167,302.3257298157937,301.60159529136297,210.0,213.77657367991972,264.72171854851405,0.8075520771475427,base
1783771247598075143,1783771257598075143,1790.7665341935485,1686.0671999999997,33.10304209012079,45.25732890129849,808.14625291705,1181.0706682115083,1174.637484672998,93.0,835.1430785528844,978.5033221100184,0.8534902842761987,1789.406802580645,1686.0671999999997,35.58577024687985,43.98250711031118,829.3728983788139,1145.5760428692179,1139.3334436731777,93.0,810.0445882776751,1023.5392965741837,0.7914152304546765,802.4953814354066,716.5785599999998,83.73122411030553,78.91514655034561,245.29203972447314,358.96242770202116,358.0984976222556,209.0,253.82476681928497,296.8549534350957,0.8550464254751982,810.0453286956518,716.5785599999998,83.73122411030553,78.38474212971063,241.7368706316449,352.5064169018713,351.64983746006897,207.0,249.25967780308542,292.9304281844279,0.8509176712982253,790.9404860377355,716.5785599999998,83.73122411030553,79.64680111791131,216.88633726648484,300.4745578060745,299.76175371792607,212.0,212.46759739870453,267.41003461641793,0.7945386107274369,base
1783771248598075143,1783771258598075143,1757.0595031578948,1686.0671999999997,40.66945171071982,48.02724545607646,850.9172884091274,1173.104747489629,1167.1379665197596,95.0,829.5103219920492,1050.7505775784316,0.7894455065670727,1832.4400668131868,1728.21888,38.47110296959983,44.18044350724282,926.9609388774459,1344.3354264731377,1336.8500543726384,91.0,950.588696248465,1125.479333302675,0.8446078645078268,802.8987467942583,716.5785599999998,83.73122411030553,78.92575256360894,246.29688837391774,362.3180628695596,361.44628388295405,209.0,256.19755920143945,297.49910886414546,0.8611708457870824,810.6562226086954,716.5785599999998,83.73122411030553,78.2293789776201,236.90123727060467,342.16309992524333,341.3318419595794,207.0,241.9458482289498,288.05467485023337,0.8399302957146706,795.2883321327013,716.5785599999998,83.73122411030553,79.35303195390729,219.8802213072589,309.09066672882625,308.3541196897931,211.0,218.56010644542422,269.8339552012324,0.8099799978191403,base
1783771249598075143,1783771259598075143,1712.1404041237108,1686.0671999999997,33.891209758933186,48.20931563295981,769.9281401078882,1104.5224711597853,1098.7603051878566,97.0,781.0153293300069,938.3955506798582,0.8322879714893886,1848.5853439999996,1707.14304,37.45870552303141,45.24100774045884,992.7675839280664,1446.5487162067222,1438.3990811245667,90.0,1022.864406546468,1203.3491406515864,0.8500146565880373,816.7145022439024,716.5785599999998,83.73122411030553,78.06899406404722,259.4056018385332,377.23651117232095,376.3108327345358,205.0,266.7464951611029,314.65169027045937,0.8477516676672563,802.092016076555,716.5785599999998,64.70140044887245,78.67460457512527,221.58231405359126,319.8098304068649,319.04244755578094,209.0,226.13969977081388,269.49556934478863,0.8391221433458674,798.2725302857142,716.5785599999998,64.70140044887245,79.18774831669937,223.43025891061788,316.4053625741629,315.6498238907945,210.0,223.73237747997882,273.52161308991583,0.8179696476359636,base
1783771250598075143,1783771260598075143,1699.4008946938773,1686.0671999999997,33.10304209012079,49.04471923918697,784.6876757226775,1104.3663034794831,1098.7896522582203,98.0,780.9049021042632,962.581562152985,0.8112610222427598,1866.8510720000002,1728.21888,15.993604605339256,44.25702900339229,1009.4523111847718,1432.1143774547252,1424.1720707682073,90.0,1012.657787732987,1235.0101374419648,0.8199590894293962,819.5460967164179,716.5785599999998,94.89538732501292,77.93754777446357,263.66864818807466,384.92570451186447,383.96224218416137,201.0,272.1835759133486,319.37495608792585,0.8522383196458736,803.5549533658536,716.5785599999998,94.89538732501292,78.63157053711551,224.83818810285175,327.48242638012914,326.6788526585223,205.0,231.56504441281362,272.56785716916903,0.8495684224023999,807.493948235294,716.5785599999998,44.4822128085998,78.73843041065183,238.05981864753298,331.036777980175,330.2371220044601,204.0,234.0783505319273,293.1699463026841,0.7984391083875033,base
1783771251598075143,1783771261598075143,1671.5908654545453,1686.0671999999997,33.891209758933186,49.94244136953851,768.1383940125443,1100.9599215505737,1095.3314162908546,99.0,778.49622634302,936.5068059000854,0.8312766350852091,1880.5397236363633,1728.21888,64.70140044887245,41.51474906858203,901.7328236937074,1357.8381824448375,1350.0266535044948,88.0,960.1365865607611,1079.4966596645766,0.8894298819406229,826.3142185474859,716.5785599999998,94.89538732501292,77.54918109096577,273.006666166937,398.98094481682426,397.85891522270657,179.0,282.12213164419217,330.5583624134161,0.8534714704671525,803.8600278260868,716.5785599999998,94.89538732501292,78.63843843125593,227.31605219139772,331.3135446461944,330.4073974911746,184.0,234.274054118276,275.5050071255658,0.8503440883435628,786.7566229787233,716.5785599999998,44.4822128085998,79.78553905526326,200.14218328798907,278.9492527500263,278.2229450859699,188.0,197.24690822646377,246.29375887365987,0.8008603593063216,base
1783771252598075143,1783771262598075143,1666.907345454545,1643.9155199999998,40.66945171071982,49.77110513113832,774.6045808703979,1110.405460969974,1104.725935321826,99.0,785.1752313184429,944.3380970144243,0.8314556341640951,1943.93630117647,1728.21888,36.49822589423574,40.30362375485541,967.8817867742758,1492.8916808966553,1483.978899926448,85.0,1055.6338311390084,1147.3486451886015,0.9200636925539604,825.4259362025315,716.5785599999998,94.89538732501292,77.69972742640635,277.7432826011131,400.4693108445586,399.1919838059677,158.0,283.1745653552908,337.91825169411106,0.8379972491442246,795.2274263414632,716.5785599999998,94.89538732501292,79.07820959116646,211.43094647162317,310.43990573707384,309.486279093546,164.0,219.5141624975975,255.5638011989608,0.8589407477418994,785.6463730120481,716.5785599999998,44.4822128085998,79.9357712308034,201.49377514762497,276.3374397278302,275.52910085647073,166.0,195.4000775272776,249.21654780060302,0.7840573960747433,base
1783771253598075143,1783771263598075143,1662.0407423999998,1664.9913599999998,35.58577024687985,49.20851458553313,763.9694025416791,1071.8059183856196,1066.379358104385,100.0,757.881233006347,938.1399225958619,0.807855219410412,1961.2928752941175,1728.21888,33.891209758933186,40.62540247448378,1050.4061612064947,1616.627730402101,1606.9780940196797,85.0,1143.1284308215434,1246.3285691682058,0.9171966840048144,799.6945487323942,716.5785599999998,94.89538732501292,78.83523904456703,218.82185317421482,320.06740396929797,318.93039361211305,142.0,226.3218317834647,264.8683089429232,0.8544692745111876,788.58768,716.5785599999998,94.89538732501292,79.63539698380552,208.82618820905222,301.6045727835298,300.54816122674106,144.0,213.26663865210557,253.92011378160083,0.8398965937591627,788.58768,716.5785599999998,44.4822128085998,79.79211936026216,206.79333174061628,279.7587282745442,278.82386777579285,144.0,197.81929385905494,256.8282063818567,0.7702397514894984,base
