window_start_ns,window_end_ns,red_Mean_NN,red_Median_NN,red_Heart_Rate,red_Mean_HR,red_SDNN,red_SDSD,red_RMSSD,red_NN_Count,red_SD1,red_SD2,red_SD1_SD2,infrared_Mean_NN,infrared_Median_NN,infrared_Heart_Rate,infrared_Mean_HR,infrared_SDNN,infrared_SDSD,infrared_RMSSD,infrared_NN_Count,infrared_SD1,infrared_SD2,infrared_SD1_SD2,ppg0_Mean_NN,ppg0_Median_NN,ppg0_Heart_Rate,ppg0_Mean_HR,ppg0_SDNN,ppg0_SDSD,ppg0_RMSSD,ppg0_NN_Count,ppg0_SD1,ppg0_SD2,ppg0_SD1_SD2,ppg1_Mean_NN,ppg1_Median_NN,ppg1_Heart_Rate,ppg1_Mean_HR,ppg1_SDNN,ppg1_SDSD,ppg1_RMSSD,ppg1_NN_Count,ppg1_SD1,ppg1_SD2,ppg1_SD1_SD2,ppg2_Mean_NN,ppg2_Median_NN,ppg2_Heart_Rate,ppg2_Mean_HR,ppg2_SDNN,ppg2_SDSD,ppg2_RMSSD,ppg2_NN_Count,ppg2_SD1,ppg2_SD2,ppg2_SD1_SD2,label
1783335656974828802,1783335666974828802,1199.3219526906475,1220.516736,109.66351373829407,64.36022393523292,570.5864782407097,772.2097711672282,769.4309995305657,139.0,546.0347656908591,708.5625417919973,0.7706232456346116,1249.0980594626865,1262.6035200000001,67.88693707608681,63.932667903874375,579.7956229241722,853.489978000226,850.2758450171486,134.0,603.508551118717,700.15329970468,0.8619663027700832,949.2373511314289,715.475328,44.55080245618197,72.03900071922719,433.55932159286647,619.6825083467982,617.9129272791041,175.0,438.1817038347103,529.0990152064057,0.8281657898451618,944.3222160000001,715.475328,44.55080245618197,72.0210710471382,415.4617938689034,534.2092925511943,532.6930086565034,176.0,377.74301333581764,523.3279203974527,0.721809402121967,1147.821381818182,715.475328,41.93016701758303,66.64641398394589,858.1609031518029,1213.2903922699404,1209.015926390192,143.0,857.9258639225612,1051.1241018086303,0.8161984512070078,truth
1783335657974828802,1783335667974828802,1155.9252133333334,1157.3865600000001,33.15408554878658,67.854452387153,561.3072456241393,730.41264409471,727.8676614478591,144.0,516.4797337037658,704.8091871683849,0.7327937023334719,1261.9560310153845,1262.6035200000001,83.86033403516606,64.20657324253845,592.1668145680608,884.7032026422928,881.333212735753,130.0,625.5796339258216,711.0893989928311,0.8797482212670821,967.751341395349,715.475328,83.86033403516606,71.33156958685633,472.49965063102906,687.0897833705887,685.0778473225353,172.0,485.84584510533927,573.1393784149091,0.8476923125558196,945.7569927272726,715.475328,83.86033403516606,72.873584442097,475.45409420497873,636.6326359878451,634.8112618698487,176.0,450.16725403167214,592.2735120629197,0.7600664977633661,1172.205850140845,715.475328,83.86033403516606,66.02871176456975,879.9399506622107,1241.2972068242484,1236.8957148635445,142.0,877.7296724133465,1078.602774252601,0.8137654504194596,truth
1783335658974828802,1783335668974828802,1116.5708533691277,1094.256384,34.77135801458105,70.06376379553153,531.4053521757583,687.9061323208607,685.6121558947871,149.0,486.42309098389103,668.1912786926524,0.7279698291417401,1257.820930909091,1262.6035200000001,38.530423745887106,64.41136281782555,601.8758947763216,888.6632563254675,885.2670127122408,132.0,628.3798147390571,726.0017834963284,0.8655348086238345,953.7252259310345,715.475328,83.86033403516606,72.49269135675024,483.2967058627419,688.3622938740255,686.3699241558685,174.0,486.7456459114504,590.5004232756127,0.8242934750349277,912.8879225635361,715.475328,83.86033403516606,74.88996618648117,449.4369569448637,593.8488055720048,592.196928086868,181.0,419.91451741949624,561.981365852903,0.7472036315335902,1139.535958510345,715.475328,83.86033403516606,66.55044560003529,796.1815675536621,1110.8275222668724,1106.9637626567112,145.0,785.473673723556,979.4517501990712,0.8019523917986877,truth
1783335659974828802,1783335669974828802,1129.1365269041096,1157.3865600000001,158.4028531775359,69.97521581792084,537.097502134044,698.805198382481,696.4322452467502,146.0,494.1298945046629,674.4370076409392,0.7326553687097354,1269.4021543384617,1262.6035200000001,32.40058360449598,62.8822207369404,602.5523916601163,893.0241355582906,889.5598965827523,130.0,631.4634220165219,725.7862927324023,0.870040435235035,974.3951921403508,715.475328,83.86033403516606,71.71678615329047,518.7406083987539,750.0795645851484,747.87941406267,171.0,530.3863465476114,630.4988495641823,0.8412169933604616,930.8468036648046,715.475328,83.86033403516606,74.2513215854992,478.2068797610391,643.2128782231596,641.4037300340398,179.0,454.8201879381132,594.9226319644828,0.7645030857815243,1109.2268507919464,715.475328,83.86033403516606,66.76076591368867,745.7648492203487,1039.6523432855577,1036.1340511539242,149.0,735.1452220137022,917.6661549498876,0.8011031223591845,truth
1783335660974828802,1783335670974828802,1126.8951144489795,1136.343168,33.943468538043405,70.79193510608295,544.0326848939951,729.6093150176983,727.1064168758628,147.0,515.9116942658865,677.3925644157819,0.7616140497657148,1238.4193232238806,1262.6035200000001,24.163147094878354,64.39275928533914,596.4571523239188,879.475766700397,876.1797430588605,134.0,621.8832785230887,719.8283566680351,0.8639327316885407,968.9747944186048,715.475328,83.86033403516606,72.01524772691477,515.5552629775686,743.4589340822107,741.2868339713959,172.0,525.7048538232536,627.2253675522664,0.8381434824213274,920.5014489385476,715.475328,43.200778139327966,74.65221569277462,467.10647489152973,631.1238909179879,629.3599442172886,179.0,446.27198303694814,580.3426370251608,0.7689801757881181,1057.1865676291393,715.475328,43.200778139327966,67.47668883193401,534.903590244087,726.5796232178874,724.1536410755277,151.0,513.7693786493348,663.5240873496352,0.774304035745745,truth
1783335661974828802,1783335671974828802,1083.5283802352942,1052.1696,71.28128392989115,73.63993840766977,544.9840697105928,721.3491631667218,718.9767070858047,153.0,510.0708848784304,681.1234239668374,0.748867043667059,1205.5728779130436,1262.6035200000001,64.80116720899196,65.43788377302344,570.775152384682,827.479445334747,824.4704566637349,138.0,585.1163270886826,693.1002748857043,0.8442015510456568,968.7301038139537,715.475328,52.80095105917862,72.15867802365332,517.5709633126296,745.7538123836982,743.5749770498621,172.0,527.3275778322333,629.8588865432652,0.837215428881642,936.0762800898877,715.475328,52.80095105917862,73.69435931471791,468.7932295670071,623.3588993675976,621.5971415505409,178.0,440.78130485581096,585.1410982152369,0.7532906271671163,1061.2839353885354,715.475328,32.40058360449598,67.1411383039232,527.6756163509765,708.4821295545502,706.2349628037115,157.0,500.97251815750855,656.8077193579779,0.7627384748876025,truth
1783335662974828802,1783335672974828802,1114.4580403200002,1094.256384,101.8304056141302,72.54648426913408,552.7963004298963,735.0792127252938,732.608351237627,150.0,519.779496027324,689.9870558878267,0.7533177493576431,1198.1108222158275,1262.6035200000001,37.5164652262585,66.15728828740595,569.7293964737547,829.7667900123838,826.7576786676136,139.0,586.7337240211506,690.6916381141687,0.8494872264895811,967.509479583815,715.475328,41.93016701758303,72.13724378502594,510.6178786809597,721.6761992298957,719.5872684078757,173.0,510.3021342963931,625.5054771331419,0.8158236065897354,945.6448585762712,715.475328,83.86033403516606,73.82936075420584,545.8397823176537,753.9863169058842,751.841259026146,177.0,533.1488376060199,673.6158359189917,0.7914731352457929,1041.6479040000002,715.475328,41.93016701758303,67.43736078630668,483.79369602980427,634.7901400131319,632.8087328634582,160.0,448.8644126336435,606.1130671515707,0.7405621771909365,truth
1783335663974828802,1783335673974828802,1126.17454904698,1094.256384,40.732162245652084,72.46356185810494,583.2054677679032,767.3524474925919,764.7556995234704,149.0,542.6001191821058,730.1025890931629,0.7431833927010888,1208.7082138705036,1262.6035200000001,37.5164652262585,66.32958278500614,580.6576838294337,836.4024506307396,833.3759279181609,139.0,591.4258446420425,706.7067473323349,0.8368758991965863,1022.1076114285715,715.475328,21.600389069663983,71.32710526409221,646.4882888846176,809.0736352612313,806.6442987313151,161.0,572.1014539724681,819.9049813918779,0.6977655544929897,953.3257815771431,715.475328,83.86033403516606,74.05267033564267,578.9646663836138,809.8587878285551,807.528399009826,175.0,572.6566406770887,711.6406085838513,0.8046992172308189,1120.9871792432434,715.475328,83.86033403516606,66.72780599288554,652.4333213848581,818.129066553156,815.5539183973511,148.0,578.5046108455568,827.0457576952865,0.6994831972267957,truth
1783335664974828802,1783335674974828802,1139.8023557260274,1094.256384,24.57975307927281,71.49831300740519,593.9130107401483,770.8526287267775,768.3059392292688,146.0,545.0751210681805,746.2652911995232,0.7304039562017469,1247.4143047218047,1304.6903040000002,142.5625678597823,64.66258000230401,604.4884293632873,890.0505118525574,886.7176411682534,133.0,629.3607525295009,729.9075585688493,0.8622472053358464,1039.621987378882,715.475328,41.93016701758303,70.4484047607596,645.2269923279146,804.511454171704,802.0058817933,161.0,568.8755047870623,819.0397263159376,0.6945639955046862,984.583176282353,715.475328,41.93016701758303,72.31231825749941,597.0132332644288,813.9520119196119,811.540335163681,170.0,575.5509871887912,739.7432878767461,0.7780415133481925,1079.8654191483872,715.475328,79.20142658876794,67.75035192300744,598.1932531770861,781.1939399322355,778.6535130667313,155.0,552.3875323479201,750.4027874058429,0.7361213759047119,truth
1783335665974828802,1783335675974828802,1145.3410321655174,1094.256384,40.732162245652084,70.27701122818085,586.9389418418259,768.3341797727327,765.6778259955252,145.0,543.2943087347031,735.8058778978632,0.7383663613653784,1257.8209309090912,1304.6903040000002,109.66351373829407,65.31478984922025,641.3978434031861,931.6950938354069,928.133583345237,132.0,658.8079188492529,778.3112809636477,0.8464581395165768,1025.3166826012273,715.475328,83.86033403516606,71.26723677151891,642.1685001941678,797.7962521827424,795.3301063992218,163.0,564.12713992363,815.8682799839974,0.6914438932896066,985.9264961893492,715.475328,64.80116720899196,72.22849628808979,597.7893740940622,816.4234039133463,813.9909094800537,169.0,577.2985252265308,740.3157960932466,0.7798003612418086,1094.8101574736843,715.475328,83.86033403516606,67.99920380434669,654.6089624460645,790.1413075104589,787.5205994368791,152.0,558.7142766362506,837.2245612563225,0.6673410008395538,truth
1783335666974828802,1783335676974828802,1158.416656111888,1052.1696,59.40106994157595,70.80979351591627,620.7980411528316,835.7215788428003,832.7741728059806,143.0,590.9443955836721,772.1222548680422,0.7653508131101157,1290.7692908307695,1304.6903040000002,61.983725156427084,63.21645118332624,649.3760805859478,940.7193624291552,937.0681141765989,130.0,665.1890403671412,788.7587453474323,0.8433365009146603,1054.0342043544306,715.475328,83.86033403516606,70.74903588556589,709.6462389418878,909.0633361625489,906.1725266746752,158.0,642.8048495286043,894.7606001607289,0.7184098734489819,975.1335567719299,715.475328,64.80116720899196,72.87803962630885,579.012393230658,790.935767464586,788.6079588351481,171.0,559.276044657195,717.0187277649655,0.7800020041324811,1065.745981935484,715.475328,83.86033403516606,69.44894117808336,644.9273973581337,775.8629139008518,773.3397757916517,155.0,548.6179276904468,825.452530697309,0.6646268650082112,truth
1783335667974828802,1783335677974828802,1187.9815625531917,1136.343168,158.4028531775359,68.12827464488628,619.4129044406874,853.8207861338765,850.7659613630684,141.0,603.742467793293,764.9132033549483,0.7892953934449657,1320.0553203809523,1346.777088,37.5164652262585,60.99166732577104,658.4633728310483,929.3104261829423,925.6337298760975,126.0,657.1217041813189,806.9966292785862,0.8142806058170927,1034.6552240496894,715.475328,83.86033403516606,70.75099878672206,646.6275012621857,870.493260056399,867.7688642980121,161.0,615.5316871630646,804.2478609398047,0.7653507296168427,984.088037647059,715.475328,83.86033403516606,72.07710888438412,575.2106710147998,783.0479629584148,780.7278157461492,170.0,553.6985246022076,713.0523150690009,0.7765187951863352,1054.3005764050633,715.475328,83.86033403516606,69.2343977306911,593.256562643293,715.3799005043735,713.0981826777598,158.0,505.84997877120014,758.9233147869811,0.6665363534301024,truth
1783335668974828802,1783335678974828802,1222.9743584233577,1136.343168,33.943468538043405,65.32257748155475,636.3109771661225,883.5411748168008,880.315642971547,137.0,624.7579561704887,783.9783590285182,0.7969071454276742,1328.5955973119999,1346.777088,142.5625678597823,61.97757522508723,694.839848183339,1019.1231749519919,1015.00639668484,125.0,720.6289078729178,840.2093892690285,0.8576777611350616,1026.5515575652175,715.475328,83.86033403516606,70.94097463142653,648.5526628708308,860.8675871109037,858.1731592588328,161.0,608.725308549821,809.9184294724708,0.751588414831239,996.0538880000001,715.475328,83.86033403516606,71.6298196932424,588.2901891368067,783.3772089437398,781.0282465076588,168.0,553.9313366711093,733.9964103428018,0.7546785363873975,1042.251058547771,715.475328,83.86033403516606,69.63802683887256,587.6740208806817,686.7142805912522,684.5097346755578,157.0,485.58032454371596,756.8536079349464,0.6415776042458304,truth
1783335669974828802,1783335679974828802,1191.6572269714286,1052.1696,47.520855953260764,65.9215083665216,611.4622702239659,833.5308733380413,830.5492253141829,140.0,589.3953328656743,757.6798707983294,0.777894933706841,1320.7233645714286,1346.777088,33.943468538043405,63.56923243858041,703.7203706704933,1017.584196644439,1013.5070846117673,126.0,719.5406858755481,855.3217645296452,0.841251463151104,1051.3755097358492,715.475328,83.86033403516606,70.65658934081996,686.8795257127352,937.4856822119951,934.5142462674613,159.0,662.9024831573985,850.8155585075897,0.779137706790637,1025.5748837300614,715.475328,83.86033403516606,71.40123967361887,716.3452201262238,1001.0126036378177,997.9182759758888,163.0,707.8228000855026,880.7919110862312,0.8036209133807605,1090.3799696842107,715.475328,28.51251357195646,68.94193912116744,707.5428326292722,925.7675965128753,922.7428909728358,152.0,654.6165452970257,887.1145976263732,0.7379165522115905,truth
1783335670974828802,1783335680974828802,1224.2031696350364,1136.343168,49.15950615854562,64.72519605273536,645.7930779720278,909.0638368974073,905.7290581703442,137.0,642.8052036016184,792.1477982198222,0.8114712999849037,1280.4094670769232,1304.6903040000002,129.6023344179839,66.51797973738292,706.4631885916993,1022.0930121369706,1018.1255857349555,130.0,722.7288998854361,858.4939966624669,0.8418566730753629,1079.5938915096776,715.475328,19.800356647191986,70.3882459252302,750.4626624088078,1013.3865242822733,1010.1625226733142,155.0,716.5724832830614,932.5504562436317,0.7684007642540411,1045.8565824000002,715.475328,36.55450457943136,70.88667576337093,737.0528356387821,1023.5460950931863,1020.3264743145938,160.0,723.7563846974028,908.0650377870583,0.7970314400179827,1108.192405192053,715.475328,21.600389069663983,68.57290553779767,732.2410523757064,950.4421024606404,947.2736921499151,151.0,672.0640557751183,920.0646010124036,0.7304531171350412,truth
1783335671974828802,1783335681974828802,1275.454446412214,1178.4299520000002,158.4028531775359,62.0971218278203,662.1023831257788,933.9284921936638,930.3647305196625,131.0,660.3871699734673,811.605522620989,0.8136799856176693,1312.9751039999999,1346.777088,29.094401604037202,64.58787041603473,711.1798651691131,1058.8433597558567,1054.6717904538966,127.0,748.7153198977134,855.1410913522681,0.8755459508018034,1086.4522121324505,715.475328,89.10160491236394,70.11230094307226,740.4468300495392,972.1060883801874,968.8617786667044,151.0,687.3828071263598,927.5103527693723,0.7411052664522433,1028.4624874936712,715.475328,83.86033403516606,70.52230559763346,656.3247900972805,885.4653535298482,882.6408954453425,158.0,626.1185559866993,815.7893337847975,0.7675002970213721,1063.9211046233768,715.475328,43.200778139327966,70.16240470578936,695.1213161555628,988.2869884970504,985.0618302068774,154.0,698.8244313246958,849.829097783514,0.822311724966041,truth
1783335672974828802,1783335682974828802,1257.1832523636365,1115.299776,71.28128392989115,63.25747830377665,682.3527443092094,969.3358560962304,965.6394884402317,132.0,685.4239570929119,834.4504388243591,0.8214076297432263,1293.597663255814,1262.6035200000001,67.88693707608681,66.09626079590639,720.534918157456,1066.7361777034118,1062.5740924279341,129.0,754.2963849911006,868.2508959759399,0.8687539379308661,1125.8214720000003,715.475328,43.200778139327966,68.3597622926334,765.7550328494469,1046.561122218945,1043.008047577903,148.0,740.030466447219,948.123934427072,0.780520815450568,1054.566948455696,715.475328,43.200778139327966,69.10847916010971,660.2633824919028,894.6372994509727,891.7966387141006,158.0,632.6041011442028,819.6349761491789,0.7718119889372128,1081.958297766234,715.475328,43.200778139327966,69.3744370866676,712.5799524901263,1000.4606400107014,997.1980936103487,154.0,707.4325028618002,874.8199839561313,0.8086606568618065,truth
1783335673974828802,1783335683974828802,1273.9345772307693,1136.343168,41.93016701758303,62.88913339068683,689.7629357982546,983.845743676961,980.0771554027004,130.0,695.6839969955009,842.3524816632502,0.8258822905369164,1264.5165556363636,1157.3865600000001,129.6023344179839,67.76147380607753,724.3659155910094,1061.94839494431,1057.8983683379208,132.0,750.9109113352915,876.0584232565793,0.8571470707900097,1054.5669484556965,715.475328,83.86033403516606,69.31843869676392,643.1770924117798,854.6784038537018,852.0534042719563,158.0,604.3488950986472,802.9537663546167,0.7526571521575531,1034.9166326459629,715.475328,83.86033403516606,70.14104968116014,655.6540143052692,935.0441999454529,932.1177553119434,161.0,661.1760944905798,800.7418179327968,0.8257044651389366,1030.9955037018635,715.475328,83.86033403516606,70.77210469158491,659.2348325716296,964.346695500803,961.3283885807689,161.0,681.8960878034565,797.9285630121656,0.8545828779825995,truth
1783335674974828802,1783335684974828802,1265.1542341818183,1136.343168,22.628979025362266,62.459110330471184,657.4732959272604,948.0100268801885,944.5382284771537,132.0,670.3443186398225,799.9134434103267,0.8380210686069943,1245.0150132537312,1094.256384,95.04171190652153,68.7552287169283,730.4847428432299,1059.2039882903832,1055.2156914302063,134.0,748.9703227799665,886.9823261209413,0.8444027583452023,1054.833320506329,715.475328,79.20142658876794,68.96290886249939,629.7124988530319,845.4165833589998,842.7202565993521,158.0,597.7997990207109,783.8324837418121,0.7626627007941421,1035.178041242236,715.475328,61.983725156427084,70.23483725055435,660.8157665739111,944.3718591613265,941.4184233468877,161.0,667.7717455747211,806.470955838694,0.828017104323699,1041.6479040000002,715.475328,43.200778139327966,71.0282469592416,705.3846201540598,1028.5269583315803,1025.2985657218258,160.0,727.2783868694339,854.7912018125079,0.8508257751452115,truth
1783335675974828802,1783335685974828802,1233.3940355820896,1136.343168,89.10160491236394,63.81705923052798,639.533130381847,922.6630783316994,919.1892372192393,134.0,652.4213194387993,777.9321697184639,0.8386609332210964,1193.6787867826085,1031.1262080000001,71.28128392989115,70.3985034808197,695.6562613133609,991.260689614212,987.6380439399165,138.0,700.9271555498628,849.8387077059714,0.8247766890283501,1097.90390528,715.475328,83.86033403516606,67.09023727223976,661.68717854773,884.0797138513517,881.1080089259953,150.0,625.1387607737533,824.7791276445101,0.7579468730726607,1046.6457096000001,715.475328,83.86033403516606,69.46213852973224,659.3306993574104,950.0167317451555,947.024693597506,160.0,671.7632732576807,802.3721048125533,0.8372216197802828,1021.1177654634147,715.475328,83.86033403516606,70.20764429749488,614.1720392402681,887.2918069819463,884.5660163847049,164.0,627.4100536081994,746.7214339261843,0.8402196925155101,truth
1783335676974828802,1783335686974828802,1227.324892235294,1136.343168,47.520855953260764,64.68143628942774,666.183960180651,936.7980638761455,933.3262096991368,136.0,662.416263569251,817.4377557242059,0.8103568240280091,1163.6106618591552,989.039424,49.15950615854562,72.1600197709053,678.5956272715723,976.416899334052,972.9538071599342,142.0,690.4310107842507,826.2182280595825,0.8356521162765492,1089.3049976470588,715.475328,83.86033403516606,67.19451872441121,647.4489475600147,865.0550745592723,862.2048474329499,153.0,611.6863093206958,807.0317273118538,0.7579458014100201,1061.5520040764334,715.475328,83.86033403516606,68.31557382684274,652.590502900181,935.4682411645341,932.4651641246162,157.0,661.4759369120947,795.5963306816816,0.8314215531201984,1054.8333205063293,715.475328,83.86033403516606,68.44855214017215,624.4409434993815,907.5471659248542,904.6523109750899,158.0,641.7327552720973,757.5899413549765,0.8470713775902772,truth
1783335677974828802,1783335687974828802,1244.8335445333332,1136.343168,39.60071329438397,65.13768920759101,681.1461418357707,987.5334194099012,983.8501652688087,135.0,698.29157751308,827.1121867453403,0.8442525557032774,1207.1943007769785,1094.256384,33.943468538043405,68.845710865635,659.269465952393,919.0057003225633,915.712627480455,139.0,649.8351626471766,811.2518648163256,0.8010276349802967,1134.0527307755103,757.562112,29.094401604037202,65.67211745612195,693.7945294502045,931.3748625544738,928.2255787726539,147.0,658.5814811389571,863.6185005779289,0.7625838037261103,1072.673417846154,715.475328,29.094401604037202,67.78229795833434,656.5727531580161,939.7470416003899,936.7561867818542,156.0,664.5015057156323,800.8710475662253,0.8297234713815568,1029.0478482962965,715.475328,83.86033403516606,68.64531225832377,553.9933952425125,809.0082723108902,806.4919107802565,162.0,572.0552353870435,670.9648036803351,0.8525860555564779,truth
1783335678974828802,1783335688974828802,1214.7221787826088,1094.256384,35.64064196494557,66.66593370221592,660.7160751081731,943.5322953231996,940.0856523433221,138.0,667.1780842915426,806.5532627999416,0.827196559809876,1222.3599528175184,1094.256384,47.520855953260764,68.64842321532157,693.5849689926898,967.6341782862651,964.0862282908292,137.0,684.2206891740908,853.2533285480034,0.8018963024011186,1096.748364631579,757.562112,83.86033403516606,65.9432762357934,607.3558206717549,812.9324981897742,810.236197235716,152.0,574.8300821169101,756.6686025959152,0.759685389541513,1035.4394498385095,715.475328,83.86033403516606,68.81755450887304,624.9972359212569,889.670560818755,886.8859825931041,161.0,629.0920865769804,763.7831257114373,0.8236527692216336,1072.2626452645163,757.562112,64.80116720899196,66.67871129517019,584.4194205658933,863.8156082206305,861.0075286415743,155.0,610.8098742675897,704.6614556067011,0.8668132326631847,truth
1783335679974828802,1783335689974828802,1199.0191700719424,1094.256384,118.8021398831519,66.92891013554748,627.9864344362587,879.4249264565244,876.3992359458191,139.0,621.8473290418892,771.6131630251425,0.8059055480649269,1231.7398784,1052.1696,40.732162245652084,68.68534676751737,710.2126769431177,1022.0230659687602,1018.2031806837223,135.0,722.6794404755766,864.679886511981,0.8357768600247916,1090.6088627200002,757.562112,79.20142658876794,65.67003699709018,575.3718685560378,769.9872420059542,767.4078274780501,150.0,544.4632002495374,716.8580654762483,0.7595132516055609,1011.622576390244,715.475328,95.04171190652153,68.78001067102207,468.3313129551401,646.5494439261291,644.5631122152929,164.0,457.1794961725574,578.0673762878113,0.790875795670113,1038.7544376,736.51872,44.55080245618197,67.39398375598743,498.58950299047314,732.0459557925437,729.7510948661524,160.0,517.6346594810952,602.6692000065369,0.8589034572788532,truth
1783335680974828802,1783335690974828802,1215.027155478261,1136.343168,24.163147094878354,66.30673865868862,662.0773022605254,930.697220270469,927.3464003284452,138.0,658.1023156847185,812.4920795813063,0.8099799766957139,1245.7688064,1052.1696,178.20320982472788,67.6938018781426,717.4715730055706,983.6156200751207,979.9393447937059,135.0,695.5212750361286,887.499855846881,0.7836860709937127,1057.2629050700639,757.562112,83.86033403516606,66.76530506638953,529.6093692372724,717.2925727545497,714.9911344068037,157.0,507.2024422894871,657.5294740432498,0.7713759798030365,1049.239507443038,715.475328,83.86033403516606,67.57324573316893,508.6056954906838,702.0436639541568,699.8191226381124,158.0,496.4198354710341,627.808235408377,0.7907188970659531,1024.6313339259261,715.475328,83.86033403516606,68.06469232213281,485.2737359703228,705.0635515975808,702.8705025786576,162.0,498.5552185021207,588.8145248695386,0.846710122534059,truth
1783335681974828802,1783335691974828802,1199.9275179280573,1136.343168,79.20142658876794,66.36139636143254,629.129983808783,877.3234594506957,874.1408870230314,139.0,620.361367471628,774.070384350703,0.8014275962669629,1284.2944009846155,1094.256384,71.28128392989115,64.85157146793001,726.0812468764858,973.4269361354685,969.6896534356629,130.0,688.3167875310342,904.1559346334587,0.7612810591240272,1055.366064607595,715.475328,83.86033403516606,67.25076881076677,545.0631416380384,729.4692925546718,727.1436661568918,158.0,515.8126834327619,679.0848949502582,0.7595702500061414,1020.6045120000002,715.475328,31.68057063550718,68.93589118880902,493.646138191674,683.8546067960175,681.7842243112733,164.0,483.5582298111241,608.6532171064839,0.7944724782856534,1033.7241576296299,715.475328,37.5164652262585,67.9539365287034,493.96120823873156,723.9102384783736,721.6608881291837,162.0,511.88183859842877,597.4812483633951,0.8567328932925711,truth
1783335682974828802,1783335692974828802,1176.3552513802817,1094.256384,158.4028531775359,66.72480519628036,601.9616980759769,836.3840504347252,833.4642378085776,142.0,591.4128337386655,741.5060363514432,0.7975833030958096,1291.6401384186047,1094.256384,49.15950615854562,64.00642190787704,724.7340548176028,992.1615125049773,988.2905890052884,129.0,701.5641335245709,896.8738950937791,0.7822327501807975,1064.5007596433122,715.475328,83.86033403516606,67.15628103448925,556.0060632352103,743.60043889299,741.2134688095375,157.0,525.8049128345262,692.8564653145494,0.7588944307473792,1044.5413704,715.475328,83.86033403516606,68.37347791827405,528.2613326788862,717.3998227719741,715.1404861043967,160.0,507.2782795040903,655.327738447741,0.774083332266185,1012.8886016000002,715.475328,83.86033403516606,68.98476115270581,488.5210346929481,714.1601459004974,711.979684140706,165.0,504.98748201941584,591.4384365061019,0.8538293266880126,truth
1783335683974828802,1783335693974828802,1136.343168,1094.256384,31.68057063550718,68.9027124105373,570.9141648627245,785.3193142518977,782.6424440274438,147.0,555.3046125042862,705.4816517440668,0.7871283556864758,1278.9884511755724,1136.343168,61.983725156427084,63.9837743152347,706.6719261310059,965.5242015149175,961.8039682204642,131.0,682.7287102909248,875.0492422919164,0.7802174749648736,1068.8963987692307,715.475328,83.86033403516606,67.1746825380604,565.7388077436148,767.3218447828289,764.8582236702784,156.0,542.5784797985098,702.086243850499,0.7728088743383006,1042.1739888000002,715.475328,83.86033403516606,68.08991283314231,512.670741492249,687.842216336718,685.6758298694878,160.0,486.37789555807757,638.2639342158327,0.7620325534383179,1029.3076432592593,715.475328,83.86033403516606,68.16402859273121,513.5547220454174,754.6557182806703,752.3084618421246,162.0,533.6221758574668,620.5647361773493,0.8598976782737531,truth
1783335684974828802,1783335694974828802,1121.6551628456377,1010.0828160000002,22.9939625580294,70.54485592886282,590.0456891805774,815.6922706223153,813.0663618318504,149.0,576.7815359184916,727.9899453652625,0.7922932721675112,1259.1226581654137,1094.256384,40.732162245652084,65.12374966291421,689.2443706547277,944.0222484925096,940.4400948744939,133.0,667.5245335000255,852.8312280552642,0.7827158663293804,1060.747798012739,715.475328,83.86033403516606,68.97845369463687,612.7879859965678,769.0773242649973,766.6429762249575,157.0,543.819791244585,776.6261963704338,0.7002336436578231,1032.425182814815,715.475328,83.86033403516606,68.97498115975195,519.1175653344518,692.6037290521914,690.4498807764764,162.0,489.74479348789475,647.3338488780632,0.7565567509511569,1013.6538158545455,715.475328,41.93016701758303,68.42937312822518,454.93928197618266,661.1038401880936,659.0901938895697,165.0,467.47100846546857,551.9736666654925,0.8469081709812177,truth
1783335685974828802,1783335695974828802,1158.8479066666669,1010.0828160000002,16.386502052848538,69.16661269238686,632.0746084265473,877.9282914083907,875.146696051476,144.0,620.7890482503925,778.6829264991832,0.7972295617695732,1327.248820224,1304.6903040000002,34.77135801458105,63.089771581124864,713.0863686529814,1000.8013811468819,996.7579538134341,125.0,707.6734432298227,875.5475356546981,0.8082638742174677,1024.6313339259261,715.475328,83.86033403516606,70.4741404490517,583.2153707641316,762.8910809399599,760.6491572427094,162.0,539.445456639381,731.2862893878511,0.737666580746294,1012.1358298536588,715.475328,83.86033403516606,70.7822345813259,565.2652189442949,775.907011179926,773.5243439884941,164.0,548.649109175512,698.9575187353963,0.7849534406156286,988.0373577142858,715.475328,83.86033403516606,70.17039914802882,454.43253709644074,645.2112583630902,643.2765875660231,168.0,456.23325608644666,555.8268341526841,0.8208190538010632,truth
1783335686974828802,1783335696974828802,1187.0860990638298,1010.0828160000002,25.920466883596777,68.51651959007957,673.7927138132032,874.0971635195211,870.9814663227152,141.0,618.0800317405799,846.7477661956389,0.7299458663086382,1347.7953166451614,1325.7336960000002,31.68057063550718,61.52519233496677,711.5591279380586,962.2333421572016,958.31481916341,124.0,680.4017213231527,883.832299655419,0.7698312469327292,951.3570708837211,715.475328,79.20142658876794,73.55019427172323,513.0498412778627,702.1280571072411,700.1012866569391,172.0,496.47951044186567,634.9758476715339,0.7818872359672634,978.8253799298247,715.475328,79.20142658876794,73.22721924094965,590.5280914046026,838.879244970103,836.4084605481789,171.0,593.1772027150108,722.1615169513832,0.8213913214582774,992.2961394285716,715.475328,79.20142658876794,70.86921209503407,512.8874230868074,734.2295535100804,732.028134211913,168.0,519.178696234549,625.5667496033885,0.8299333309574238,truth
1783335687974828802,1783335697974828802,1173.9526345531913,1010.0828160000002,67.88693707608681,68.30948202021378,657.1028512576396,836.7541689743599,833.7843055649968,141.0,591.6745470678841,829.7764334071235,0.7130529661326058,1264.8872989767442,1136.343168,71.28128392989115,64.08959583760763,660.0070882760315,930.6982811459616,927.0593442176271,129.0,658.1030658369733,809.1161168319406,0.8133604709466764,936.2505720685715,715.475328,95.04171190652153,75.24224609165006,560.822329991617,778.9714848182224,776.7434311482089,175.0,550.8160192659188,690.9010262653225,0.79724301792308,933.5181581016951,715.475328,95.04171190652153,75.54173419301691,560.4691335269722,787.3008887390818,785.0610887884401,177.0,556.7057972616003,687.961210331377,0.8092110265830924,967.9960320000001,715.475328,83.86033403516606,72.41969501481138,512.6420178072906,722.6162553176194,720.4751654104588,170.0,510.9668543307183,628.5380765957987,0.8129449485354119,truth
1783335688974828802,1783335698974828802,1173.6541467234044,1010.0828160000002,75.032930452517,68.50480875499684,658.2069353484378,850.3942008557974,847.3535555670867,141.0,601.3195061068493,828.0580687785565,0.7261803595414964,1285.2656344615386,1178.4299520000002,44.55080245618197,63.64882213300577,712.0636694380223,1027.0981109326754,1023.1168560105593,130.0,726.2680391843875,866.2197794420968,0.8384339129870164,936.3127226966294,715.475328,83.86033403516606,75.50928797276228,570.3240129193235,812.3228634777757,810.0250554344019,178.0,574.3990052780093,696.8298578509808,0.824303090354728,946.9526400000002,715.475328,83.86033403516606,75.09107254930638,580.1437296193234,824.642617090771,822.2832604653959,176.0,583.1103866003057,709.3127889391662,0.8220779262592934,941.6026250847459,715.475328,83.86033403516606,73.72648836159944,491.25668258078093,692.3900189221285,690.4203654452007,177.0,489.593677605719,602.3414910039005,0.8128174547460297,truth
1783335689974828802,1783335699974828802,1192.1539033043478,1010.0828160000002,67.88693707608681,68.00127786388694,672.8154253181978,877.155455832918,873.9588778419236,138.0,620.2425709742336,844.3996504427574,0.7345367453065761,1250.578724571429,1136.343168,142.5625678597823,63.5423206669528,664.7962350074264,976.8520677319328,973.2702366886925,133.0,690.7387213093504,803.3355946315714,0.8598383115665867,893.5522043870969,715.475328,83.86033403516606,76.9627361991916,494.7471233115193,688.0675740774391,686.2054121404781,186.0,486.5372475447343,609.2537939363565,0.7985789376890753,923.0719367191012,715.475328,83.86033403516606,76.60523716923834,586.1429461923893,835.9340222094769,833.5940045181545,178.0,591.0946157288671,715.8426393910605,0.8257326166427977,940.2570152727272,715.475328,83.86033403516606,73.620904804219,473.1032221478768,657.6797686734375,655.7979915156288,176.0,465.04982427818754,582.6814293272267,0.7981202092113034,truth
1783335690974828802,1783335700974828802,1165.480172307692,1010.0828160000002,83.86033403516606,67.81557510461856,631.3853504615735,803.4541910609205,800.6544156082897,143.0,568.1279068719289,797.4398173352196,0.7124398537941392,1260.3546078778627,1178.4299520000002,44.55080245618197,64.24657653550304,681.9999795254997,1040.6766423193105,1036.677686859165,131.0,735.8695108064317,812.0935756908286,0.906138815567461,890.1242284491981,715.475328,31.68057063550718,77.09687917756074,491.41127768146464,687.7836172976279,685.9636311714186,187.0,486.33645978016585,603.9110129889226,0.8053114603311375,886.5088544680852,715.475328,49.15950615854562,77.78715676660487,521.0779354529764,718.8651655624544,716.9433510488543,188.0,508.3144333280017,643.3138021736271,0.7901500505826397,916.8906514285715,715.475328,83.86033403516606,74.94026666225521,463.3311893924896,642.3085546566713,640.535182697073,182.0,454.1807346118624,571.1492907125357,0.7952049350271458,truth
1783335691974828802,1783335701974828802,1202.5231109565218,1010.0828160000002,24.57975307927281,65.9143473228652,643.0180467147568,831.0640003734746,828.0381869721807,138.0,587.6509902641034,808.8742631723002,0.7265047449518448,1218.3663163795622,1136.343168,79.20142658876794,67.32225337716207,677.386547522548,1011.8989838679652,1008.1726630452046,137.0,715.5206333688151,813.4618498373351,0.8795994962909386,905.5520535652175,715.475328,41.93016701758303,76.74831361141004,515.3425889938629,717.6418657791907,715.691749316,184.0,507.44942975583183,634.3528246820027,0.7999482464828831,886.0611227234044,715.475328,83.86033403516606,77.86441011146049,522.4597619408205,722.9627359233455,721.0339738792504,188.0,511.2118531165768,644.4064139276358,0.7933065873766797,916.6594053626375,715.475328,41.93016701758303,74.66987112918443,451.11586023654,604.7835351079154,603.1267295311961,182.0,427.64653882477944,561.756404173108,0.761266868784994,truth
1783335692974828802,1783335702974828802,1205.7710014598542,1094.256384,44.55080245618197,65.10663286904114,628.294702688859,807.5666019163988,804.6093281040835,137.0,571.0358204748627,791.4970073986785,0.7214630189842662,1220.5167360000003,1136.343168,27.415878434573518,67.61061094257387,686.280857204706,1006.7805422912685,1003.1223079642143,136.0,711.9013486208256,829.7957970773152,0.8579235411028421,879.3688360634922,715.475328,64.80116720899196,77.34985952789387,443.15549214782567,620.0192593629836,618.402151996793,189.0,438.4198227618265,544.6720205282327,0.8049244430375533,874.740579031579,715.475328,64.80116720899196,77.94107206896408,492.319654571755,692.420115436999,690.5867842961585,190.0,489.61495905547406,604.0661226139549,0.8105320605247316,916.840824928177,715.475328,83.86033403516606,75.18440830412682,470.38345685218945,624.4301138940285,622.6932139156625,181.0,441.5387679115558,587.4035675547126,0.7516787304333651,truth
1783335693974828802,1783335703974828802,1241.4042510222223,1136.343168,44.55080245618197,62.03630793452101,622.1240781866167,799.4106589936346,796.4272138717319,135.0,565.2686979272057,783.7808283512271,0.7212076099339062,1233.079955104478,1178.4299520000002,101.8304056141302,67.61123787767238,700.6258472723782,1016.0434650251341,1012.2165457206548,134.0,718.451224099549,850.6862377088308,0.8445548925706934,861.2604767010309,715.475328,83.86033403516606,78.03617173539034,416.9709173842326,583.4391450877702,581.934874745891,194.0,412.55377590124425,512.4735923765342,0.8050244579200191,836.4483955778895,715.475328,83.86033403516606,79.54766948521717,429.11781831890744,597.5154250297226,596.0155917845404,199.0,422.50720890207896,528.2310415059353,0.7998530485780465,891.2495435294119,715.475328,83.86033403516606,76.27949654306295,442.86568194007043,578.9604484464085,577.4031140516648,187.0,409.38685913526,555.3928557914395,0.7371122168143129,truth
1783335694974828802,1783335704974828802,1232.3633863111113,1136.343168,45.9879251160588,61.35503259743976,590.9097365181613,720.4013524059596,717.7165692814513,135.0,509.4006814622138,754.058423656179,0.6755453761689962,1197.5052569784175,1136.343168,44.55080245618197,69.0189446183559,672.6108431555745,995.8294491537163,992.217107917785,139.0,704.157756401857,810.4885068342777,0.868806590672405,877.2119743664923,715.475328,41.93016701758303,77.21071545584054,433.75388750474485,604.5482871319541,602.9699600340413,191.0,427.4801933857168,533.7744954401744,0.8008629056605588,854.8341178775512,715.475328,83.86033403516606,78.96693549928654,465.0592347558482,654.4236423920992,652.7436189528853,196.0,462.74739530425353,570.5195945214806,0.8110981634073055,910.5841690434784,715.475328,83.86033403516606,75.33463019950264,461.8829540547413,618.6253688575072,616.9329916842275,184.0,437.4341933331726,575.3237260396505,0.7603270533345347,truth
1783335695974828802,1783335705974828802,1209.5375749565217,1136.343168,67.88693707608681,60.97413178999404,524.6372188719732,692.009378172358,689.4874518615677,138.0,489.32452395036034,656.330083099818,0.7455463897667195,1202.0469962589927,1136.343168,83.86033403516606,67.70732526221323,663.5790963141667,985.0360036453136,981.4605909417919,139.0,696.5256378904979,798.8119002686864,0.8719520047913862,883.3771012063493,715.475328,83.86033403516606,76.6377325134159,420.0160508272614,571.6970091121964,570.1745549932026,189.0,404.2508319273015,520.6895412317205,0.7763759398182328,878.7277480421055,715.475328,83.86033403516606,77.81761828993777,482.300392597008,675.3654190254954,673.5764052239086,190.0,477.55546757182196,592.619376239577,0.805838429722152,898.3822163027029,715.475328,41.93016701758303,75.57903435499584,423.6930335077464,566.9238740609003,565.3945926128304,185.0,400.8757157650108,527.9023617497253,0.7593747344420162,truth
1783335696974828802,1783335706974828802,1217.7519107737228,1136.343168,50.9152028070651,59.52411190288174,501.37138116662135,681.8079950045463,679.3195613376712,137.0,482.1110567349184,621.7161636895257,0.7754520227910244,1243.4446108656716,1178.4299520000002,29.700534970787974,66.75808654717065,708.6131492695657,1016.061339047956,1012.3020644855765,134.0,718.4638629422935,863.8113390425494,0.8317370130133284,909.4405064347827,715.475328,83.86033403516606,75.64936929625361,449.85715841815033,599.6766516529598,598.0361232704195,184.0,424.0354269030509,561.1059653271201,0.7557136318375118,909.4405064347827,715.475328,83.86033403516606,76.08410460132588,498.63627817218156,665.8304732462952,664.0089315421545,184.0,470.81324275310345,621.6459772595364,0.7573655424082951,924.5141059889504,715.475328,83.86033403516606,74.46522248658027,462.4633626141556,646.6717032613424,644.8730606964954,181.0,457.26594657755,568.5056293222193,0.8043296723775789,truth
1783335697974828802,1783335707974828802,1242.5023694328356,1157.3865600000001,142.5625678597823,56.953562884503,490.28849284894704,670.8302733058238,668.3062936633039,134.0,474.34863527977296,606.8461901868483,0.7816620470727859,1251.5280505263158,1220.516736,54.831756869147036,65.0632781062007,629.2343098883006,883.3060971928679,879.9575766553866,133.0,624.5917311885005,772.5375189249307,0.808493718282689,917.1218974945054,715.475328,64.80116720899196,75.42219869397276,502.28298377308084,672.1662009099867,670.3078246875979,182.0,475.29327874785093,625.7991220547826,0.7594981552342984,929.6923297078652,715.475328,64.80116720899196,74.62929905917261,496.5543429457513,666.1523061674276,664.2689184928456,178.0,471.04081299404527,618.2173624571927,0.7619339759754185,929.7137030508476,715.475328,83.86033403516606,74.16957005613769,481.543874413961,669.2422554980586,667.3382907424368,177.0,473.2257371192573,593.125371936815,0.7978511112650051,truth
1783335698974828802,1783335708974828802,1229.8005854117648,1136.343168,35.64064196494557,58.10800665378385,492.08528729606695,665.2956725822712,662.8625180698089,136.0,470.43508157698903,611.2620362474111,0.7696127907190662,1316.6204160000002,1304.6903040000002,36.55450457943136,62.52257146544331,677.4658339541207,935.849347268475,932.1435823569781,127.0,661.7454196225428,836.042111472022,0.791521635743211,945.4070801355933,715.475328,41.93016701758303,74.43722603538741,546.6682382540364,746.4508760211291,744.3411229113008,177.0,527.8204762571793,677.048814970801,0.77958998610749,929.6923297078653,715.475328,64.80116720899196,74.26126284316223,480.86899061319787,631.5795573979017,629.7940294281062,178.0,446.5941878948546,602.2846402955824,0.7415002110558226,962.6747144827588,715.475328,54.831756869147036,73.37193635770412,574.1764215696614,812.4641143891756,810.1243839998846,174.0,574.4988847553088,703.0879332491323,0.817108156159666,truth
1783335699974828802,1783335709974828802,1196.4671451428574,1136.343168,178.20320982472788,60.87571159011485,488.5777976600235,643.2551399722561,640.9473944284448,140.0,454.8500715074841,611.5326932858586,0.7437870068131683,1308.964743,1304.6903040000002,158.4028531775359,62.38842108507305,665.6985900241858,910.0571767530581,906.4693743604059,128.0,643.5076009495718,824.171225705218,0.7807935789058179,992.4416490538923,715.475328,89.10160491236394,72.41399971536273,596.9929640969159,800.6553660865641,798.2866538852782,167.0,566.1488387532072,743.3296338446628,0.7616389996790012,974.6413136842107,715.475328,64.80116720899196,72.46465739500162,571.6656593153377,746.7007433696979,744.5072528317298,171.0,527.9971591537494,717.0862933034382,0.7363090942951898,967.7499104561404,715.475328,64.80116720899196,72.76768492959896,568.9824290029057,811.4563832717012,809.0662267299401,171.0,573.78631124853,694.8860651502489,0.8257271803608054,truth
1783335700974828802,1783335710974828802,1207.4027380869563,1136.343168,57.02502714391292,59.60663584086231,480.47710624479424,637.81981338879,635.5270189972396,138.0,451.00671522235166,600.0108087884041,0.7516643177363171,1268.0651637251908,1220.516736,178.20320982472788,63.162688482210655,640.5874608012437,845.451855960097,842.1968895470002,131.0,597.8247405161368,801.2536300604052,0.7461117405122617,1008.0545372530122,715.475328,83.86033403516606,71.90631872485154,617.6925234674983,847.2201231079791,844.6575532503767,166.0,599.0750942073537,763.965066508618,0.7841655600107152,999.9414222650603,715.475328,83.86033403516606,71.07435670343818,588.8355393601657,794.119054243134,791.7089756828485,166.0,561.5269683247678,731.9824565856427,0.7671317301018793,1011.622576390244,715.475328,95.04171190652153,70.5036895995869,559.4309989280507,775.1256028886781,772.7442590032833,164.0,548.0965700738952,689.7254236722677,0.794659079196609,truth
1783335701974828802,1783335711974828802,1207.4027380869563,1136.343168,59.40106994157595,59.518511238606074,486.5471163640972,650.0627871254222,647.6982622428553,138.0,459.6638049734132,606.4740605195894,0.7579282196828034,1311.704768,1304.6903040000002,178.20320982472788,61.02721342195046,650.0848414475914,882.9878335666103,879.4828839478303,126.0,624.3666848201688,806.4141142137929,0.7742506905758838,1000.5061825149702,715.475328,83.86033403516606,71.70268130793694,600.474389808563,821.6841386766964,819.2054870777945,167.0,581.0184264517195,743.2010358535006,0.7817782785844362,1002.2232358554219,715.475328,83.86033403516606,70.64137331216915,575.7538694130478,764.9853714827321,762.6746303446661,166.0,540.9263436839501,718.8076110076677,0.7525328549674747,1018.8081248780487,715.475328,83.86033403516606,70.39154105777766,580.9962057149997,823.9929993500313,821.4615654383625,164.0,582.6510374906495,710.8952569584267,0.8196018074217128,truth
1783335702974828802,1783335712974828802,1217.112657882353,1136.343168,75.032930452517,59.854079335999316,522.5357970851469,681.901425125073,679.3729581659943,136.0,482.1771218067099,655.6217888950292,0.7354501176956928,1314.9634560000002,1346.777088,40.732162245652084,61.52082960050206,653.765172929761,894.4582468116606,890.9039929041467,127.0,632.4774918087559,809.1995513156277,0.7816088019085647,1001.7662658682636,715.475328,83.86033403516606,71.48020826575893,598.8829778539287,822.9177178723334,820.4354625247428,167.0,581.8906986660851,740.2859243085242,0.786035070448772,1032.684977777778,715.475328,83.86033403516606,68.79763118832781,579.3508507132178,772.4958348042989,770.0932200318672,162.0,546.2370432284828,722.5699708310336,0.7559642183860078,1052.434296754717,715.475328,83.86033403516606,68.97656801863106,602.8978756304103,863.9143065477022,861.1761021660323,159.0,610.8796645239539,735.108641368658,0.8310059631275603,truth
1783335703974828802,1783335713974828802,1203.6205818394164,1136.343168,52.80095105917862,60.58093785084044,520.3210022515239,677.1129166167406,674.6349078275081,137.0,478.79113496869854,653.3356069477259,0.7328410236287752,1347.7953166451612,1346.777088,83.86033403516606,59.3944307153855,652.6119607542597,888.2787915776339,884.7018895548795,124.0,628.1079571087369,809.0395168021049,0.7763625188439036,1038.7544376,715.475328,64.80116720899196,69.43320486946679,624.7005062817977,878.5225303263791,875.7565234133558,160.0,621.209238618947,766.5187447314663,0.810429285505046,1038.7544376,715.475328,64.80116720899196,67.52690355944634,548.8129761853172,739.1423231741027,736.8154987103172,160.0,522.6525489783866,682.501664600145,0.7657894128135077,1081.6028410980393,715.475328,29.094401604037202,67.07932378008593,582.2133325062358,832.7091367832004,829.9758337678779,153.0,588.8142773753974,710.3475223265565,0.8289101585754689,truth
1783335704974828802,1783335714974828802,1242.5023694328358,1157.3865600000001,28.51251357195646,59.07989026698573,536.5645544534058,663.6868030891845,661.2040699300064,134.0,469.29743904838324,682.4097002848642,0.6877062838533513,1399.207234169492,1409.907264,24.163147094878354,56.23084108580925,658.97919696006,898.3679961040984,894.5657811393033,118.0,635.2421020461779,816.5420380765632,0.7779661945422267,1026.5515575652175,715.475328,49.15950615854562,69.46965633510452,602.153158141764,847.3884885485812,844.7421463125148,161.0,599.1941465521209,738.68805262373,0.8111599266075257,1026.5515575652175,715.475328,83.86033403516606,68.01074639315472,536.7957275835773,714.7665238235851,712.529377416457,161.0,505.41625596079297,669.7585463502884,0.7546245713697197,1085.1788423529413,715.475328,41.93016701758303,66.80632726619038,579.8840005637611,823.197559208546,820.4863720296534,153.0,582.0885763725773,709.3076574011712,0.8206432995595857,truth
1783335705974828802,1783335715974828802,1268.023787636364,1178.4299520000002,59.40106994157595,59.09741410015149,576.6290470299406,758.3407306354158,755.444102906062,132.0,536.2278730822635,721.9639532706261,0.7427349671033506,1360.8060160000002,1346.777088,54.831756869147036,56.82726999953469,603.8827029829417,838.516136119027,835.1206907189246,123.0,592.9204459841061,744.0237296558303,0.7969106660863876,1049.7873292075471,715.475328,83.86033403516606,68.39725541107425,611.6436806990241,876.2650821764007,873.4876898262847,159.0,619.6129817239203,745.8256235325358,0.830774596867803,1036.746492819876,715.475328,83.86033403516606,67.41505958036804,535.8568573514623,738.7923118745935,736.4811415556275,161.0,522.4050536150118,661.6884637954022,0.7895030398724654,1098.1327983157896,715.475328,79.20142658876794,66.58220737509106,619.4821661820599,869.5951423539826,866.8229379016246,152.0,614.8966220453823,760.5704310146588,0.8084676934193503,truth
1783335706974828802,1783335716974828802,1243.1305303880597,1136.343168,129.6023344179839,61.20076513285518,595.413045106458,799.7813667196461,796.8459702578778,134.0,565.5308278741068,741.0268753074369,0.7631718183493408,1319.504851968,1346.777088,109.66351373829407,59.99332688188653,623.8417197953481,890.2407139323675,886.6946969119705,125.0,629.4952457099305,761.7249178861963,0.8264075795981493,1051.9032279493672,715.475328,83.86033403516606,68.4455622237111,630.9978190994725,913.7751619855527,910.8604012516606,158.0,646.1366135198202,766.5312999161551,0.8429357204206743,1005.5191888192771,715.475328,83.86033403516606,69.03679838910841,514.2677512810164,703.4793594036321,701.3443640113883,166.0,497.43502545907666,636.5703713954418,0.781429748872284,1083.8713334025974,715.475328,83.86033403516606,66.2687490613524,565.8682225394106,789.2933145582026,786.7096961219213,154.0,558.1146550693118,696.1808001218184,0.8016806194190537,truth
1783335707974828802,1783335717974828802,1236.9717192180453,1136.343168,89.10160491236394,61.44512169945817,589.3478392563098,760.236829989679,757.4203924005934,133.0,537.5686177934664,741.7356280063493,0.7247442316318999,1237.9749575111114,1220.516736,79.20142658876794,63.07692138750553,582.023178784878,831.9186176987281,828.8301138830885,135.0,588.2552959701096,710.2674247544143,0.8282166342818098,998.6046021818183,715.475328,83.86033403516606,70.03684933816106,525.6506884175559,742.0254821247319,739.7597501725495,165.0,524.6912502236153,644.1791974575791,0.8145113227723682,986.4245646390533,715.475328,83.86033403516606,70.28129748598938,518.0021476763586,708.1451787293829,706.0408581157157,169.0,500.7342579441064,641.3150952965498,0.78079287641368,1111.37167616,715.475328,83.86033403516606,65.47237390244553,619.9309573633635,804.5767904041165,802.3796512773699,150.0,568.9217044800583,778.9690821083116,0.730352099393019,truth
1783335708974828802,1783335718974828802,1260.3716450909092,1178.4299520000002,43.200778139327966,60.4831046007486,607.992829336865,796.3091353781568,793.2655914564409,132.0,563.0755895466912,762.0915307746279,0.7388555925485132,1217.7519107737228,1220.516736,95.04171190652153,64.52881420509006,570.7378589469643,807.5661240565126,804.5931408986238,137.0,571.0354825768967,698.8867190681299,0.8170644354757444,979.0715014736845,715.475328,41.93016701758303,70.86030846923238,505.3008548106718,694.6801933956015,692.6403740008677,171.0,491.2130755060121,624.5100199122138,0.7865575568748456,974.8874352280702,715.475328,83.86033403516606,70.95558379598882,516.4393630931143,641.7100657683003,640.2986876628961,171.0,453.75753906043053,656.1031011791927,0.6915948701429805,1074.8317144615385,715.475328,83.86033403516606,66.60734470338078,556.6713427490185,779.5007017764403,776.9838225777901,156.0,551.1902321657936,684.0033857068983,0.8058296840097569,truth
1783335709974828802,1783335719974828802,1295.8126230000003,1220.516736,79.20142658876794,58.849112350620246,632.5190560855309,861.5841492217171,858.1859577908132,128.0,609.2319944775185,783.9508282253004,0.7771303665265479,1204.7720398273384,1178.4299520000002,95.04171190652153,64.27004021884895,559.9803545652151,803.1751250247975,800.2746559541823,139.0,567.9305773853874,682.5565358512936,0.8320637889388267,963.5658442105265,715.475328,95.04171190652153,71.66470781750506,487.5756812730207,638.7206973188642,636.839528728052,171.0,451.6437363583691,611.121148089171,0.7390412486469344,949.7183429485714,715.475328,83.86033403516606,71.62546069281379,418.84321921026395,571.1907149720523,569.5718554552896,175.0,403.8928279075306,518.9360040884264,0.7783095116266157,1064.0402313846155,715.475328,44.55080245618197,67.2893548044767,556.5155135588285,781.5474124504715,779.0328592845283,156.0,552.637475162528,683.1653856763284,0.8089365865857229,truth
1783335710974828802,1783335720974828802,1267.7049483636365,1220.516736,95.04171190652153,61.3553772355775,638.9135307994214,870.7683952024436,867.5243912191099,132.0,615.7262370905754,791.745918938839,0.7776816051238012,1245.9572546865675,1199.473344,34.77135801458105,63.2446156664128,601.6735537291904,856.3591646254554,853.1451974705042,134.0,605.5373724379065,735.3124341426058,0.8235103125163108,952.7577136551724,715.475328,83.86033403516606,72.03816586015388,464.9098600247738,625.9886157715277,624.1904791401645,174.0,442.64079515762745,578.2014520282885,0.765547705916123,954.1292881387285,715.475328,83.86033403516606,72.17901019696464,481.2370488765499,689.964570351751,687.9657265259634,173.0,487.87862647418586,586.6561321060683,0.8316262283370741,1034.132406857143,715.475328,83.86033403516606,68.21841787594768,525.9735588812669,728.7137619804456,726.4467253477598,161.0,515.2784426403329,648.4908885709402,0.7945808518232791,truth
1783335711974828802,1783335721974828802,1214.1122253913043,1136.343168,35.64064196494557,64.1494159033468,614.26590450862,834.0987831001971,831.0618269132078,138.0,589.7969057095966,762.0465916801143,0.773964364054497,1251.924783761194,1220.516736,39.60071329438397,62.06439699587242,589.9307526818354,866.1939452639486,862.9314909563834,134.0,612.4916125188672,713.0663350744674,0.8589546054714575,951.4018143085716,715.475328,83.86033403516606,72.15249697272957,465.9769671025856,655.4981610105367,653.6118314564636,175.0,463.5071947058619,571.7076245496464,0.8107416707464454,958.0790311724139,715.475328,49.15950615854562,71.58370414350368,463.1352664634011,667.8866956025175,665.958033166008,174.0,472.26721152481565,563.4451087227029,0.8381778530217748,1015.2153506341466,715.475328,83.86033403516606,68.83028225279105,494.8203806944825,690.7179580399825,688.5959316486711,164.0,488.41135201739684,608.6227024286347,0.8024862530898877,truth
1783335712974828802,1783335722974828802,1215.8748112941175,1136.343168,27.95344467838869,65.11996226266173,617.8182906673046,841.9702770575448,838.9017422326624,136.0,595.362892464906,765.6176550368014,0.777624299215368,1265.8162516030534,1262.6035200000001,35.64064196494557,61.395718358295056,590.2920219398563,870.0632407838358,866.7299737446672,131.0,615.2276176193942,712.4863729159106,0.8634938730147543,1182.011805957447,715.475328,83.86033403516606,66.28854300607517,830.515253085711,1182.5050259875868,1178.274263560498,141.0,836.1573226629972,1014.8554759642229,0.8239176340538114,1157.3865600000001,715.475328,83.86033403516606,66.16053378297329,801.7296164129473,1183.7475690708488,1179.601366886103,144.0,837.0359333030882,967.0709275161865,0.8655372728998496,1400.5349969747901,925.909248,83.86033403516606,59.11800869839268,947.2089997268919,1353.9019310947854,1348.1528995182944,119.0,957.3532365386845,1155.918322621322,0.8282187571589458,truth
1783335713974828802,1783335723974828802,1261.3184273587788,1220.516736,129.6023344179839,63.66256628806372,633.6486230376963,887.6911628494896,884.3310590097362,131.0,627.692440850246,778.4743122318599,0.8063110509718332,1268.7077100458018,1262.6035200000001,158.4028531775359,63.18794935324334,643.4890489076025,973.001240551991,969.2971734219335,131.0,688.015775297236,769.0731165494561,0.894603855591918,1149.6948374068968,715.475328,83.86033403516606,68.58606873994238,847.7307453928016,1148.2494901803263,1144.2663540223737,145.0,811.9350010005047,1052.4616907249524,0.7714627602656311,1108.4711256158942,715.475328,83.86033403516606,68.75618707644618,804.5790781335272,1142.3218687473995,1138.5077962831097,151.0,807.7435396889755,984.1088217193033,0.8207868092044882,1602.9399175384617,715.475328,83.86033403516606,59.23093778066788,1498.6690396812282,2041.5887510758234,2031.70145328209,104.0,1443.6212502798892,1857.4166532763386,0.7772199348667697,truth
1783335714974828802,1783335724974828802,1218.0591135766424,1178.4299520000002,45.9879251160588,66.39477095264303,648.1743800031616,886.4492029533848,883.2844264164403,137.0,626.8142425857485,802.3789668422229,0.7811947576998278,1236.4161877333336,1220.516736,36.55450457943136,64.54226899492262,633.3476455346361,967.2183730108085,963.6025907357183,135.0,683.9266704441623,753.9102300248453,0.907172556103428,1082.5048793766234,715.475328,41.93016701758303,70.62868070531438,785.1850798537581,1075.766410660735,1072.2727336289463,154.0,760.6817239509179,971.4488543785693,0.7830383663765006,1055.099692556962,715.475328,41.93016701758303,70.76984360644705,741.0922031874959,1027.8403574891438,1024.571886410773,158.0,726.7928867577787,913.4119317863878,0.7956901606664668,1557.9976768598133,715.475328,41.93016701758303,61.41767894932901,1555.6003320058526,2094.5709988458084,2084.6729790993395,107.0,1481.0853569605515,1934.6777169781935,0.7655462943326211,truth
1783335715974828802,1783335725974828802,1176.3552513802817,1115.299776,109.66351373829407,68.84251628192702,630.9201267528101,883.9678379531434,880.8895742541463,142.0,625.0596525674789,775.0939478861096,0.8064308259304376,1207.5193468235293,1157.3865600000001,158.4028531775359,66.27895288882881,625.53949505699,937.331286928969,933.8532367644838,136.0,662.7933092057875,750.3011624596677,0.8833696952207719,1057.2629050700639,715.475328,83.86033403516606,71.67009941022246,771.1595099528624,1050.9315061899756,1047.5677604938703,157.0,743.1207945895239,955.6462326121498,0.7776107614198281,1018.3452521226997,715.475328,83.86033403516606,72.1749984011452,714.1730115756942,984.8130947759227,981.7688429953552,163.0,696.368017517365,881.8287662668193,0.7896862113779826,1509.7185820183488,715.475328,83.86033403516606,63.40525426904085,1516.4561801292991,2028.4517582276683,2019.0774475113071,109.0,1434.3319935525594,1889.6096312837901,0.7590625967428428,truth
1783335716974828802,1783335726974828802,1180.5193668085108,1136.343168,71.28128392989115,69.0088841104429,630.1448413333655,887.2891687636106,884.1158775653076,141.0,627.408188106124,772.8806666405882,0.8117788621019899,1221.4383444087593,1178.4299520000002,59.40106994157595,66.30854731772132,640.4261544539768,959.9160577753702,956.3889046522975,137.0,678.763153822822,768.0700548281164,0.8837255788792858,1044.7111825822788,715.475328,83.86033403516606,72.30177648068015,761.6839073062805,1042.7496332066278,1039.4234696025017,158.0,737.3353367201917,942.5990928865707,0.7822364166108106,1056.726767694268,715.475328,83.86033403516606,70.84824046386514,745.9407694844468,991.6281769441628,988.4594987719903,157.0,701.1870083328711,931.1410488377668,0.753040593804859,1528.3737671111114,715.475328,83.86033403516606,64.10780015517267,1597.4506220078847,2100.6354800224476,2090.796383871061,108.0,1485.373592724931,2000.132401748562,0.7426376331018802,truth
1783335717974828802,1783335727974828802,1166.657425006993,1136.343168,178.20320982472788,68.6920345048138,580.5433932847187,855.4924383752169,852.4997558479238,143.0,604.9245044289305,700.7813032207534,0.8632143889238052,1206.5887355395682,1136.343168,75.032930452517,67.18793178897246,629.2324256268461,929.6787225412905,926.3042471919675,139.0,657.3821290337934,758.809105858639,0.8663340014744884,1099.7941187368422,715.475328,83.86033403516606,70.40967014552291,835.8435921384754,1129.1552550211572,1125.4101539942878,152.0,798.4333378378857,1038.5187160337682,0.7688194016254244,1083.2533032156864,715.475328,83.86033403516606,70.27468678854514,784.1945890600523,1047.9244490045478,1044.4716774753326,153.0,740.9944840622923,977.4384350519255,0.7580983696665536,1555.6376702803739,715.475328,83.86033403516606,62.80126151586749,1539.000615543105,2031.1542603257155,2021.550679273822,107.0,1436.2429511122596,1925.0062031002096,0.7460978301260536,truth
1783335718974828802,1783335728974828802,1199.0191700719424,1136.343168,57.02502714391292,66.86089379703353,612.2766454584695,901.1173254163054,897.849009366404,139.0,637.1861714465545,739.4337513302959,0.8617217841357789,1208.1382701176472,1241.560128,47.520855953260764,68.18015479749123,639.9224966878027,946.2546070621754,942.7467451133512,136.0,669.1030493826762,771.4610542261375,0.8673192842558488,1164.2034334647888,715.475328,79.20142658876794,69.30852203011447,954.4220225461904,1307.6998406231967,1303.0620478622,142.0,924.6834250612299,1180.8145815287164,0.7830894363314079,1109.5606690909094,715.475328,89.10160491236394,70.17682945385424,858.3696625297002,1172.9752172297106,1168.8377631945011,143.0,829.418730266892,1062.8401761525254,0.780379542359212,1485.5075982222227,715.475328,75.032930452517,63.22525879584763,1385.113301729158,1756.178598824665,1747.9954214393933,108.0,1241.80579620361,1751.010251115526,0.7091939041547506,truth
1783335719974828802,1783335729974828802,1192.5590866285715,1136.343168,47.520855953260764,66.80398595445973,596.1513559853215,878.4762547054361,875.310773686106,140.0,621.1765168135746,719.6268102050899,0.8631925714893008,1182.310293787234,1220.516736,158.4028531775359,69.81395992795261,619.5258889959333,902.2826822224896,899.058540096356,141.0,638.0102031467092,751.0633426101626,0.8494758923121436,1139.7788238367348,715.475328,83.86033403516606,70.09745627437354,934.0303740330346,1253.5147601729252,1249.2146583763633,147.0,886.3687872357043,1162.755634576644,0.7623001436225494,1116.98324736,715.475328,83.86033403516606,70.86267132578202,969.9850973325999,1350.158506016026,1345.6202638397986,150.0,954.70623528063,1194.1566816179566,0.799481550433653,1408.4559955862073,715.475328,83.86033403516606,66.07051306725465,1358.782710404651,1743.327713588817,1735.92595857465,116.0,1232.7188481090918,1712.5370153510598,0.7198202649397285,truth
1783335720974828802,1783335730974828802,1186.2460690285716,1136.343168,47.520855953260764,66.9557421186468,592.4197726644604,868.2240982070504,865.0966772118483,140.0,613.9271474317803,716.567584328764,0.8567609822971117,1178.429952,1220.516736,44.55080245618197,69.35870842717097,611.7182564103202,908.6736094640269,905.4249760694178,141.0,642.5292711372699,736.1905448437035,0.8727757720301633,1149.404583724138,715.475328,83.86033403516606,70.25385048984161,974.322902201585,1217.941315697256,1213.7049852419802,145.0,861.2145634167954,1236.0279015412425,0.6967598080455301,1150.4702003916086,715.475328,31.68057063550718,70.47650473557253,1056.9830872085727,1445.3655911231915,1440.2911925107533,143.0,1022.0278107769115,1308.4938174440135,0.7810719448207412,1411.8857025641025,715.475328,83.86033403516606,67.8146798846861,1584.6945259462552,2120.8718136718194,2111.7530063014783,117.0,1499.6828414747556,1974.332588147487,0.7595897725022639,truth
1783335721974828802,1783335731974828802,1191.9578468571428,1136.343168,54.831756869147036,66.13223437263173,589.1991414921217,866.759284935031,863.6371448020557,140.0,612.8913680339634,711.6834564361005,0.861185352127112,1173.3556588936171,1136.343168,109.66351373829407,69.39695381515625,626.2809865272711,922.4759338265003,919.1754726771677,141.0,652.2889882901112,756.1185661315793,0.8626808248173611,1109.9687833600003,715.475328,83.86033403516606,71.96430522564447,949.7220080727532,1200.8896710136746,1196.862688271407,150.0,849.1572298306514,1201.4199035926833,0.7067947079046734,1164.302919608392,715.475328,83.86033403516606,71.24895412157808,1114.2613165345308,1492.2539566476066,1486.9987942297716,143.0,1055.182891997979,1387.9665324740083,0.7602365527626573,1321.3914087619048,715.475328,83.86033403516606,69.04392354376759,1438.5563642022837,1993.2104594289106,1985.2546133325338,126.0,1409.4126321941367,1773.6027858795171,0.7946608132413475,truth
1783335722974828802,1783335732974828802,1181.9865816338029,1157.3865600000001,67.88693707608681,66.41056532996545,580.8511057075297,845.5781489128539,842.5933955112835,142.0,597.9140431194472,704.2907159146694,0.8489591437293481,1160.6015226666668,1136.343168,49.15950615854562,70.44018455337189,628.3138828040619,915.6646644909068,912.4604606653111,144.0,647.4726935544252,761.5420055383167,0.8502127116372805,1001.0102158562877,715.475328,83.86033403516606,75.01430842570747,804.6123790072437,1037.7458944755012,1034.6154632207513,167.0,733.7971591321262,1012.705794161465,0.7245906593629405,1036.3221072592592,715.475328,83.86033403516606,73.74626172310886,874.1788381168682,1163.0496090022675,1159.432057051482,162.0,822.4002653818661,1090.965711547633,0.7538277845737401,1174.0152543776228,715.475328,83.86033403516606,72.18201582476088,1180.9329529933327,1555.8308701863334,1550.3429418389912,143.0,1100.1385586881236,1477.8541385315789,0.7444161977860955,truth
1783335723974828802,1783335733974828802,1185.5936599148938,1178.4299520000002,50.9152028070651,65.645864225357,572.3085832081414,828.5843075157085,825.6337853072675,141.0,585.8975826291171,695.2957932866404,0.8426594670731408,1186.1906355744682,1136.343168,17.176212995154494,69.60860502819793,657.7937348397896,957.0330248840122,953.8153083533587,141.0,676.7245417149588,797.751303671325,0.8482901107157207,1021.4436656687119,715.475328,83.86033403516606,73.4532087967628,762.2106118428319,962.7136675465483,959.7377294602741,163.0,680.7413626631358,964.4820538462169,0.7058102947052631,1088.2046895686276,715.475328,83.86033403516606,71.98399902534754,931.1229245766008,1270.4852884924476,1266.2991641352817,153.0,898.3687628907569,1153.4498620552304,0.7788537607434735,1127.7540284081633,715.475328,83.86033403516606,70.862107862927,871.1987791437433,1091.8088176188235,1088.063321785519,147.0,772.0254186975366,1104.519353386596,0.6989695710902747,truth
1783335724974828802,1783335734974828802,1195.8659053714284,1178.4299520000002,25.920466883596777,64.43530100975354,562.0064673400416,782.4201685741652,779.7196833434485,140.0,553.2546069359139,691.8505681259214,0.7996735601946025,1209.5375749565217,1136.343168,37.5164652262585,69.51356870377886,673.1639479745072,989.1387120374127,985.5412568097025,138.0,699.4266908157822,813.4497856613475,0.85982774000873,1076.4924816623377,715.475328,28.51251357195646,72.86499817019867,929.7496419557549,1216.8059798460047,1212.8569414456344,154.0,860.4117597374513,1165.6391359620952,0.7381459091344635,1175.743561531915,715.475328,28.51251357195646,69.81061404021409,1083.791165310877,1508.563275596834,1503.1986298601796,141.0,1066.7153220235118,1334.2660120425592,0.7994772499604724,1147.6058285070424,715.475328,83.86033403516606,71.05438060282825,1010.1315117843418,1304.2441465943277,1299.6109378245967,142.0,922.2398803797107,1271.0106780503647,0.7255956982158149,truth
1783335725974828802,1783335735974828802,1194.3628059428572,1178.4299520000002,41.93016701758303,64.17412235556583,554.8291403330549,776.4113299904637,773.6902298652857,140.0,549.0057164263233,681.8849694714227,0.8051295174491035,1269.9368232727275,1241.560128,36.55450457943136,67.57011306637268,762.7648676056857,1092.99147153786,1088.830715828099,132.0,772.8616813034841,930.0338151343823,0.8310038503189392,1125.3271641342283,715.475328,40.732162245652084,71.68138076415272,987.9121429726534,1283.9240851074665,1279.5893898624622,149.0,907.8714271082234,1240.897070826537,0.7316250867636493,1244.3868522985076,715.475328,10.183040561413021,69.50721126113002,1230.67640712286,1694.6985976293497,1688.408526328064,134.0,1198.3328704510454,1520.2394561041829,0.7882527095579626,1203.6820224000003,715.475328,40.732162245652084,69.5820926506283,1089.585945873892,1485.0651849196413,1479.5871606277287,135.0,1050.0996627607326,1350.2001392485133,0.7777363016309501,truth
1783335726974828802,1783335736974828802,1157.6788293333334,1136.343168,109.66351373829407,65.7437395826914,531.149018349388,727.5684704483472,725.0201214075533,144.0,514.4685992315505,657.1906797797731,0.7828300294884747,1253.9291446717555,1220.516736,38.530423745887106,68.595466860802,760.8234285640783,1097.8951140397155,1093.6834552963728,131.0,776.3290801690608,925.3978379842522,0.8389138685044906,1144.8782500699303,715.475328,30.991862578213542,71.26395371851048,1002.21722542216,1310.8704757059465,1306.247790041238,143.0,926.9254026289102,1256.6954216700249,0.737589543691595,1204.9290382222223,715.475328,64.80116720899196,71.2101091466396,1217.064992297481,1667.713333220031,1661.4874483685123,135.0,1179.2514069951042,1505.7149300256567,0.7831837112586845,1255.0089123609023,715.475328,17.176212995154494,68.56134601091439,1145.737661789309,1560.4460337938742,1554.5287245477127,133.0,1103.401972171301,1420.0991596325616,0.7769893846404337,truth
1783335727974828802,1783335737974828802,1158.1121942068967,1136.343168,83.86033403516606,66.96537551925317,543.9060672821898,774.5499030843497,771.8779420058247,145.0,547.6894888383268,664.594411623181,0.8240958383936303,1307.649531,1262.6035200000001,31.68057063550718,65.17300211720588,782.8092577167675,1117.7136506344286,1113.3049505178667,128.0,790.3429017883761,955.6462299044128,0.8270245589389591,1155.7678375384617,715.475328,83.86033403516606,70.69040508532149,1008.0402485244094,1309.974507295279,1305.354612725325,143.0,926.2918572899982,1266.2077171023043,0.7315481060325568,1252.081824,715.475328,83.86033403516606,70.97232636793338,1307.8150889522412,1787.6455936924651,1780.810172339879,132.0,1264.0563216581938,1619.2101227513049,0.7806623142340253,1272.884261129771,715.475328,83.86033403516606,68.27594239186297,1171.438200850077,1572.710338204666,1566.7584518260446,131.0,1112.074144986708,1458.1428135980962,0.7626647641204409,truth
1783335728974828802,1783335738974828802,1151.833442666667,1157.3865600000001,89.10160491236394,66.38440418918816,507.2133438125064,689.0611172136263,686.6582452942159,144.0,487.2397886337336,629.1497806317706,0.7744416411374477,1314.3769447619045,1262.6035200000001,61.983725156427084,65.82459578632641,804.2547701949533,1119.1482650620533,1114.662733673691,126.0,791.3573273785375,990.2162697940402,0.7991762522172412,1170.0722927659574,715.475328,27.95344467838869,70.04701220796974,1027.3612159496793,1362.0529885814956,1357.1974083922398,141.0,963.1169045613788,1283.4114890202834,0.750435002959645,1264.8524321221375,715.475328,83.86033403516606,69.60133790019638,1285.2175764268904,1761.1185827140284,1754.340606297272,131.0,1245.2988923107312,1590.02634315223,0.7831938745379048,1325.388722360656,715.475328,10.966351373829408,66.93475248976259,1243.9056805341836,1629.1703209353668,1622.6873019719021,122.0,1151.9973816412617,1559.1836647670023,0.7388464923491943,truth
1783335729974828802,1783335739974828802,1129.1855516734697,1136.343168,47.520855953260764,67.44301281159805,488.6908933915895,666.1934753235489,663.9081333127397,147.0,471.06992398351434,605.5445003687366,0.7779278379981386,1387.8117024,1304.6903040000002,41.93016701758303,62.22988615248755,841.6023798928034,1140.626319591497,1135.825643376937,120.0,806.5446053830017,1044.6683834816913,0.7720580216038835,1216.8303023649637,715.475328,36.55450457943136,68.36233533316592,1050.7262024386673,1409.9290920820881,1404.7524634601525,137.0,996.9704220034366,1308.0810731019355,0.7621625620186198,1331.1642487741935,715.475328,89.10160491236394,67.15757878568593,1317.1363082135942,1820.9329217110806,1813.586953369868,124.0,1287.5940170277377,1625.0375172549893,0.7923472555899751,1438.4661531428571,715.475328,31.68057063550718,64.94208974634465,1441.0543354521296,1750.0757025543753,1742.1796356205086,112.0,1237.49039686601,1840.5390390543093,0.6723521591271692,truth
1783335730974828802,1783335740974828802,1146.7923005793104,1136.343168,75.032930452517,66.39331883250615,494.7442988254124,649.2492977394071,646.9963796091696,145.0,459.08858111213857,619.8085831825174,0.7406941329448304,1385.38562538843,1304.6903040000002,27.95344467838869,63.81170292085421,853.5006579958341,1151.635360919605,1146.9002575382617,121.0,814.3291731604698,1060.8302150997285,0.7676338414662471,1043.2261584000003,715.475328,52.80095105917862,70.633326503327,657.5248124936563,852.0698825241383,849.3903155906734,160.0,602.5043919776431,826.5421870137429,0.7289457228486574,1058.6032485095543,715.475328,41.93016701758303,70.6803578829024,683.184178909854,845.6714185271253,842.9690522636056,157.0,597.9799946961772,868.7296516161072,0.6883384187287133,1041.451847552795,715.475328,79.20142658876794,70.43038557672968,623.0812895891969,716.1444935014076,713.9030826494338,161.0,506.3906276642507,805.1365430653215,0.6289499986378916,truth
1783335731974828802,1783335741974828802,1178.4299520000002,1178.4299520000002,79.20142658876794,65.84360764063176,535.8898347650207,715.3585308852805,712.8356135647625,141.0,505.83486816862813,668.147718009555,0.757070412027351,1349.514439804878,1304.6903040000002,57.02502714391292,65.46452981847182,836.3669799935835,1105.6841908008848,1101.167204545498,123.0,781.8367891660662,1045.6505477454803,0.7477037054604705,1090.9554597647061,715.475328,83.86033403516606,67.98523886311597,661.4726751776969,857.4619009603704,854.6366481365371,153.0,606.3171247781858,831.4336847360918,0.7292429160729024,1098.1327983157896,715.475328,41.93016701758303,69.1738900666187,706.0823616694635,862.5709129791829,859.7230305833737,152.0,609.9297418218516,900.6094924782986,0.6772410760888673,1063.1604162038216,715.475328,83.86033403516606,69.10546186853371,617.0424858375044,777.8070234682895,775.310044236535,157.0,549.9926207489516,781.1766235736343,0.7040566808475534,truth
1783335732974828802,1783335742974828802,1166.2781340845072,1136.343168,75.032930452517,67.06684727113714,547.6349500524835,753.4607791369041,750.7993677201431,142.0,532.7772262858044,676.670001266182,0.7873516267735735,1358.5061917377052,1262.6035200000001,75.032930452517,64.80436911327998,847.908883779485,1103.5515380474194,1098.9886069864435,122.0,780.3287759421745,1064.6325427595373,0.7329559679995834,1075.792504567742,715.475328,47.520855953260764,67.83260307878544,613.3947335018947,806.8617684885205,804.2456681270065,155.0,570.537427978403,767.9516389810071,0.7429340586282849,1130.9033795918367,715.475328,40.732162245652084,66.47289278443861,675.0129813815904,925.6702910328286,922.50933299268,147.0,654.5477399322381,834.9063888497477,0.7839773999502027,1089.8551516862747,715.475328,47.520855953260764,66.52130318773928,568.8923326816787,754.6290034767412,752.1511880369915,153.0,533.6032856384505,710.5707136843796,0.7509502929999248,truth
1783335733974828802,1783335743974828802,1190.2384741294966,1094.256384,54.831756869147036,66.63907070553158,605.8206761168925,849.8690923797245,846.7983173122258,139.0,600.9481983425596,743.9543095351174,0.8077756800926128,1288.051342883721,1220.516736,37.5164652262585,67.42349529575208,800.7110653769855,994.61632633995,990.7239792639442,129.0,703.2999490338308,1017.3303353772558,0.6913191562040923,1046.0430428354432,715.475328,49.15950615854562,68.357026432369,534.2817662762507,737.188832357213,734.8375424200382,158.0,521.2712223747783,659.5848451203927,0.7903020001613767,1157.6788293333334,715.475328,49.15950615854562,64.71501922030646,665.6179244561092,919.6843823473895,916.469866240973,144.0,650.3150633092007,821.3644756933992,0.7917496830626892,1111.37167616,757.562112,49.15950615854562,65.15114041944076,560.9166700928217,751.3040830216074,748.7863557734887,150.0,531.2522118377195,698.6705699289216,0.7603758261805214,truth
1783335734974828802,1783335744974828802,1187.9815625531917,1094.256384,118.8021398831519,67.41919912886796,621.5132209149357,880.8470964657263,877.7029896587464,141.0,622.852955099396,760.6473990661443,0.8188458356185532,1299.4294560000003,1157.3865600000001,47.520855953260764,65.61782164335658,820.5074524165168,1010.0592544553565,1006.0774586275569,128.0,714.2197482256112,1044.7057167280925,0.6836563989163108,1042.6405168301887,715.475328,83.86033403516606,68.6040484780611,533.7678609310084,747.0582245049433,744.7041314644299,159.0,528.2499364886277,655.966661519935,0.8052999755576359,1190.9339965217391,799.648896,83.86033403516606,63.610751618745624,704.3642563058473,950.9969722911455,947.5310286420042,138.0,672.4564079949442,875.305204369223,0.7682536384317982,1151.2489040000003,862.779072,83.86033403516606,64.03285028685299,604.7244189091325,796.5462615903373,793.7720172952681,144.0,563.2432630993211,756.8102529277668,0.7442331296654348,truth
1783335735974828802,1783335745974828802,1240.6178865671643,1178.4299520000002,40.732162245652084,63.13745184439533,613.7421925176963,888.6902791642196,885.3430911324149,134.0,628.3989227715857,745.5979846288569,0.8428119921547127,1241.560128,1052.1696,38.530423745887106,67.31784037382664,741.3691739743933,890.1954508787219,886.853602425619,134.0,629.4632398977604,949.2863208998937,0.6630910253726705,1017.0542464785276,715.475328,83.86033403516606,70.64969159617802,562.8354278858028,779.6768953615536,777.2667600886145,163.0,551.3148198446288,693.9693238729157,0.7944368733301377,1124.9683615135136,715.475328,83.86033403516606,66.48271691769992,658.4347746550687,895.6455705392201,892.6470367576317,148.0,633.3170564679768,816.4113288921895,0.7757328126832117,1092.0412901052634,715.475328,83.86033403516606,67.33895668243095,599.4935144148991,780.8267505276167,778.2381843646634,152.0,552.1278902299345,752.5704910944718,0.7336560451991263,truth
1783335736974828802,1783335746974828802,1282.999423015385,1220.516736,142.5625678597823,61.85760005150853,645.5555077745374,958.5863378822862,954.8638813756531,130.0,677.8228998693437,777.0211615152051,0.87233518653157,1250.2622825864664,1052.1696,31.68057063550718,66.51907774893316,723.361250759477,863.7857579807574,860.5209122366546,133.0,610.7887669605556,927.3465044297261,0.6586413644122825,1027.2292835555556,715.475328,36.55450457943136,69.94274558467312,562.3996136950818,783.9263289429387,781.5091435253182,162.0,554.319623146228,692.0632403662735,0.8009667192449856,1112.21341184,715.475328,26.40047552958931,66.13013519488112,616.1850810397814,822.7954786676556,820.0963672941076,150.0,581.8042624955306,768.1926895402089,0.757367611560794,1114.8760835436242,715.475328,44.55080245618197,66.22808316257009,610.476361544969,795.1645427477024,792.4851026270653,149.0,562.2662403360007,766.3492111952467,0.7336945508941736,truth
1783335737974828802,1783335747974828802,1270.2556625454547,1220.516736,158.4028531775359,62.81046493053911,645.017169450663,962.1430925934553,958.5633093612673,132.0,680.3379052446286,775.0254609469073,0.8778265225163161,1289.150568369231,1115.299776,31.68057063550718,66.04100841030596,757.3470883717815,884.7677071407619,881.3332127357529,130.0,625.625245494106,975.4208069498261,0.6413900964963597,1036.4850842236026,715.475328,83.86033403516606,69.82359658822135,597.6067666765283,837.9883314368785,835.4253126970556,161.0,592.547231714217,733.9697434152569,0.8073183357082507,1123.349932671141,715.475328,40.732162245652084,65.75696555548008,633.1928202273301,849.5177577950303,846.6551266868887,149.0,600.6997672752569,788.3185840588854,0.7620012764159143,1123.349932671141,715.475328,83.86033403516606,65.65967338254305,607.6522741030165,794.7974940616806,792.1225682035981,149.0,562.0066977210892,761.9427854527222,0.7375969803128494,truth
1783335738974828802,1783335748974828802,1286.4200721860466,1220.516736,36.55450457943136,62.49706753849937,672.0894429992653,1000.9271785323629,997.0105077814874,129.0,707.7623954141519,808.0498961084867,0.8758894702204498,1322.7274971428576,1115.299776,26.898597709392885,65.42707250749754,866.1198963303019,1113.830048006584,1109.3744161409857,126.0,787.5967800347934,1090.9505056040987,0.721936307824224,1039.8833959751553,715.475328,83.86033403516606,69.37844562922751,594.8554103655653,836.8377748708539,834.2185578832051,161.0,591.7336653642421,729.8161091121993,0.810798306554331,1087.1508230649351,715.475328,83.86033403516606,67.31969663113091,616.0112874060599,832.2682888805665,829.5439991198106,154.0,588.502550833973,765.3575545157283,0.7689249911518043,1118.8305464697987,715.475328,83.86033403516606,66.32044394002104,619.6893544523078,820.158045818312,817.382545317655,149.0,579.9393158428355,774.5095138298225,0.7487826882527637,truth
1783335739974828802,1783335749974828802,1269.6715295267177,1178.4299520000002,29.700534970787974,63.529645158369924,676.6817275797113,990.5220748697704,986.7050199206394,131.0,700.4048760553837,818.8484754088796,0.8553534592656439,1299.100653,1115.299776,29.094401604037202,64.852102221857,823.584680431494,1079.1547667822524,1074.9092233035594,128.0,763.077653541518,1032.201384912691,0.7392720690895634,1023.2510735705522,715.475328,61.983725156427084,69.76873950854478,566.7123850289719,803.6679112489842,801.1856789374007,163.0,568.2790298661852,693.4373272312538,0.8195102968212011,1124.9683615135139,715.475328,50.9152028070651,66.44238796523345,680.7668941321834,928.613160762606,925.4536512357142,148.0,656.6286630743123,843.3899025405625,0.7785588386775024,1109.2268507919464,715.475328,64.80116720899196,67.02255313791328,644.9197956782954,875.7301975556229,872.7712678373916,149.0,619.2347611814159,800.0732722618384,0.7739725630763981,truth
1783335740974828802,1783335750974828802,1303.0462890000001,1199.473344,40.732162245652084,62.456901234715126,689.6661799370479,1002.7032080883386,998.8357187599463,128.0,709.01823795677,836.615472376802,0.8474840131063657,1374.3749791475411,1199.473344,25.45760140353255,61.77076661635812,852.3087192444233,1124.3396142982865,1119.6930739220284,122.0,795.0281656269858,1066.2201525623277,0.745651039999932,1010.852696195122,715.475328,83.86033403516606,70.87713994671304,572.0998283025647,790.7058808671623,788.288892060048,164.0,559.1134902852529,705.8983493238734,0.7920594952811341,1131.2245050810814,715.475328,83.86033403516606,66.35669974008374,689.0236706720176,956.3750167310466,953.1373016794515,148.0,676.2592596879209,849.0252907516092,0.7965125032839184,1074.4508385882355,715.475328,83.86033403516606,68.9523777010079,648.0627316536838,873.7040197599922,870.8252947678137,153.0,617.8020371222358,805.6866200829434,0.7668019074942993,truth
1783335741974828802,1783335751974828802,1272.6395992615385,1178.4299520000002,37.5164652262585,62.609010096732334,655.8022595980542,968.2170926985914,964.4575087544756,130.0,684.632871907898,791.0702388153653,0.8654514331535741,1434.5478170256413,1346.777088,47.520855953260764,58.91595324274308,883.5040372139086,1179.5815589584365,1174.4906896594252,117.0,834.0901193021098,1101.5015224627914,0.7572301102564162,985.0783149176473,715.475328,83.86033403516606,72.1490638533892,560.0592027834883,781.2281256772483,778.9200985526658,170.0,552.4117053200387,689.0234213418702,0.801731389978325,1084.5653482105265,715.475328,83.86033403516606,68.56626637149755,668.3610027647144,917.5358717173525,914.4936884714624,152.0,648.7958368732501,826.4047682953425,0.7850823975901624,1062.0881414522294,715.475328,83.86033403516606,68.94665378161885,615.9372924524841,821.4102457887919,818.7807995692853,157.0,580.8247549333635,768.1658665260343,0.7561189324385041,truth
1783335742974828802,1783335752974828802,1231.038432,1115.299776,118.8021398831519,64.44439203043068,638.3753174814975,928.3898047808989,924.9451429263653,136.0,656.4707265450286,774.318529117008,0.847804491122837,1460.8544235789473,1346.777088,30.991862578213542,58.12595998594326,882.4064419305887,1196.3049729384852,1191.0522363784214,114.0,845.9153587319921,1095.2149836684418,0.7723737999808802,968.96913683237,715.475328,83.86033403516606,72.60974142434694,537.9592973443338,756.4080151469592,754.2174205036185,173.0,534.8612368542716,660.1228217943824,0.8102450319781132,1054.2871740377361,715.475328,83.86033403516606,70.23640343242765,666.7094163195443,915.9246872529505,913.0215906085648,159.0,647.6565574127291,824.1804313610224,0.7858188968927737,1074.5619273846155,715.475328,83.86033403516606,69.26951314510956,651.5571560851267,882.4810196638922,879.6297003535122,156.0,624.0083132727572,808.9253783722703,0.7714040503073281,truth
1783335743974828802,1783335753974828802,1231.6573552941177,1178.4299520000002,95.04171190652153,64.08515049864397,605.387614907872,873.4297192789588,870.2158098225668,136.0,617.6080773920144,736.3887967220535,0.8386983617094974,1478.2517318230089,1430.950656,45.9879251160588,57.878467379618876,873.6924411820876,1181.3020726927698,1176.0252234509853,113.0,835.3067062307814,1085.2687763039958,0.7696772674834632,942.022473874286,715.475328,83.86033403516606,73.49602132643001,509.4500320495566,697.3653279552341,695.3585170954143,175.0,493.11175236152667,630.4752732281106,0.7821270290851124,1015.2468385766873,715.475328,83.86033403516606,71.9028483036159,646.0042165200582,860.2521015190814,857.8574443450854,163.0,608.2900945141208,805.9990545784713,0.7547032357652701,1036.8171882264153,715.475328,83.86033403516606,70.66082540342008,623.8602412392778,839.7542204360523,837.1415434856456,159.0,593.7959038003554,775.9551620507588,0.7652451234824217,truth
1783335744974828802,1783335754974828802,1241.874208477612,1199.473344,32.40058360449598,62.4222918272705,582.7774250310985,837.4428176332312,834.3539472692408,134.0,592.1614952044271,709.8812830680802,0.8341697539131154,1506.0243788108107,1473.03744,33.15408554878658,57.52964637099173,895.0544991702412,1153.2160955607083,1147.9674009172445,111.0,815.4469213444504,1126.839949684387,0.7236581571081557,945.8826370169493,715.475328,83.86033403516606,73.36749463475354,514.303799685083,707.6160450324036,705.602908534841,177.0,500.3601039188179,635.4814552323325,0.7873716845692781,970.7033689824564,715.475328,83.86033403516606,73.08351085919784,561.3434175621402,758.5575948368155,756.3232524433383,171.0,536.3812192296699,697.3954822835698,0.769120582016576,998.238032479042,715.475328,83.86033403516606,71.85771752065119,577.8758360213617,807.5324128271606,805.1079490451118,167.0,571.0116451380198,710.5306568144414,0.8036411091648962,truth
1783335745974828802,1783335755974828802,1221.4451209411764,1157.3865600000001,75.032930452517,64.22521549687951,591.8914710606186,836.6406479355101,833.5670594359759,136.0,591.594275571506,725.0373325451034,0.8159500883834888,1465.6537936842108,1409.907264,64.80116720899196,59.428208931017764,863.8343772742511,1232.909205500522,1227.4643346408723,114.0,871.7984597967377,1054.7053548122358,0.8265801020342215,962.1234574883721,715.475328,83.86033403516606,72.49543986229261,535.3741224221694,731.4961234730556,729.3551479031158,172.0,517.2458693194698,662.9323172501014,0.78023933342856,973.6568275087722,715.475328,83.86033403516606,72.37387922216794,542.1340781096095,736.3319206428934,734.1630442949914,171.0,520.6652942907047,672.5121136129068,0.7742095402468778,1027.1240905030677,715.475328,49.15950615854562,69.07239223878854,537.5241738588176,732.3327471089067,730.0735843347521,163.0,517.8374515656809,666.1731470445121,0.7773316199595782,truth
1783335746974828802,1783335756974828802,1187.1479286857145,1115.299776,61.983725156427084,65.2269431161958,558.3327914642655,775.3079095439001,772.5199317567923,140.0,548.2254803460581,687.8920143439847,0.7969644492368166,1428.048119172414,1367.82048,95.04171190652153,60.45072651642425,850.4143249202373,1219.8252226932705,1214.6217076623723,116.0,862.546686828802,1036.540232976711,0.8321400939274315,983.778576,715.475328,83.86033403516606,71.80085792543771,539.5970376054347,740.510133273108,738.2897080849137,168.0,523.6197367747686,667.2638995293263,0.7847266083840574,1006.4900417560978,715.475328,15.666216248327723,71.2049711936648,592.6244770820972,770.9134209069597,768.7824901980309,164.0,545.1181076310303,744.1980019054341,0.7324906896220059,1050.0113033846155,715.475328,44.55080245618197,69.12578126326248,614.4278944341357,875.1053684428167,872.2782604068465,156.0,618.7929402786679,750.7269300139509,0.8242583495268628,truth
1783335747974828802,1783335757974828802,1222.699013688889,1136.343168,34.77135801458105,63.16383940486116,572.1261360923161,787.3511820141018,784.4281755425254,135.0,556.7413599774151,706.8777548099076,0.7876062815516567,1451.9940480000002,1409.907264,75.032930452517,57.7324430483474,826.9925825163576,1076.8021184508518,1073.0212729703753,114.0,761.4140799526374,1038.2474476246443,0.7333647500840378,980.9458116923078,715.475328,83.86033403516606,72.38006724348126,555.7512379671057,769.3383254502822,767.057033280887,169.0,544.0043469525976,685.3820192070114,0.7937242759622027,1004.7263162181819,715.475328,83.86033403516606,71.50057164631538,599.268954188372,819.8527048768932,817.3493319951374,165.0,579.7234071925844,741.7593575308374,0.7815518622135932,1055.9225616305732,715.475328,83.86033403516606,69.10815970444486,620.5697004529504,886.6689205286773,883.8224640000002,157.0,626.9696063731836,757.4087816910079,0.8277823303994405,truth
1783335748974828802,1783335758974828802,1241.874208477612,1220.516736,38.530423745887106,61.58913817159263,544.303257565777,729.3537184572203,726.649678865254,134.0,515.7309602047245,677.895907006813,0.7607819355067168,1392.4005765378154,1388.8638720000001,33.15408554878658,58.41132806674854,682.1937179255291,951.8724751712587,947.8359712124108,119.0,673.0754820184205,839.2027379048213,0.8020415706684191,986.7847748571429,715.475328,83.86033403516606,72.27694536459418,558.1877114125449,765.269799708827,762.9751324751362,168.0,541.1274648113825,690.4618568446427,0.7837181148344576,1004.2161733818184,715.475328,83.86033403516606,71.12970645906807,587.4139477198994,808.3275653914262,805.8849219030677,165.0,571.5739029082899,725.783665225972,0.7875265458479711,1046.8082262420385,715.475328,83.86033403516606,69.35129231752052,612.7321598163951,864.0682472076044,861.3038521359997,157.0,610.9885170084711,751.1510602990741,0.8134029881621992,truth
1783335749974828802,1783335759974828802,1271.2778953282443,1220.516736,32.40058360449598,60.64487828425426,577.4595002819042,782.8947838017579,779.9649191096929,131.0,553.590210581799,716.7202301495702,0.772393728116579,1330.9524572159999,1388.8638720000001,35.64064196494557,61.36494072263091,682.0234234311802,955.3929058493109,951.5348959026293,125.0,675.5648024235685,837.9248170813275,0.8062355818230877,971.9339767017545,715.475328,41.93016701758303,72.77332636124326,542.7544703599468,754.215586474796,752.0058107743885,171.0,533.3109556729172,668.5465896039203,0.7977169638826169,989.2899405714287,715.475328,41.93016701758303,71.20580108120858,531.4230905488828,726.2019868884022,724.0371404083285,168.0,513.5023494399335,658.0111480035018,0.7803854858659639,1019.6362577668714,715.475328,41.93016701758303,70.17214519301828,556.8009988501203,771.4579037657246,769.0858561520498,163.0,545.5031151527029,686.4895340209724,0.7946269944678248,truth
1783335750974828802,1783335760974828802,1279.7619780923078,1220.516736,29.094401604037202,60.398272220511885,604.1202724017999,847.1835715415796,843.9187517972243,130.0,599.0492483468896,741.9518893305435,0.8073963513825759,1261.9658414545456,1304.6903040000002,30.991862578213542,64.87910422969209,622.6860689890071,903.5639930736951,900.1183584351469,132.0,638.9162267384045,755.8894817571845,0.8452508497050955,983.9687271325303,715.475328,67.88693707608681,72.02212885670907,549.3222177522464,779.7854292005161,777.4516572857427,166.0,551.3915648581474,671.9326371996932,0.8206054213352313,970.984442698225,715.475328,61.983725156427084,71.46350991709203,492.8180466076308,648.7899069395439,646.8592072783165,169.0,458.7637427623406,616.8526309319483,0.7437169264711327,1040.5957344000003,715.475328,83.86033403516606,69.02176406727169,555.2420672788745,732.1847341496688,729.9189993632556,160.0,517.7327905985003,694.66818361127,0.7452950960083394,truth
1783335751974828802,1783335761974828802,1284.2944009846158,1220.516736,52.80095105917862,59.81225336627312,604.8593836125168,832.4200428542957,829.1873956308095,130.0,588.609857097869,747.3145027040762,0.7876333925918049,1280.547497674419,1346.777088,101.8304056141302,64.2469631772652,642.6374052620025,906.5729856554163,903.1513975666279,129.0,641.0439057974796,787.7163351763847,0.8138004471545428,998.238032479042,715.475328,83.86033403516606,71.50042996539226,566.7073877781424,815.8430501818706,813.3819795664837,167.0,576.8881531675175,689.8656072686457,0.8362326619695758,1018.3452521226994,715.475328,79.20142658876794,69.86502831014239,549.9558257044556,738.4742219300848,736.2031870989094,163.0,522.1801300582224,684.5193761601845,0.7628420001598712,1064.0402313846153,715.475328,21.600389069663983,68.21474726628075,578.6034442155124,753.2790272549151,750.8954357746123,156.0,532.6487082975566,726.4341457355782,0.7332374330479786,truth
1783335752974828802,1783335762974828802,1263.5600378181819,1220.516736,31.68057063550718,61.62514759796779,609.4844045214352,811.342800235095,808.2432683091447,132.0,573.705995913118,760.5085100354668,0.7543715663173354,1227.634353882353,1262.6035200000001,41.93016701758303,66.96017892925431,639.5212690308443,945.3253389091203,941.827739132014,136.0,668.4459575701102,771.0803511889875,0.8668953326840484,1029.0478482962965,715.475328,83.86033403516606,70.70686278962043,626.4479559695128,901.2862929670983,898.4829073487639,162.0,637.3056495475206,762.7547689815959,0.835531517421293,1032.9447727407407,715.475328,95.04171190652153,68.92162530636703,551.2269833385723,741.880115431837,739.5727359568947,162.0,524.5884604493106,685.6426532114206,0.7651047641103385,1068.6266116923077,715.475328,41.93016701758303,67.93503523757444,575.6487027809447,764.643198683517,762.1865942552055,156.0,540.6843909772874,718.7301668244688,0.7522773022957523,truth
1783335753974828802,1783335763974828802,1257.5404482406016,1220.516736,43.200778139327966,62.48671324726715,616.4615252144089,823.793131475331,820.6677615356102,133.0,582.5097095611077,768.36894996666,0.7581119845959199,1241.0924970666667,1262.6035200000001,39.60071329438397,66.69832080722475,659.0606148716683,944.469776068588,940.9416041124501,135.0,667.8409832838386,803.5645578752717,0.8310981074746455,1046.1196248,715.475328,89.10160491236394,70.23036072345135,652.6690582791902,952.1444640007431,949.145613259341,160.0,673.267807164156,790.7648381081915,0.8514134350926215,1059.3616453670886,715.475328,89.10160491236394,67.68576764149812,567.1493831001081,753.5378392927001,751.2586119044713,158.0,532.8317160445272,708.0692245043479,0.7525135927458394,1086.8775322597405,715.475328,89.10160491236394,66.91984335059782,580.6675034979505,766.355169417888,763.8626828317985,154.0,541.894937092754,726.3087758066158,0.7460944368886945,truth
1783335754974828802,1783335764974828802,1186.2460690285718,1115.299776,109.66351373829407,67.10499761853441,617.4454660432914,805.4854349258273,802.5836890917558,140.0,569.5642131830481,774.7748773711124,0.7351351080402034,1250.6684618507466,1178.4299520000002,43.200778139327966,66.8926532110512,696.4998631581179,995.8087942596576,992.0763076659797,134.0,704.1431511862035,849.8913636914637,0.8285095969534158,1074.1757615686274,715.475328,52.80095105917862,69.20168501386611,718.6943864373619,1057.738622158543,1054.25525885146,153.0,747.934152451221,867.9518961277112,0.861723046850939,1068.5217899617837,715.475328,29.094401604037202,66.90291481915888,558.4591645565212,771.3812579634023,768.927814790627,157.0,545.4489183861313,689.1995470616873,0.7914237911379683,1082.6271410526317,715.475328,83.86033403516606,67.27496135148672,589.9152902080269,785.5790215754362,783.02424348172,152.0,555.488253313884,736.0139261301965,0.7547251941746839,truth
1783335755974828802,1783335765974828802,1166.870905690141,1094.256384,89.10160491236394,68.28864478604899,621.891833434017,802.0324607219324,799.1853199963728,142.0,567.1225917082116,782.7419038041384,0.724533321842087,1265.7919127272728,1241.560128,79.20142658876794,65.78648895697549,692.4087884522285,968.5273300245841,964.8270023994929,132.0,684.8522428248847,851.0866955843148,0.8046797657372594,1060.6935056202533,715.475328,83.86033403516606,70.47814355175277,733.8198302240903,1071.990318765844,1068.5708831998109,158.0,758.011623765657,888.6463163589334,0.8529958542690771,1069.70576,715.475328,83.86033403516606,67.71468658167447,593.0804546302458,822.0486471324732,819.3980300494931,156.0,581.2761728525991,731.1277978341103,0.795040449254657,1040.3745777324843,715.475328,79.20142658876794,69.16175897608109,542.5189598840976,716.38511457262,714.0853679015054,157.0,506.5607724554013,678.4922516669883,0.7465977263717185,truth
1783335756974828802,1783335766974828802,1165.0925908732397,1094.256384,71.28128392989115,69.09907149796038,625.1803375622136,826.0859951756034,823.1969119409185,142.0,584.1310090319068,781.7265449583313,0.7472318968815919,1265.494978442748,1262.6035200000001,45.9879251160588,66.39247498623236,697.6997730575699,993.7769973466062,989.9516872176197,131.0,702.7064538109909,852.4504481407469,0.8243370102551322,1025.9303087407409,715.475328,64.80116720899196,71.60862471499942,696.9920381950491,999.4953529369137,996.5183015810856,162.0,706.7499418261334,849.6164207917335,0.8318459066122252,1036.7464928198758,715.475328,64.80116720899196,68.94457409551937,555.4357265308505,788.1412503990563,785.6755493981368,161.0,557.3000226900175,679.5042567700077,0.8201567792071202,1025.9303087407409,715.475328,64.80116720899196,69.74883485231925,525.7059438468103,678.0973470955482,675.98943810091,162.0,479.48723243587017,661.6490578525948,0.724685128385224,truth
1783335757974828802,1783335767974828802,1163.2319466666668,1073.212992,64.80116720899196,69.43660332600491,630.7935927362412,843.7337055524735,840.8080823903232,144.0,596.6098247118077,786.0212922070641,0.7590250170406846,1306.334319,1304.6903040000002,129.6023344179839,65.4491714033307,744.5519251970434,1042.9498575451032,1038.8897656292577,128.0,737.4769167076863,914.7562720697298,0.8062004483872729,1067.7175838980893,715.475328,83.86033403516606,69.89120079780699,710.7349643369606,1025.888770288918,1022.5953788997799,157.0,725.4129062144223,864.3936816120848,0.839215882352975,1067.7175838980893,715.475328,83.86033403516606,67.06816045100057,555.8431877779371,776.6601835063112,774.1668859532776,157.0,549.1816824349011,683.4639995180902,0.8035268614325386,1041.1904389565218,715.475328,83.86033403516606,69.11911674997774,550.5878300383815,739.5847114675784,737.2698866613247,161.0,522.9653647406208,685.2353835096391,0.7631908353332492,truth
1783335758974828802,1783335768974828802,1114.73861888,967.996032,95.04171190652153,72.25296602478738,626.4290715825982,830.0203595116795,827.2334535408063,150.0,586.9130247336047,782.68340607598,0.7498728351430379,1240.931967044776,1199.473344,75.032930452517,67.1631184570646,687.223953772555,992.1432239905339,988.4113902374899,134.0,701.5512015919902,835.7430711947201,0.8394340626588761,1052.9636902641512,715.475328,83.86033403516606,70.4059098600863,697.2629742904097,1008.92051629146,1005.7226619197405,159.0,713.414538747924,847.2727769639247,0.8420128182382282,1068.6266116923077,715.475328,49.15950615854562,67.23445131729258,561.2547787754199,786.7803031723188,784.2449641708615,156.0,556.3376876771543,689.3896155524172,0.8070003886428626,1004.2515146024098,715.475328,30.991862578213542,70.45905300866427,518.3198827107291,695.4646974399597,693.3934826427592,166.0,491.76780363564603,645.2853750707621,0.7620935211521238,truth
1783335759974828802,1783335769974828802,1068.7898586496817,967.996032,59.40106994157595,73.47606306631275,560.8148843846775,771.9724768617612,769.5034977519076,157.0,545.8669732783264,692.8501229247042,0.7878572222432134,1312.2527730000002,1304.6903040000002,26.40047552958931,64.90533419415273,751.4700798238099,1103.036529861783,1098.6893322138499,128.0,779.9646101617445,908.4284039969386,0.8585867710983341,1085.7843690389611,715.475328,83.86033403516606,69.46025348074849,734.0822998987694,1051.781887134469,1048.339056662671,154.0,743.722104721967,895.0934931744827,0.8308876227938252,1078.7793085935486,715.475328,83.86033403516606,67.16164180314071,591.0085350473443,813.9845485139047,811.3507391543438,155.0,575.5739940352522,730.0270307959627,0.7884283317669658,1039.8833959751553,715.475328,64.80116720899196,69.40552932862167,596.8063229073815,781.3983665176022,778.9537795556323,161.0,552.5320837726879,748.1375022850847,0.7385434924529962,truth
1783335760974828802,1783335770974828802,1051.1108129811323,925.909248,129.6023344179839,74.70486277798837,547.2296024391385,744.1742258763917,741.8156973716839,159.0,526.210641501446,678.5806186126403,0.7754578115969256,1357.471270819672,1304.6903040000002,61.983725156427084,62.459593944280215,762.5420801821439,1105.0332599732985,1100.4595121183993,122.0,781.3765115637965,926.1027057973746,0.8437255464997602,1116.1415116800001,715.475328,83.86033403516606,69.09293651617487,777.7208965539401,1100.3316033056078,1096.6329992161373,150.0,778.0519382512615,952.3744938652317,0.8169600753307887,1073.212992,715.475328,83.86033403516606,67.64077304169197,594.3612246862475,805.2532936811754,802.651499178111,156.0,569.4000645347616,737.8497909974473,0.7717018714134616,1039.8833959751553,715.475328,83.86033403516606,69.38650092557548,643.7462144937743,898.9260793900086,896.1125323340787,161.0,635.6367265221119,791.7078711862451,0.8028677617789929,truth
1783335761974828802,1783335771974828802,1066.6453091464969,925.909248,26.40047552958931,74.72665751997347,564.6074768628673,763.6675741723955,761.2850187763202,157.0,539.9945202695816,701.2604116149141,0.7700342288338257,1394.8261664,1304.6903040000002,33.943468538043405,61.986435225040665,783.3592504315043,1139.7636060276575,1134.9866215498803,120.0,805.9345747717892,950.0200845597551,0.8483342487914496,1071.8640566153847,715.475328,83.86033403516606,71.01025510383205,757.4326708330813,1029.0831748685446,1026.005726705069,156.0,727.6716913545296,939.4974489008944,0.774532908211537,1013.3987444363637,715.475328,83.86033403516606,69.84865240735267,537.7096194873428,721.4205558072634,719.2243326682236,165.0,510.1213670986841,669.4410841837621,0.7620108462877898,1004.7263162181819,715.475328,49.15950615854562,71.13378950065888,627.4777940871716,871.5891151144144,868.9287154845381,165.0,616.3065737057849,773.0070295595789,0.7972845655193147,truth
1783335762974828802,1783335772974828802,1092.8809989019608,967.996032,45.9879251160588,75.03384323152909,590.8822106220035,791.7875030917251,789.1825754044401,153.0,559.8783126949232,735.9019711524317,0.7608055619393801,1383.5588151932775,1304.6903040000002,40.732162245652084,62.266724853814665,770.6955906543886,1138.4907979095192,1133.6914864908638,119.0,805.0345635203043,929.4638576497047,0.8661278831819891,1037.4392256000003,715.475328,83.86033403516606,72.2591375077184,712.5373901926156,983.7299363433649,980.6418908552932,160.0,695.602108844604,879.48161887016,0.790922850369767,1004.5050494457831,715.475328,79.20142658876794,70.4402458134006,538.6060498142826,716.0973659867243,713.935740919294,166.0,506.3573034790377,672.305060519263,0.7531659855244084,1016.7551110243902,715.475328,79.20142658876794,70.68198152337705,647.874850049548,914.8756094700782,912.0742812454782,164.0,646.9147473984679,793.8729731214162,0.8148844579692319,truth
1783335763974828802,1783335773974828802,1090.955459764706,967.996032,33.15408554878658,73.72003390459153,569.779955860652,779.3769058576978,776.8449085061307,153.0,551.1026952321675,705.2951905798403,0.7813787795420704,1379.8204308099178,1346.777088,36.55450457943136,61.10376631706222,743.1666198906987,1122.3246474416608,1117.6729046087125,121.0,793.6033688987995,888.645090165793,0.8930487296685995,1050.5713676962027,715.475328,19.800356647191986,71.38675699134016,710.2904805701604,891.344655217872,888.6282520488547,158.0,630.2758500789424,900.2229223813466,0.7001330830497883,1004.2515146024098,715.475328,64.80116720899196,70.19213308031067,529.2845132748239,700.3931285564643,698.2686642849015,166.0,495.25273069873725,661.548606190699,0.7486263685906323,1029.0478482962965,715.475328,83.86033403516606,70.07489542111385,655.4061898892982,935.60302888923,932.692903553779,162.0,661.5712462262478,800.1726629757719,0.8267856137023257,truth
1783335764974828802,1783335774974828802,1131.7622935510205,1010.0828160000002,41.93016701758303,72.51494573074969,601.3440870883371,842.5953163801827,839.7226199589152,147.0,595.8048620084517,738.7406211626352,0.8065142824700363,1420.159172923077,1430.950656,33.15408554878658,59.98936323380238,752.590398455765,1171.4605503840185,1166.4413575689457,117.0,828.3476990690647,888.6532847061937,0.9321382290765208,1018.6034532515339,715.475328,64.80116720899196,71.74579345479957,603.6635294815029,806.0955330594707,803.6044044668464,163.0,569.9956177105365,752.5767811642362,0.7573919790997982,1006.746668487805,715.475328,30.332461246762186,70.2606499274114,535.4132116681548,691.9029149160519,689.8178887427187,164.0,489.2492430598791,673.5370840126653,0.7263879817056653,1040.3745777324843,715.475328,71.28128392989115,69.45832218968376,661.1509978758643,938.8700201759289,935.8563334226341,157.0,663.88135791915,808.6235559815302,0.821001754163978,truth
1783335765974828802,1783335775974828802,1138.9375587945206,1010.0828160000002,89.10160491236394,71.05383558089363,580.3415020999635,806.6904919531866,803.9073414883015,146.0,570.4163171788102,714.7762801516047,0.7980347599920696,1407.7672580338988,1430.950656,30.332461246762186,60.1759033797577,740.7608646823861,1137.6631979682675,1132.8138015498928,118.0,804.4493619897355,879.7067291359924,0.9144517545976132,1026.5515575652175,715.475328,47.520855953260764,70.51541724825194,577.4901438734917,753.6543736285957,751.2962489805994,161.0,532.91411826368,724.5626293286691,0.7354976598191965,1010.3378874181819,715.475328,83.86033403516606,70.12594337770608,549.5017162258081,695.676836194367,693.5526271555542,165.0,491.9178083874399,694.9192090925866,0.7078776956385731,1037.4392256,715.475328,83.86033403516606,70.09866987907749,688.5407052354545,974.3794946939225,971.3105752766521,160.0,688.9903481471943,843.1030515970621,0.8172077503954739,truth
1783335766974828802,1783335776974828802,1134.6253400816329,1010.0828160000002,33.943468538043405,70.0149277928759,567.672292466975,767.7224377666163,765.1313081623929,147.0,542.8617418138416,705.0916450411554,0.7699165713162796,1428.0481191724136,1473.03744,33.15408554878658,59.09504964271436,728.8741301298206,1096.6571396411084,1091.9031871956988,116.0,775.4537000768703,872.8406353186995,0.8884252963242593,1047.1403616603775,715.475328,27.95344467838869,69.92923020533578,621.1939725582217,795.1615585087566,792.6929688289773,159.0,562.2641301604054,783.3858736617675,0.7177358554248925,1022.1076114285715,715.475328,43.200778139327966,69.49781074434489,548.6119361082073,667.9318281652351,665.8413215423261,161.0,472.2991250659655,700.2977089151108,0.6744262033894745,1053.7678323037976,715.475328,49.15950615854562,69.32288314785052,698.9381085307926,995.036008998051,991.8629479799703,158.0,703.5967094873204,854.1105281592727,0.8237771181718945,truth
1783335767974828802,1783335777974828802,1145.8559342465755,1052.1696,27.415878434573518,68.97790496737589,560.3921064523179,756.6889440740033,754.1601177417386,146.0,535.059883603616,696.3720890638671,0.7683534305961299,1421.5980373333332,1515.124224,27.415878434573518,60.52849968810234,745.1265029705836,1111.0689053045544,1106.295686383787,117.0,785.6443573063644,895.4375928978395,0.8773859435182308,1012.1358298536586,715.475328,41.93016701758303,70.76679344444321,556.3517421751806,702.3594552253139,700.2154218258449,164.0,496.6431336203088,704.0790587402932,0.7053797829307414,1018.3452521226994,715.475328,41.93016701758303,69.67994797062032,543.6570899907845,700.1511832342729,698.0008502592565,163.0,495.0816495207394,684.5240267137507,0.7232494846054089,1004.2515146024098,715.475328,83.86033403516606,71.07019184986744,583.0225822964928,811.9799563498128,809.5156715883228,166.0,574.1565333225095,717.6369559581506,0.8000654489092278,truth
1783335768974828802,1783335778974828802,1134.6253400816327,1052.1696,47.520855953260764,69.79695106747052,556.9274516878543,783.7535443555747,781.0674515650004,147.0,554.1974459928184,683.2049241000632,0.81117308503422,1372.51611292562,1430.950656,109.66351373829407,61.33516601369029,681.0471349496556,992.4994675747886,988.3974668279476,121.0,701.8031038461709,825.4614477746428,0.8501948888566003,1002.270299209581,715.475328,67.88693707608681,70.8465105646641,539.9750997261916,690.2342477701268,688.1767947919276,167.0,488.06931720545225,681.2050994009976,0.7164792477840008,1051.110812981132,715.475328,95.04171190652153,68.18171717428979,559.9272358582074,730.2168436478706,727.9025578403381,159.0,516.3412818800463,702.6612691936709,0.7348366909030953,1013.9558329325155,715.475328,95.04171190652153,69.75347238986076,514.219907042339,730.0350723631697,727.7785752475104,163.0,516.2127501720091,628.9725144051915,0.8207238605015715,truth
1783335769974828802,1783335779974828802,1173.7209412027976,1052.1696,75.032930452517,68.64720154256918,596.936149009024,859.3393746146395,856.3248043581431,143.0,607.6446991306185,726.6701396071518,0.8362043051048167,1363.5433678048782,1430.950656,23.760427976630382,61.62023269083034,674.3524831056496,993.268486996783,989.1898797817687,123.0,702.3468826943274,814.1602858935648,0.8626641398056908,980.055987649123,715.475328,95.04171190652153,72.05023146873317,537.8413108347543,696.3741506301745,694.3231470208623,171.0,492.41088415361867,676.2487056286461,0.728150575454144,1034.5035425185185,715.475328,43.200778139327966,69.05818236878652,564.6481678277707,709.9019553518704,707.706216317177,162.0,501.9764866068972,715.3075634364665,0.7017631467439148,993.2982057142858,715.475328,95.04171190652153,70.94648623547673,526.6946269132972,767.7614458034558,765.4594732961078,168.0,542.8893246612116,638.3181421698127,0.85049960011443,truth
1783335770974828802,1783335780974828802,1151.8334426666668,1052.1696,83.86033403516606,69.94397956756681,595.441415091964,835.5065612484857,832.5842979835494,144.0,590.7923551846577,731.1519364271176,0.8080295295006018,1310.3239680000001,1388.8638720000001,75.032930452517,63.18537681588078,652.1859269644132,995.4770953599241,991.541425022886,127.0,703.9086046448898,776.4981035484271,0.9065168368450365,933.755936542373,715.475328,79.20142658876794,73.77798030014506,479.1584544227172,630.0177638545864,628.225436562404,177.0,445.48983308956304,599.9625431611969,0.742529409823289,1010.3378874181819,715.475328,41.93016701758303,70.1449423569558,549.3837720657542,704.7343219642324,702.5960011393145,165.0,498.32241799581243,692.4467068878272,0.7196545424203138,972.2047104000001,715.475328,83.86033403516606,72.3307709381323,523.458904586447,759.5774813793782,757.3268764876116,170.0,537.1023879199569,635.4360408625138,0.8452501170549234,truth
1783335771974828802,1783335781974828802,1140.9240424489797,1052.1696,64.80116720899196,69.79072658345338,583.4030702923612,820.617835113933,817.8156772939,147.0,580.2644359716862,715.7966729640044,0.8106553968306391,1303.0462890000001,1346.777088,129.6023344179839,61.79666649175317,626.086250492725,899.3441274016442,895.8288309207121,128.0,635.932331106001,762.733912474804,0.8337538435161794,948.1482872727275,715.475328,44.55080245618197,73.1940050956319,496.449334373455,672.0332676797764,670.1188802515062,176.0,475.1992807593241,616.4549496780795,0.7708580829912699,1036.4850842236026,715.475328,44.55080245618197,69.25231091653336,571.7613889587096,749.0794332231742,746.7439713788037,161.0,529.6791468794821,716.6185683391811,0.7391367880782861,987.4207015384616,715.475328,95.04171190652153,71.26293263918056,501.6270162062631,726.0263079552384,723.8626804492769,169.0,513.3781256749818,609.4922286749999,0.8423046292009917,truth
1783335772974828802,1783335782974828802,1143.2615434520549,1052.1696,61.983725156427084,68.40787303298966,570.4011393993521,797.1625979417827,794.4302153587628,146.0,563.6790787129199,701.3186634953009,0.8037417340408434,1284.6181454769232,1304.6903040000002,50.9152028070651,64.20752666269753,644.4268002094325,907.5344308370378,904.0137797665312,130.0,641.7237502051432,790.3588525901757,0.8119397259891208,941.3648466440677,715.475328,95.04171190652153,72.72997471351702,446.7710623191267,592.9136800802055,591.2270601995758,177.0,419.25328384298456,557.962459530172,0.7514005228882487,1037.0079014161493,715.475328,83.86033403516606,69.11344140251205,565.3304968669908,777.4309652037912,775.021299511993,161.0,549.7267074000035,698.6396889393936,0.786852960264174,994.9618157604793,715.475328,67.88693707608681,71.05363556659707,512.2832943752197,725.7610713183183,723.5724525268212,167.0,513.1905750503963,627.0455041155927,0.8184263688712967,deceptive
1783335773974828802,1783335783974828802,1126.6088097959184,1010.0828160000002,39.60071329438397,70.00921414870578,573.3965146094804,806.6123925630368,803.8857967712752,147.0,570.3610925704288,703.4992807199831,0.8107486506406993,1295.8126230000003,1304.6903040000002,37.5164652262585,63.688179102811134,650.7134611250808,901.9400994016432,898.4173416302905,128.0,637.7679605109706,802.1733174642513,0.7950500803579678,940.332247011236,715.475328,71.28128392989115,73.22924825512085,473.0590516720706,651.3483881994376,649.5375432582094,178.0,460.5728622107502,584.3851914920981,0.7881323293541704,1079.8654191483872,715.475328,71.28128392989115,68.1280475951899,631.4190584462119,896.7000945431824,893.793389814864,155.0,634.0627175421025,772.2449675133944,0.8210642273057025,1025.5748837300614,715.475328,95.04171190652153,70.02820945543034,547.8862093460008,760.5258035064651,758.1752686348941,163.0,537.7729529267692,675.0990463134065,0.7965837840587242,deceptive
1783335774974828802,1783335784974828802,1144.702871671233,1010.0828160000002,75.032930452517,67.48288699024995,568.2682165635214,798.7933781637512,796.0354756427171,146.0,564.8322144664987,697.3806827429378,0.8099338402160791,1297.1278350000002,1304.6903040000002,27.415878434573518,62.83793080403216,637.1279999190408,879.4091668177083,875.9523702304632,128.0,621.8361852944133,786.4630035106042,0.790674427809914,926.8497347932962,715.475328,83.86033403516606,73.78811296756086,454.5590567743627,617.5915889703799,615.8543377400307,179.0,436.70320056473065,563.8200329000886,0.7745436044875624,1073.9006845490198,715.475328,83.86033403516606,68.21597352920658,620.9368761301497,876.9238862499199,874.0443760183301,153.0,620.078826551779,760.8392292118106,0.8149932373941181,1000.7020267951809,715.475328,64.80116720899196,71.33717852367533,541.78239496369,763.9002862749177,761.5829867721089,166.0,540.1590725753392,664.2066057654487,0.8132395370456247,deceptive
1783335775974828802,1783335785974828802,1144.4146060273972,1010.0828160000002,49.15950615854562,69.23364168161483,595.8598737681376,850.2268143925425,847.3118497629684,146.0,601.2011460036028,727.5826890161276,0.826299409097509,1245.6431742089553,1262.6035200000001,34.77135801458105,65.42768073770229,627.3999850213512,886.1668701470106,882.8801700612183,134.0,626.61460314381,768.7252773085104,0.8151346412566741,928.4955866815644,715.475328,83.86033403516606,74.19641689246086,479.34781662785275,666.3671969043268,664.4927425669282,179.0,471.19276369132086,590.3705178396417,0.7981305797849948,1122.9777703783784,715.475328,27.95344467838869,66.42836723354237,671.7588792947055,927.6194352858091,924.4766164007489,148.0,655.9259930510314,829.0962125366191,0.7911337467629075,1021.1305968,715.475328,64.80116720899196,70.73668962078357,582.2249879625274,816.2361671677237,813.6664145771327,160.0,577.1661288540138,715.1304098328964,0.8070781509471531,deceptive
1783335776974828802,1783335786974828802,1140.0651284897958,1010.0828160000002,50.9152028070651,68.45004336028198,581.0859212853042,833.1047422948122,830.2491937499054,147.0,589.0940127153328,708.3825364331443,0.8316043696976857,1273.1252160000001,1262.6035200000001,26.898597709392885,63.54352172366781,629.2825416847757,865.6013283170093,862.3029078110766,132.0,612.0725690570404,777.6095547525506,0.7871206897037331,910.7304078688526,715.475328,71.28128392989115,74.56854296181093,446.9119528636295,626.5555541741642,624.8322618782346,183.0,443.04168114664674,548.9240581429661,0.8071092432083883,1086.7804421052633,715.475328,71.28128392989115,67.9712097611468,658.4703088180496,914.3183658091791,911.5129067559777,152.0,646.5207166270729,811.2778665019052,0.7969164984307564,1039.5435648000002,715.475328,95.04171190652153,70.07033753472098,626.2932406071624,860.2525200012255,857.5548626070276,160.0,608.2903904256826,774.2595475151257,0.7856414459181069,deceptive
1783335777974828802,1783335787974828802,1110.6391589798657,1010.0828160000002,61.983725156427084,70.05231358065286,561.2457480634172,798.13285432164,795.4320926967288,149.0,564.3651535786065,686.1046320727091,0.8225642667265924,1255.0089123609025,1262.6035200000001,118.8021398831519,64.48656232710975,623.857279186746,865.4330919964538,862.14893991318,133.0,611.9536080139337,768.8642275512261,0.795918949127025,903.3871311567569,715.475328,95.04171190652153,74.82152311389169,435.57038573149373,610.2994841626171,608.6472262335849,185.0,431.54690380603853,535.0950913251544,0.8064863812099632,1044.5413704000002,715.475328,95.04171190652153,69.64246659883372,609.8931026679206,864.5266991361739,861.8117409671183,160.0,611.3126914760106,746.3830048868901,0.8190335089002346,1033.6095896645963,715.475328,95.04171190652153,70.5832181610947,632.8928225853957,873.5769417730054,870.9460577855617,161.0,617.7121794158978,781.2313879132412,0.7906904266428388,deceptive
1783335778974828802,1783335788974828802,1131.189684244898,1010.0828160000002,95.04171190652153,68.78978821476863,568.6549804785508,801.3456658100205,798.6241377514897,147.0,566.6369543687144,697.2791798254094,0.8126400024027589,1219.8978127058824,1178.4299520000002,57.02502714391292,66.6250177577208,617.1662304499849,837.1355575475189,834.0391392854754,136.0,591.9442295142319,765.8911976175787,0.7728829256107979,914.578190769231,715.475328,95.04171190652153,74.49529244537287,442.47068073710926,584.8309120329797,583.2135365883468,182.0,413.5379037460332,553.2213008431527,0.7475090042913549,1033.8709982608698,715.475328,95.04171190652153,70.31709241324144,611.6315843087201,858.7747550721848,856.0872412735431,161.0,607.2454528233583,750.8747364645233,0.8087173843170696,1021.1854645398776,715.475328,95.04171190652153,71.06269000756289,612.8076024065896,851.6986715485995,849.0818008686101,163.0,602.2419061795888,754.7970974740252,0.7978858267937546,deceptive
1783335779974828802,1783335789974828802,1123.067471033557,1010.0828160000002,54.831756869147036,68.61550204926117,544.2789801588356,774.9775670006557,772.3550143103969,149.0,547.9918928936156,665.0801900123927,0.823948602172927,1214.3726799416058,1178.4299520000002,34.77135801458105,66.29532558381752,607.3819222021062,818.4755708272926,815.4623855775144,137.0,578.749626367509,755.215223512864,0.7663373411296851,911.9578278895029,715.475328,83.86033403516606,74.5358709610836,437.8296778888184,584.0871631314852,582.4624390854293,181.0,413.0119938542864,545.9855310781655,0.7564522690531846,1042.6405168301887,715.475328,83.86033403516606,69.79841945057198,613.6324162775792,862.6532013002736,859.918952896647,159.0,609.9879284517073,753.0251311775178,0.8100498950119488,1054.8333205063293,715.475328,67.88693707608681,69.88091109801834,654.849098303409,927.2075960215826,924.2506105021077,158.0,655.634778714538,801.702065338206,0.8178035295916968,deceptive
