window_start_ns,window_end_ns,red_Mean_NN,red_Median_NN,red_Heart_Rate,red_Mean_HR,red_SDNN,red_SDSD,red_RMSSD,red_NN_Count,red_SD1,red_SD2,red_SD1_SD2,infrared_Mean_NN,infrared_Median_NN,infrared_Heart_Rate,infrared_Mean_HR,infrared_SDNN,infrared_SDSD,infrared_RMSSD,infrared_NN_Count,infrared_SD1,infrared_SD2,infrared_SD1_SD2,ppg0_Mean_NN,ppg0_Median_NN,ppg0_Heart_Rate,ppg0_Mean_HR,ppg0_SDNN,ppg0_SDSD,ppg0_RMSSD,ppg0_NN_Count,ppg0_SD1,ppg0_SD2,ppg0_SD1_SD2,ppg1_Mean_NN,ppg1_Median_NN,ppg1_Heart_Rate,ppg1_Mean_HR,ppg1_SDNN,ppg1_SDSD,ppg1_RMSSD,ppg1_NN_Count,ppg1_SD1,ppg1_SD2,ppg1_SD1_SD2,ppg2_Mean_NN,ppg2_Median_NN,ppg2_Heart_Rate,ppg2_Mean_HR,ppg2_SDNN,ppg2_SDSD,ppg2_RMSSD,ppg2_NN_Count,ppg2_SD1,ppg2_SD2,ppg2_SD1_SD2,label
1783333981102575697,1783333991102575697,1194.7965970285716,1176.193536,36.6240093644955,68.71433989898898,615.8344659035087,841.6533885341919,838.6258387015978,140.0,595.138818441163,762.5018506086052,0.78050803150988,1329.6542709677421,1407.231552,26.949742739911784,63.09706447885074,694.3273336668971,976.6832865951881,972.7663179767195,124.0,690.6193750230217,851.8822289350627,0.8106981828771853,865.821222466321,714.1175039999999,84.01978618913675,80.04683189257852,662.4962963571309,765.100546077903,763.105495625928,193.0,541.0077844212158,855.2531636724032,0.6325703398724215,853.2788637538462,714.1175039999999,84.01978618913675,80.1128406532147,577.3413912841891,743.195735662222,741.4197578837841,195.0,525.5187444356819,727.0221377669998,0.7228373348434449,888.8483826382978,714.1175039999999,84.01978618913675,77.16871912815793,546.9549931760076,766.183895843261,764.149996334954,188.0,541.7738283866972,671.9822085129516,0.8062323994940339,deceptive
1783333982102575697,1783333992102575697,1167.3188362816902,1134.186624,34.00800869560297,70.3245729093587,611.9741582801288,844.0630177132444,841.1059271253592,142.0,596.8426835738161,755.588609189913,0.78990428960239,1324.3939215360003,1386.228096,34.83747232232499,62.52386315497818,661.6239415779723,963.9703884615155,960.1159444426034,125.0,681.6299985441681,801.9867534321768,0.8499267545593107,827.6438764307691,714.1175039999999,84.01978618913675,80.42698706484649,512.9259711304712,677.9614596201529,676.2390576883316,195.0,479.3911454805398,641.3097290215563,0.7475189035599771,806.1620611764705,714.1175039999999,42.009893094568376,80.88725641065214,394.4736373125102,502.775382866774,501.5416382128939,204.0,355.5158826387586,498.01920612052294,0.7138597834572712,852.204055148936,714.1175039999999,84.01978618913675,78.20867266137189,387.7167040404413,551.414651940136,549.9383048412051,188.0,389.90903963249,473.95564728189595,0.8226698887724883,deceptive
1783333983102575697,1783333993102575697,1180.1222400000001,1134.186624,39.676010144870126,69.53772207087496,611.0419605596128,864.0375488003242,860.9077975456205,139.0,610.9668099565117,748.4011849902782,0.816362697186868,1306.1834290393704,1386.228096,28.566727304306497,61.83445319544085,608.3567300554632,858.258183259188,854.8862428809581,127.0,606.8801813914184,745.6836089956055,0.8138574779843323,813.4441924729063,714.1175039999999,84.01978618913675,79.9823451997687,343.778186276044,449.9572068292861,448.8420695341117,203.0,318.1677921927461,430.9889914186783,0.738227190317412,786.3293860571428,714.1175039999999,84.01978618913675,81.42736668281994,311.9029888587505,424.48890721596916,423.47216585842665,210.0,300.158984830879,386.67717909218766,0.7762521324262535,865.3423872,714.1175039999999,79.35202028974025,77.68065614276026,412.8684519663062,580.3772464335229,578.8398632341339,190.0,410.38868659952004,506.66683354416307,0.809977404143129,deceptive
1783333984102575697,1783333994102575697,1261.1620625454545,1218.2004479999998,31.050790548159227,64.18424905443774,622.3810815983189,863.5458127203143,860.243761242001,132.0,610.6191000397827,766.9997254212609,0.7961138443751216,1330.4429168640002,1386.228096,34.83747232232499,61.60846118803763,637.0613593440413,938.8065350327904,935.0134231725043,125.0,663.8364671439322,768.9960491338607,0.8632508162969468,854.645781773196,714.1175039999999,42.009893094568376,78.08646097069024,403.84386348104414,502.2518672234725,500.9626712970743,194.0,355.1457011773229,512.9478507706473,0.692362197528961,808.7867398243903,714.1175039999999,42.009893094568376,79.83639110749678,300.6922233887,366.48755549210097,365.6049571258746,205.0,259.14583570894575,383.73603470385183,0.6753231708065714,908.138379314917,714.1175039999999,20.11741359458204,75.93862375073067,473.0696189789655,628.3709570076207,626.7497590166361,181.0,444.32536480076914,590.658288606144,0.7522545156342487,deceptive
1783333985102575697,1783333995102575697,1241.2568733834585,1218.2004479999998,43.282920158040135,64.91751401212477,608.8360579223728,884.7821725083052,881.4326258323018,133.0,625.6354740535883,738.6831645947947,0.8469605157398994,1297.2528257007873,1344.221184,49.252978110873265,63.539254263914884,642.8570498670013,931.9853721231809,928.2798896725536,127.0,659.0131765949692,780.6287143479365,0.8442082189424028,877.4777173333334,714.1175039999999,42.009893094568376,76.60229529255452,402.94720478521293,505.1140594778236,503.7849345479999,189.0,357.1695767294342,510.83054569777937,0.6991938515375018,817.471143920792,714.1175039999999,84.01978618913675,79.0385944141483,294.8709982725442,364.771381078243,363.8629181884394,202.0,257.9323171432079,375.0110280125924,0.6877992855574019,932.9331698983049,714.1175039999999,84.01978618913675,74.34340256421706,480.6374286174914,662.0815867830898,660.198036957898,177.0,468.1623797130725,593.663767369009,0.7885985391829927,deceptive
1783333986102575697,1783333996102575697,1295.978871,1239.203904,102.0240260868089,63.131170497518866,660.9810843023456,938.3773186137566,934.6765549127612,128.0,663.5329653034369,808.4887071498421,0.820707771717163,1296.963408,1281.2108160000002,102.0240260868089,64.17007313825438,667.5054776938624,1005.2854248907323,1001.3206605345268,128.0,710.8441409682365,799.0478265587035,0.8896140097516592,920.4387458121547,714.1175039999999,42.009893094568376,74.3793953356698,441.31239066918323,564.8345770189071,563.2773785040051,181.0,399.39835965870446,556.5552330786835,0.7176257376098361,855.0788427216494,714.1175039999999,42.009893094568376,76.94981286957182,349.1118981621405,451.99644091415064,450.839128728297,194.0,319.60974844258055,438.9567623661591,0.728112141887851,970.0894472982454,714.1175039999999,42.009893094568376,72.20598290407229,495.13369185701026,699.7038754154461,697.6555341241137,171.0,494.7653551287691,606.5627480368845,0.8156870113274463,deceptive
1783333987102575697,1783333997102575697,1341.5110606451615,1365.22464,28.566727304306497,59.10407166776859,634.8046230987902,889.5373653003568,885.9181930895127,124.0,628.9979031226974,779.8298775687035,0.8065834885471956,1314.9843732479999,1386.228096,62.101581096318455,61.65406651747543,600.2922802731531,891.2857095680522,887.6851222297162,125.0,630.2341692102334,722.567705817958,0.8722146923197992,957.5610700350877,714.1175039999999,28.566727304306497,72.30549122426865,474.96815395069706,545.2823334836124,543.7373436983345,171.0,385.57283566748674,613.8862180667788,0.6280851798265065,895.541950962162,714.1175039999999,84.01978618913675,75.30876763244662,429.84283790886866,577.6915455831452,576.1195928854646,185.0,408.48960931597946,534.8811551583576,0.7637016286263469,992.0674307065868,714.1175039999999,22.672005797068646,70.83557583351106,493.42072214494954,666.5443250307158,664.635572449415,167.0,471.31801219062936,613.072331602417,0.7687804324144307,deceptive
1783333988102575697,1783333998102575697,1394.7000782521013,1386.228096,31.050790548159227,56.26708485315577,671.7451533751954,983.586628591255,979.410021067642,119.0,695.5007749612906,812.7868344038625,0.8556988690293007,1397.8770715966389,1470.2419200000002,158.7040405794805,58.894739844692424,668.2262853186127,978.7096404180876,974.5579032880823,119.0,692.0522235522773,808.4457908354761,0.8560279877727934,967.3801071627905,714.1175039999999,64.9243802370602,72.58126452496153,545.1806940573729,705.687100060163,703.6217340119572,172.0,498.9961338484109,685.5256432460619,0.727902943915552,899.2675346086955,714.1175039999999,84.01978618913675,75.78129700655994,470.38424791882323,637.9636506927669,636.218192837188,184.0,451.10842355538136,583.7578920057555,0.7727662952964989,1002.3456532048189,714.1175039999999,64.9243802370602,70.41812613744844,527.9965507499803,706.6720986245862,704.5285635284006,166.0,499.69263301277357,657.8102701114767,0.7596303306850051,deceptive
1783333989102575697,1783333999102575697,1369.5641970247932,1386.228096,59.51401521730519,56.09278904916792,644.7178225152519,953.1459403270065,949.1920106919878,121.0,673.9759578656547,777.3032519211228,0.8670695204219302,1376.854652826446,1428.2350079999999,52.90134685982684,59.326809643139676,657.5901686870509,964.9531659268022,960.9243713684499,121.0,682.3249271542695,795.0257900217379,0.8582425069954186,1004.6231363855419,714.1175039999999,89.27102282595779,72.36829290065361,661.8715361138571,880.7474364719865,878.0744856171552,166.0,622.7824848420096,825.9654041922336,0.7540055330175359,921.3670753591159,714.1175039999999,89.27102282595779,75.1824047011628,506.5003668770094,678.2791436910956,676.3924511061041,181.0,479.61578204137834,630.9275664460293,0.7601756644475377,1029.4286459259258,714.1175039999999,89.27102282595779,68.73788681417928,512.3907938568327,697.4048346380215,695.2356564609559,162.0,493.1396878048278,635.2127796371457,0.7763377935918186,deceptive
1783333990102575697,1783334000102575697,1369.2170324628098,1386.228096,158.7040405794805,56.774337829058474,660.8266843979413,963.5068182028206,959.4848293724096,121.0,681.3022048706885,800.8105059525143,0.8507658176391203,1369.3564674098363,1407.231552,39.676010144870126,58.60544510586318,647.3229045263962,930.3833060891071,926.5318113153465,122.0,657.8803448383669,788.4482299977947,0.8343989114417912,1049.1025602038214,714.1175039999999,40.80961043472355,70.63325129316848,724.9793318070768,1010.8606833085382,1007.6271939257391,157.0,714.7864440023344,892.0371252532713,0.8012967440109502,965.4305324393064,714.1175039999999,43.282920158040135,73.29727748821112,553.0245701380529,731.0794442232851,728.9615887995188,173.0,516.9512325963773,691.4138137984369,0.7476726994451988,1030.4986766582276,714.1175039999999,64.9243802370602,67.55539602154074,471.566243524886,659.5805563911774,657.4779868528835,158.0,466.39388416299755,579.6445604609952,0.804620479474648,deceptive
1783333991102575697,1783334001102575697,1402.0255671794873,1428.2350079999999,17.85420456519156,54.48646437601878,640.2752871876587,905.0351252817444,901.2601966349263,117.0,639.956474298738,784.3039858805016,0.8159546372575025,1377.756113747899,1428.2350079999999,40.80961043472355,58.241633192996694,650.3678593257395,918.6598617615888,914.7595764306342,119.0,649.5906178555158,796.8517550240662,0.8151963194658424,1062.2129977070063,714.1175039999999,89.27102282595779,69.94643831265361,706.4263131469172,968.2007410519943,965.1047157187403,157.0,684.6213095477058,873.9125259825979,0.7833979822842573,1000.3212237108431,714.1175039999999,89.27102282595779,71.95755226018251,599.2939492893944,809.5954617384265,807.1384538505074,166.0,572.4704410130955,744.6108194170256,0.7688183223838957,1065.7907544615382,819.134784,89.27102282595779,65.91623055885084,539.7724569506632,757.621421121712,755.1752771139063,156.0,535.7192444473516,662.7300024365055,0.8083521833594329,deceptive
1783333992102575697,1783334002102575697,1433.3048077241378,1428.2350079999999,39.676010144870126,53.080828810593324,668.5432116365777,932.7579147209677,928.7315913237792,116.0,659.5594467046197,822.4297658657837,0.8019644644187848,1398.2300708571427,1428.2350079999999,31.050790548159227,59.24795931476334,697.488485170721,955.2669141868699,951.2627853538517,119.0,675.4757128646835,863.0449898797095,0.7826657020033576,1084.5420916363637,714.1175039999999,16.23109505926505,69.61774051030464,745.1921433956359,1011.3508277866244,1008.2288048864376,154.0,715.1330284865503,924.616156543347,0.7734377378392956,996.3435834251493,714.1175039999999,64.9243802370602,72.21775416052144,599.9766953598762,816.7918369103543,814.3288871465353,167.0,577.5590466971281,743.7451470356413,0.7765550457695298,1039.9336152,714.1175039999999,64.9243802370602,67.70555278781228,547.7385189028059,763.6409351223705,761.2369069887684,160.0,539.9756836166646,673.9793028951533,0.8011754682927781,deceptive
1783333993102575697,1783334003102575697,1433.261476102564,1428.2350079999999,54.936014046743246,53.50373782678613,667.0936423934851,923.9863001759243,920.0773650656819,117.0,653.3569785778649,822.5510225605557,0.7943057155822394,1427.8728794482759,1491.245376,34.83747232232499,57.648252690957925,701.894181935968,950.0825752364725,946.050026578443,116.0,671.8098316368879,871.5771109483841,0.7707979284883645,1059.5373982165604,714.1175039999999,89.27102282595779,70.44150944125873,724.0839765553023,994.8499923678183,991.6668098442714,157.0,703.4651758666694,895.0774175342139,0.7859266272235941,1003.8379031272725,714.1175039999999,89.27102282595779,71.4797679995418,595.019803676672,804.205119644421,801.7495257604082,165.0,568.6588935655088,739.1959584029638,0.7692938348771534,1073.208848516129,714.1175039999999,43.282920158040135,66.49148984690602,574.3200486800417,809.8088826868895,807.1819877545131,155.0,572.621352413001,704.0876579035056,0.8132813378919902,deceptive
1783333994102575697,1783334004102575697,1400.2304000000001,1428.2350079999999,37.587799084613806,55.127935492059365,661.7554236094207,930.9573531862105,926.9461063865297,117.0,658.2862574334492,811.8929011822305,0.8108043024823738,1387.6283263999999,1428.2350079999999,64.9243802370602,58.58747755143858,673.7177587482231,914.9493393818191,911.2009097743153,120.0,646.9668823190361,835.7680081796929,0.7740986445845581,1024.6593994601226,714.1175039999999,95.22242434768829,72.45590324577334,714.444387297799,965.1089433582197,962.1257407699552,163.0,682.4350784323807,887.6951880826831,0.7687718572704668,1000.116659353293,714.1175039999999,95.22242434768829,71.81260158952166,597.2784377637546,772.384441810017,770.0546346670824,167.0,546.1582764868493,751.2247552813203,0.7270238003303322,1037.388087652174,714.1175039999999,95.22242434768829,68.2650830435667,553.691963725377,776.3865244622599,773.956691851213,161.0,548.9881762691193,680.0408609388716,0.8072870437684884,deceptive
1783333995102575697,1783334005102575697,1356.2723472786888,1323.217728,95.22242434768829,58.46021616127343,697.6304517147365,988.4390981871455,984.3941603513167,122.0,698.9319891180463,853.887306155303,0.8185295460885166,1389.3786144,1449.238464,29.149721739088253,57.73787778386736,668.1089604995478,924.1338427491405,920.2850497144874,120.0,653.4613069318998,824.1561298510128,0.7928853323581171,1000.3212237108431,714.1175039999999,89.27102282595779,73.96965148717761,732.6141711480902,980.7394973022393,977.7670532610847,166.0,693.4875491198991,912.679876595208,0.7598365723883215,984.3039734911242,714.1175039999999,89.27102282595779,73.48051689552717,614.1958501595159,796.6869455887164,794.3123538925904,169.0,563.3427417085794,771.8779452662652,0.7298339655426351,1033.2134877018632,714.1175039999999,89.27102282595779,69.12415141586646,575.9578657553596,789.4700296781754,787.0132574712343,161.0,558.2396115289827,712.4880309948533,0.783507353449163,deceptive
1783333996102575697,1783334006102575697,1357.8819683902439,1260.20736,46.07536661984918,60.10933123917449,729.6950482226965,1019.4693741254979,1015.2924909927394,123.0,720.873707656145,897.2626569775922,0.803414364846511,1381.0206275702478,1512.248832,32.4621901185301,56.45474310384414,593.7596956297075,774.0086994113448,770.8392349607574,121.0,547.306800051142,745.2038550742041,0.7344390348016163,959.8820811034481,714.1175039999999,95.22242434768829,76.45078094883677,727.7640869309502,960.0815287000022,957.3138218029651,174.0,678.8801594357185,910.4075993834551,0.7456881509946409,933.0697324692737,714.1175039999999,95.22242434768829,76.00268310938534,582.1153679228914,736.907067658474,734.8343401177705,179.0,521.071984645601,736.1783727825436,0.7078066999932339,988.2809592426036,714.1175039999999,95.22242434768829,71.90802395403294,573.1557083935279,783.5207431909206,781.1855158171104,169.0,554.0328307106234,709.6046387782146,0.7807626957802135,deceptive
1783333997102575697,1783334007102575697,1317.7601370708662,1176.193536,57.13345460861299,61.99705838167075,730.1711630636707,1037.6030389060852,1033.4773643607175,127.0,733.6961449902619,892.8296803717501,0.8217649582222342,1380.2271085714285,1512.248832,40.80961043472355,57.125090688701974,600.5837114707816,851.0234910002756,847.4134507629424,119.0,601.7644814353437,735.0791409157683,0.8186390389008453,905.7883866229508,714.1175039999999,44.63551141297889,78.54297592235594,678.8783156791611,929.2385749099298,926.682234092109,183.0,657.070897658935,840.1669195603872,0.7820718506778912,904.7466970434781,714.1175039999999,44.63551141297889,76.60903488170148,514.1000192883757,627.1715340096082,625.465080666985,184.0,443.47724466536334,655.9433103528271,0.6760908109983166,947.195855725714,714.1175039999999,95.22242434768829,74.22028342295415,571.2966405447092,736.0929510385619,734.2547900287562,175.0,520.4963172629843,719.2367446489208,0.7236787068172565,deceptive
1783333998102575697,1783334008102575697,1296.5912995275587,1176.193536,31.7408081158961,62.67105110520614,725.0814737839985,995.9285614792301,991.9847820216603,127.0,704.227839399327,896.3915786959561,0.7856252291256649,1347.6363800975607,1470.2419200000002,40.80961043472355,59.489017511912785,608.0626670804431,881.1493713445993,877.5339827811275,123.0,623.0666957160295,738.4946584361447,0.8436983106085717,848.191378569948,714.1175039999999,89.27102282595779,79.65722321872818,502.78594137170717,645.5013188983958,643.8181685433956,193.0,456.43835985791577,633.5766863665167,0.7204153335810585,885.0654186096256,714.1175039999999,89.27102282595779,77.11242801723398,471.40665237238437,562.9644689203475,561.4821963688252,187.0,398.0759935406611,604.3312133964155,0.6587050026812702,928.8455737206704,714.1175039999999,89.27102282595779,74.87358893202133,533.5820356364175,737.3141837634248,735.2524305525956,179.0,521.3598592041419,658.4159218253495,0.791839689658108,deceptive
1783333999102575697,1783334009102575697,1277.1403787906977,1176.193536,44.63551141297889,63.65333553734785,715.4197544186096,969.0945327908597,965.302477226998,129.0,685.253315747226,888.1806103791523,0.771524741408958,1337.7846410322582,1470.2419200000002,40.80961043472355,61.0471040735109,615.0925476633953,887.9472342409052,884.3622433606456,124.0,627.8735106675838,748.0408489401325,0.8393572510875459,857.2441474639174,714.1175039999999,95.22242434768829,78.66040193608006,484.6155633808145,634.724846287439,633.0784955160766,194.0,448.8182429974372,607.4418333619732,0.7388662063549177,909.8420170549448,714.1175039999999,95.22242434768829,75.97214806968287,502.81339335525394,586.4774216184958,584.8552585190553,182.0,414.70216183924026,647.8068196289546,0.6401633160897718,941.1490804161849,714.1175039999999,95.22242434768829,74.84214647212767,620.4204079669727,818.1088601152991,815.7273161205294,173.0,578.4903227363246,776.2199678531989,0.7452659641522266,deceptive
1783334000102575697,1783334010102575697,1267.3162220307693,1134.186624,57.13345460861299,64.35788286310375,721.011412220351,970.3625129776856,966.6048514535493,130.0,686.1499131357407,896.8355821753938,0.7650788246730721,1288.102575,1428.2350079999999,51.01201304340445,62.505888048552116,596.2916752607782,855.180484878022,851.8075566609896,128.0,604.703919995649,726.83843358862,0.8319647008896377,823.0010918208955,714.1175039999999,89.27102282595779,79.53370910311762,360.8751596477383,461.57485320585533,460.45975795365064,201.0,326.38270872704555,455.19108671365643,0.7170235056301983,876.6179267368417,714.1175039999999,89.27102282595779,77.35716290493183,458.6965594431317,548.5281678657583,547.0805734753247,190.0,387.86798716971055,587.8641676054015,0.6597918508107871,903.9520188852457,714.1175039999999,89.27102282595779,76.2354054904812,543.0603912817119,710.9526628246437,709.0284003000322,183.0,502.71944898593864,680.7831923334544,0.7384428032995586,deceptive
1783334001102575697,1783334011102575697,1179.1940297142858,1071.176256,46.07536661984918,67.98205689962553,648.004898934519,889.1809194713461,885.9791790291963,140.0,628.7458578598782,801.3488760822563,0.7846093962641799,1293.681618,1428.2350079999999,44.63551141297889,63.099465733267,640.0985570635313,920.3737365646364,916.74789004654,128.0,650.8025103508555,779.538563363059,0.834856081453091,804.2786809756095,714.1175039999999,95.22242434768829,80.51595710904353,337.8728650421619,437.02625958856714,435.95380089323464,205.0,309.0242317116683,424.9331217628304,0.7272302766837394,832.7127757575755,714.1175039999999,95.22242434768829,79.10044867856112,372.23408673376844,437.3727790182396,436.2612835008886,198.0,309.26925795020253,478.84516672564513,0.6458648420010026,881.6958802139037,714.1175039999999,95.22242434768829,77.41821528268154,523.8697586296297,662.6492083655764,660.8654925907916,187.0,468.5637487831966,662.648515184673,0.7071075208741892,deceptive
1783334002102575697,1783334012102575697,1188.6738504347825,1050.1727999999998,17.004004347801484,68.44912072798597,677.348888898342,934.653766667895,931.3781586172189,138.0,660.9000164724176,836.1869520011753,0.7903735102428251,1247.4779927272725,1344.221184,35.70840913038312,65.2216403942987,616.214216233444,891.7949669236216,888.4367318311256,132.0,630.5942685397257,748.742515701372,0.8422044365265235,776.3426960747662,714.1175039999999,89.27102282595779,81.6567514142801,255.58979780325015,315.6068416128874,314.91704720622306,214.0,223.16773789334135,325.19281951481804,0.6862628093274129,810.4260339512193,714.1175039999999,43.282920158040135,80.08807003408614,338.19054355215866,382.5299007009468,381.5920645430148,205.0,270.4894867922562,438.3644673826107,0.6170424542100698,858.953836,714.1175039999999,89.27102282595779,78.49947205883872,508.16701421297444,627.8297296511722,626.1840394558845,192.0,443.9426592668607,646.4711024553168,0.6867169430787441,deceptive
1783334003102575697,1783334013102575697,1217.5872084087591,1050.1727999999998,34.00800869560297,67.90135034733355,775.8577010195233,1151.4381001957215,1147.227373675858,137.0,814.18968876495,934.0545593363468,0.8716725170138223,1231.8915896888889,1260.20736,36.6240093644955,65.56090604922713,609.1668007684864,876.8103361116953,873.53455398845,135.0,619.9985344790357,741.5991443758209,0.8360291933735545,768.9598613333333,714.1175039999999,84.01978618913675,82.13608078647596,248.62905406122815,320.68741832964116,319.94076442174077,216.0,226.7602481420964,312.92604234551914,0.7246448599880918,810.6922183529409,714.1175039999999,84.01978618913675,81.35514901809356,491.3578445221835,649.9758170468159,648.3729149346234,204.0,459.6023078410703,614.2051139973954,0.7482879861580235,856.1614950927834,714.1175039999999,84.01978618913675,79.30903478524779,558.3973109189236,739.3594405433175,737.4415139909122,194.0,522.8060741424719,697.8194738632895,0.7491996049466731,deceptive
1783334004102575697,1783334014102575697,1204.2988799999998,1050.1727999999998,75.17559816922761,69.0770690226633,786.4529494801777,1141.3241410074588,1137.1815529442501,139.0,807.0380396382856,954.6524418763819,0.8453736713353414,1202.6761544347826,1218.2004479999998,129.8487604741204,67.28463791328942,610.683097422807,874.7757863941066,871.5838527570619,138.0,618.5598905770676,744.6875330233952,0.8306301141711672,810.570267961165,714.1175039999999,20.11741359458204,81.00844558869322,423.2428621288389,545.2479251892476,544.0289683292887,206.0,385.54850532921233,532.8651008512641,0.7235386680668144,834.8609897487435,714.1175039999999,84.01978618913675,80.31885743753317,479.93635597886885,631.5307255028582,629.9339322382991,199.0,446.55965853073116,600.8078288995654,0.7432653787961554,864.7705653612564,714.1175039999999,51.01201304340445,78.8906474166891,567.5911546701642,744.1533972999471,742.1964998571069,191.0,526.1959134737996,711.2512692722294,0.7398171872680337,deceptive
1783334005102575697,1783334015102575697,1243.093432888889,1050.1727999999998,27.468007023371623,68.3204433962091,820.5891264219623,1188.8246939418952,1184.3939155923972,135.0,840.6260027283361,996.6980438289263,0.8434109085826815,1215.460866782609,1239.203904,43.282920158040135,67.12919619613504,614.0931316725512,881.7765085309852,878.5533080969014,138.0,623.5101486732573,748.223426514787,0.8333208057619337,833.8372032,714.1175039999999,89.27102282595779,80.23616803785974,471.93525778962635,597.142301328061,595.6400915692627,200.0,422.24337060241265,596.9095769721566,0.7073824694592035,882.3674107936506,714.1175039999999,89.27102282595779,79.38618617473043,647.6960931751213,897.8265292639425,895.4355368402568,189.0,634.859227171716,798.4343047903794,0.7951301983929557,916.3046189010987,714.1175039999999,89.27102282595779,77.12661798822839,633.0877563407639,810.8228425810697,808.5799315008408,182.0,573.3383303300269,798.2742598533123,0.7182222441136725,deceptive
1783334006102575697,1783334016102575697,1242.3387481791046,1092.1797119999999,119.02803043461039,67.62987945330954,822.7025316541599,1164.4873474127191,1160.1281866684808,134.0,823.4168999614687,1007.308897811019,0.8174422977408761,1215.111704470588,1197.196992,109.87202809348649,68.39740887184087,652.0651594718898,938.3066789104105,934.8884453545551,136.0,663.4830154901797,793.8974042483268,0.8357289140129822,856.2947446153845,714.1175039999999,95.22242434768829,79.22360729752799,500.66237150015553,642.8595489034009,641.2005903141171,195.0,454.5703463801197,630.8791647916806,0.7205347263769933,907.4862782608695,714.1175039999999,54.936014046743246,78.48747451397826,700.7808288660968,972.6236938803868,969.9639426701908,184.0,687.7488094855303,863.5324705754412,0.7964365358806114,925.3254414301674,714.1175039999999,64.9243802370602,76.55567001192706,634.0783420498251,817.7864442168704,815.486909529902,179.0,578.2623402681834,798.0708117874578,0.7245752278209946,truth
1783334007102575697,1783334017102575697,1259.5756771127822,1008.165888,62.101581096318455,68.838823766831,878.9111923997051,1249.0325739834236,1244.3120915433744,133.0,883.1994029865671,1074.6856170680935,0.8218211809664578,1180.0665137021276,1092.179712,68.01601739120593,70.31094724235071,664.1098010211272,973.3427919174633,969.8893459805133,141.0,688.2572885838849,803.2649674797362,0.8568247296322523,878.1655498105262,714.1175039999999,51.01201304340445,78.18077118328043,528.2334418884641,680.4129344659985,678.6149169706814,190.0,481.1245999679455,665.0719494246536,0.7234173691796221,921.8312401325966,714.1175039999999,31.7408081158961,78.28374374178894,720.2102962637084,996.6085843050264,993.8578528884647,181.0,704.7086881508093,888.3122053146068,0.7933119503871141,958.9164049655171,714.1175039999999,31.7408081158961,74.8222648554638,652.9185003009778,850.8372449932557,848.4018560479254,174.0,601.632785620811,819.5267730243031,0.7341221854175709,truth
1783334008102575697,1783334018102575697,1276.240532519084,1050.1727999999998,40.80961043472355,68.29240864676598,870.878406997012,1222.1971290357994,1217.4982733626498,131.0,864.2238778879436,1069.306758601791,0.8082094973550802,1170.8309514893615,1092.179712,129.8487604741204,70.50826891769394,657.4709800804634,954.1373492747135,950.753201002346,141.0,674.6769898555074,798.0862478301991,0.845368519617759,882.1451519999997,714.1175039999999,44.63551141297889,78.23288726614877,539.0080395318614,699.9248306796962,698.0479373268021,187.0,494.9215940944593,677.1895164645279,0.7308465090811606,905.7156970666665,714.1175039999999,44.63551141297889,78.03867397970465,588.7193993807277,786.25218205848,784.0563829848617,180.0,555.9642496562711,733.9161661705506,0.7575310032441414,922.4717875199998,714.1175039999999,44.63551141297889,75.65670817610847,540.9093153710573,723.9138498343389,721.8437205245167,175.0,511.8843922127211,673.9087174201552,0.7595752643953136,truth
1783334009102575697,1783334019102575697,1259.259835669173,1008.165888,52.90134685982684,68.57760560131665,860.3957139594822,1211.088527522031,1206.4957491126968,133.0,856.3689104280588,1055.4040524016496,0.8114133241002139,1174.1227727323942,1092.179712,68.01601739120593,69.45496334999568,651.1975145475977,954.175202813449,950.7975310442462,142.0,674.7037563494391,787.7206525729257,0.8565266813122896,865.5634762105261,714.1175039999999,89.27102282595779,79.05547042107047,529.1261472787843,696.4238701100164,694.5790709856745,190.0,492.44604113497195,662.3423644561974,0.7434916858130985,872.0283040837695,714.1175039999999,89.27102282595779,79.33795164845377,539.992203987381,742.8136944044829,740.8563756530281,191.0,525.2486004716417,667.2631524260796,0.7871685984186418,900.3103031351351,714.1175039999999,89.27102282595779,76.41550457692968,490.9893479029766,662.8433041441136,661.03968497435,185.0,468.70099522439995,610.1645417805012,0.7681550846214349,truth
1783334010102575697,1783334020102575697,1238.576935164179,966.158976,75.17559816922761,69.94085076852609,855.2222040205888,1205.231586037025,1200.69246510869,134.0,852.2274273869982,1048.6487698482924,0.8126910095076826,1185.1311768510636,1092.179712,36.6240093644955,70.10513122645163,667.7420881591283,935.1358301315535,931.9206952217856,141.0,661.2408868165328,820.4506306897867,0.8059484167384944,885.4967673191487,714.1175039999999,25.96975209482408,77.98601356844576,538.7555163044817,698.6204035764923,696.8022186272642,188.0,493.9992248442203,677.1243575767098,0.7295546516922577,884.5899987301586,714.1175039999999,43.282920158040135,78.35785536971667,539.5916837765043,742.3627757625858,740.3944054609727,189.0,524.9297528421928,666.7403900260155,0.7873075648255097,895.0182379354839,714.1175039999999,28.566727304306497,75.93925639671302,432.35012290479744,549.9146283659908,548.4775454395666,186.0,388.8483627912723,546.124283408878,0.7120144161400441,truth
1783334011102575697,1783334021102575697,1234.6920504888888,924.152064,34.00800869560297,69.41124663925379,800.9986237148308,1086.3475448120366,1082.3329072945514,135.0,768.1637156619479,994.0622934989142,0.7727520907750707,1183.9394914042553,1134.186624,129.8487604741204,69.84396510320755,634.8585813148651,924.0438809406663,920.7976981686606,141.0,653.3976943270799,769.8224230705899,0.8487641756664779,931.7038684044943,714.1175039999999,42.009893094568376,76.03323056971391,581.7071739257702,739.3054267176758,737.2250751033671,178.0,522.7678806000827,734.9308429368449,0.7113157457252149,890.2320441497325,714.1175039999999,95.22242434768829,77.58352521514493,529.6965837011581,735.8195225126337,733.8389862673445,187.0,520.3029740981308,652.5330253264398,0.7973588368770166,895.0182379354836,714.1175039999999,95.22242434768829,75.26810822904326,405.1768841545552,524.5562825856932,523.1368389820158,186.0,370.9173045303506,509.4573500366417,0.7280635062065021,truth
1783334012102575697,1783334022102575697,1238.8904195820896,987.1624320000001,43.282920158040135,68.82250859334856,787.9805693544637,1081.4025633522137,1077.3498866500533,134.0,764.6670857388655,974.4069372465411,0.7847512743491398,1170.2770695211268,1092.179712,40.80961043472355,71.22785647765001,641.1704338195325,925.7493026663064,922.4645592356915,142.0,654.6036095940628,779.708989022101,0.8395486249492347,954.1570011428571,714.1175039999999,31.7408081158961,74.49527147804615,573.8504695718772,773.8544284784945,771.6571129142036,175.0,547.1977140283835,713.3695071537496,0.767060700718244,907.4862782608695,714.1175039999999,89.27102282595779,76.2576331620228,527.7633181309703,727.5610333556446,725.5704748731073,184.0,514.4633404128681,651.7146427807497,0.789399695268078,916.2174250666667,714.1175039999999,89.27102282595779,73.84329573740878,405.18001514275215,516.0262554116371,514.5828760110033,180.0,364.8856644718699,511.6355297217178,0.7131749913269977,truth
1783334013102575697,1783334023102575697,1259.245369648855,966.158976,89.27102282595779,69.37297067306139,910.5609385513528,1265.5631532603616,1260.6865785208108,131.0,894.8882876902317,1121.530169861009,0.7979172667295567,1170.2770695211268,1050.1727999999998,75.17559816922761,72.40271505931385,661.3285750530946,981.5461224315875,978.1247870785587,142.0,694.0579192187367,796.1487114530751,0.8717691924062663,977.9503898947369,714.1175039999999,44.63551141297889,72.63714863269412,565.443824046341,768.5449127155166,766.2901166080086,171.0,543.4433194275651,701.2760623242986,0.7749349345055141,918.8434981978019,714.1175039999999,21.641460079020067,75.92186113173636,541.0599008672975,703.8559672151681,702.0010371653735,182.0,497.70132739646164,679.439715506063,0.7325172727440017,935.4797706067415,714.1175039999999,44.63551141297889,72.89563228060301,420.34262387563865,541.4409428286931,539.9210182642407,178.0,382.85656228620667,529.2317727144764,0.7234194582129898,truth
1783334014102575697,1783334024102575697,1272.0719076641221,966.158976,158.7040405794805,69.50730750081189,935.4552801974484,1312.7964293753244,1307.7374647797021,131.0,928.2872575287784,1148.6054789410607,0.8081863394771533,1175.8977126760565,1050.1727999999998,109.87202809348649,72.11606083939786,680.2816252618053,987.5016328058335,983.9990801641666,142.0,698.269100989793,825.6974691974899,0.8456718435487675,962.7595727167629,714.1175039999999,51.01201304340445,72.65488620200018,493.22895818448836,642.2670514871755,640.4312229891746,173.0,454.1513874392713,619.2114897407864,0.7334350136645358,887.1951632786885,714.1175039999999,42.009893094568376,76.37520097853417,442.8698172106563,562.3472408597015,560.8139291661315,183.0,397.63954739343967,559.6505562998848,0.7105139857671603,911.010236782123,714.1175039999999,42.009893094568376,73.79129427563942,383.7679689425427,506.18854725117944,504.78060978916704,179.0,357.9293543202761,480.1031104153607,0.7455260058836402,truth
1783334015102575697,1783334025102575697,1304.8603766929139,1008.165888,43.282920158040135,66.25276609818125,911.9444097906082,1266.751448300848,1261.8731999340985,127.0,895.7285391714099,1123.4413225236142,0.7973078087953117,1215.7294531764705,1113.183168,68.01601739120593,69.99898777340209,703.426191417038,986.4295352433742,982.9710490301915,136.0,697.5110135332843,863.9189814692371,0.8073801230146043,942.0527367272726,714.1175039999999,29.149721739088253,73.1456404587806,457.9556013518271,608.1495755423625,606.4644330641848,176.0,430.0266888417251,571.826187806171,0.752023426019602,906.0179325901637,714.1175039999999,13.734003511685811,75.18544397179168,468.9377207754298,572.127168889268,570.9228940189481,183.0,404.5550008226625,598.3082797244224,0.6761648042193206,952.8809291034481,714.1175039999999,29.149721739088253,72.3565357499212,530.6164206646913,721.5444334031067,719.5033876739093,174.0,510.208961786742,657.9901058635037,0.7754052184678016,truth
1783334016102575697,1783334026102575697,1301.2297350000001,1071.176256,35.70840913038312,65.90791325836028,877.5808601590235,1270.7512570989086,1265.7574708818706,128.0,898.5568310959682,1066.1116934356778,0.842835545870674,1185.4950665142858,1176.193536,42.009893094568376,70.05182760835272,628.3599014239828,860.3099018014922,857.2354588700438,140.0,608.3309654857679,777.5853970148177,0.782333320328771,929.3149246927373,714.1175039999999,43.282920158040135,73.78602159619426,446.86467437834347,599.301731360285,597.6278569717003,179.0,423.77031822169613,556.4040196760508,0.7616233945765227,884.8264442553191,714.1175039999999,89.27102282595779,75.70520535119205,389.25600622001826,500.25432445539974,499.02194986671697,188.0,353.7332251403085,490.3844200957405,0.7213386287256989,956.0193765517239,714.1175039999999,89.27102282595779,72.01552209485419,526.2565506309732,720.4631087847378,718.3896870288402,174.0,509.4443498164294,651.2489089311995,0.7822575098859,truth
1783334017102575697,1783334027102575697,1274.4250840615387,1092.179712,178.54204565191557,66.01557929886664,829.0018597083717,1176.0823205825238,1171.5557237953558,130.0,831.6157841175138,1014.2464003402645,0.819934666604209,1205.3224165839415,1218.2004479999998,37.587799084613806,69.95593333296742,649.0226246414605,903.568111459128,900.2419483650286,137.0,638.9191388766716,798.969274491533,0.7996792358295406,903.6052048695652,714.1175039999999,89.27102282595779,75.26413663329507,430.7224421453216,561.7294125870644,560.1925773588819,184.0,397.20267683224927,540.5170312709006,0.7348569126458776,880.811599238095,714.1175039999999,43.282920158040135,75.70116248013689,371.9779786209963,483.0979302340099,481.8246455322992,189.0,341.601822445654,467.32144248774705,0.7309782761671816,945.7556187428571,714.1175039999999,43.282920158040135,72.99757502300099,531.0036927988524,726.8936464232818,724.8020226340016,175.0,513.9914265873191,657.1424885284791,0.7821613052875119,truth
1783334018102575697,1783334028102575697,1245.7870767761196,1092.179712,57.13345460861299,67.09106728440001,807.1993945628628,1168.7783096556452,1164.3803994742386,134.0,826.4510684612573,980.6278809441061,0.8427774536306126,1240.9410319398496,1260.20736,178.54204565191557,68.27264476312553,660.6461118469065,880.769749996847,877.4272159522944,133.0,622.7982628867508,823.994983036604,0.7558277364646095,898.7208524108107,714.1175039999999,95.22242434768829,75.31900570056774,420.2082972868307,546.963006439543,545.4748600695775,185.0,386.7612509115821,527.5963358610909,0.73306280696652,870.4887837486909,714.1175039999999,95.22242434768829,76.2617552857924,360.69204819615805,470.1381385186492,468.89950918044013,191.0,332.4378658409573,452.7030372566922,0.7343398176771188,950.0763296914283,714.1175039999999,44.63551141297889,72.83610937112522,533.5912648203227,734.1522333817055,732.0485176165472,175.0,519.1240226474528,659.3135827057312,0.7873704353504141,truth
1783334019102575697,1783334029102575697,1279.7454586046513,1134.186624,21.004946547284188,64.60798231717693,814.8496163586561,1195.9616145591926,1191.3214121830772,129.0,845.6725676936171,985.0780419260905,0.8584828122248076,1260.5280234503816,1260.20736,37.587799084613806,66.57646198616646,652.7570987468641,881.6415861399971,878.2513034628995,131.0,623.4147441356556,811.0861164672862,0.7686172053480095,915.7970980773481,714.1175039999999,43.282920158040135,74.35116567128625,428.4206194800577,568.1999873794672,566.6350267537845,181.0,401.77806414613195,535.1407739808715,0.7507894813496185,891.0006631783782,714.1175039999999,28.006595396378913,75.03071268558583,363.8535067417223,474.0244298691885,472.806003316857,185.0,335.1858888085902,456.73182362114295,0.7338789886614633,927.6919723146066,714.1175039999999,89.27102282595779,73.86027667085888,515.2688185255759,710.0469893164665,708.0397976954118,178.0,502.0790411067655,636.3664266208118,0.7889778908872837,truth
1783334020102575697,1783334030102575697,1309.821822992126,1260.20736,64.9243802370602,63.61113677540914,824.5649862065474,1235.7176362205214,1230.809689994142,127.0,873.784320203342,988.9718468384219,0.8835280023356425,1278.9489053538464,1344.221184,42.009893094568376,65.65169787397828,657.6902659012268,892.4458495963695,888.9802659400902,130.0,631.0545120913825,816.087049956686,0.7732686263369526,926.747996764045,714.1175039999999,42.009893094568376,74.02015002044404,450.8203840845635,578.2574600618408,576.6357652088651,178.0,408.8897712814368,568.2276083428311,0.7195880053662224,905.3292946885244,714.1175039999999,84.01978618913675,74.51326718861831,385.94614591147166,530.2664569113589,528.8076743485406,183.0,374.95500751778604,477.08827931160334,0.7859237457244042,945.0355002514286,714.1175039999999,52.90134685982684,73.03749501405751,531.996204265454,732.578633777652,730.4744788680617,175.0,518.0113196965541,657.1697338122158,0.7882458565028411,truth
1783334021102575697,1783334031102575697,1309.6671112258061,1260.20736,102.0240260868089,63.162230761001034,804.7286143948842,1202.2845433928878,1197.4201572610377,124.0,850.1435535488829,966.3354773739084,0.8797602628221971,1296.963408,1260.20736,42.009893094568376,66.20195957259449,711.9838129923793,1010.5305210662838,1006.5659301826516,128.0,714.5529840419446,870.9471375604325,0.8204320942410398,943.9621418181817,714.1175039999999,89.27102282595779,73.96954552066614,515.8071319101325,661.9622322807166,660.0682456292536,176.0,468.07798333507924,650.050379137799,0.7200641648050713,943.9621418181817,714.1175039999999,89.27102282595779,73.48719228745155,475.4433629512521,645.0158659720262,643.1703680239003,176.0,456.095092801733,589.9842505608783,0.7730631662932335,960.3314275144508,714.1175039999999,89.27102282595779,72.77361306653802,559.605566676562,763.1001740242592,760.8786650592402,173.0,539.5933077771882,693.3515065331787,0.7782391798284313,truth
1783334022102575697,1783334032102575697,1286.2581581395348,1260.20736,25.058532723075867,63.157719821537896,686.8642694108821,997.1874861515504,993.3713246299652,129.0,705.1180335721277,833.6482043118533,0.8458220505065172,1329.0986956800002,1260.20736,109.87202809348649,62.904301283333226,710.8699279365576,1006.6876401229159,1002.730991867882,125.0,711.8356568675966,870.2396840497403,0.8179765527986543,921.5991577458561,714.1175039999999,84.01978618913675,75.014253990062,500.5342045303459,626.9118316047026,625.1679844670523,181.0,443.29360733376416,634.6765858751696,0.6984559021072075,942.4262573559322,714.1175039999999,84.01978618913675,73.87707497430618,483.50997936574333,657.5045074727809,655.6339360935739,177.0,464.9258958947244,599.5713101506501,0.7754305251495535,947.780952,714.1175039999999,84.01978618913675,73.88373450174787,564.6660522454956,764.0762554157919,761.8900527792634,176.0,540.283501548131,701.2434456695271,0.77046495747605,truth
1783334023102575697,1783334033102575697,1232.2027520000001,1260.20736,44.63551141297889,66.33794061628636,640.4679226207022,957.1826644573772,953.6131069806377,135.0,676.8303528720191,768.9919742934412,0.8801526875412435,1307.837244472441,1260.20736,36.6240093644955,63.28973660771516,690.8394816569764,984.4759805134157,980.5969691582613,127.0,696.1296417363117,843.931359637854,0.824865237896875,911.7565817704915,714.1175039999999,84.01978618913675,76.42905643058177,568.9927140260002,727.7150390232802,725.7130681352644,183.0,514.5722388647945,717.7138167293309,0.7169601962098682,926.9525247999998,714.1175039999999,84.01978618913675,74.88651574324543,484.06259419835163,637.2530673254674,635.4705377713474,180.0,450.60596523776553,605.8962966136589,0.7437014679841952,942.6635845423727,714.1175039999999,84.01978618913675,74.3360068452337,573.4893488590458,784.5803969503977,782.3483002597403,177.0,554.7821190696595,709.8510172492772,0.7815472621557681,truth
1783334024102575697,1783334034102575697,1215.4608667826087,1260.20736,64.9243802370602,66.78941804090687,605.6027849561495,917.1271154984968,913.7943830831515,138.0,648.506802579045,723.3456502928876,0.8965379169923261,1376.1603237024794,1386.228096,31.7408081158961,61.17198268774246,732.2754814809879,1060.003646362495,1055.5847478665044,121.0,749.5357664253871,889.6925474460145,0.8424660502968505,892.9276748663101,714.1175039999999,84.01978618913675,77.52577953005742,555.0644407099537,707.5896191276347,705.6849329833245,187.0,500.34141798235686,700.72983339302,0.7140289939699616,922.5274872928175,714.1175039999999,84.01978618913675,75.39813861176046,490.5477870773751,629.36010221729,627.6094448561206,181.0,445.02479608610446,618.2642867312328,0.7197970279651011,939.3410039322033,714.1175039999999,84.01978618913675,74.97783266666477,550.2313192685431,682.2360005184983,680.6192226545955,177.0,482.4137023362191,699.3908201478868,0.689762702682046,truth
1783334025102575697,1783334035102575697,1208.3164687058825,1239.203904,34.00800869560297,66.80997769121385,603.2644835424521,903.6550902842195,900.3383477115228,136.0,638.9806421937135,723.6766844788754,0.8829642517139376,1352.690319483871,1344.221184,35.70840913038312,61.37124995759204,716.673920282657,1036.486319461688,1032.2679773883604,124.0,732.9065050984458,871.0149501695223,0.8414396388440899,898.7208524108106,714.1175039999999,84.01978618913675,77.2566754020362,553.47017262159,716.7725642828466,714.8221955888425,185.0,506.8347407728714,695.8575549179541,0.7283599023835134,898.7208524108107,714.1175039999999,84.01978618913675,76.7085891097814,477.7113956298901,620.9936712731862,619.3039315232979,185.0,439.10883603119976,600.0067250364592,0.7318398573024618,913.5349323956042,714.1175039999999,84.01978618913675,75.8631073869216,488.149848395017,647.6349006118803,645.8434177154998,182.0,457.9470299557363,609.6907477184775,0.751113628785444,truth
1783334026102575697,1783334036102575697,1254.2063725714286,1260.20736,49.252978110873265,63.99129268138217,600.0710103804956,892.9331019777876,889.5471386036728,133.0,631.3990515544326,721.6911069468844,0.8748882249991518,1336.491912192,1344.221184,36.6240093644955,61.76913456948791,710.0884599220253,1020.381254421456,1016.3127445145358,125.0,721.5185043970473,864.9605573291718,0.8341634751819836,892.9276748663101,714.1175039999999,84.01978618913675,77.8807997664507,571.7680709888072,702.4214033630582,700.530628995704,187.0,496.68693756858966,728.3464127933158,0.6819377824127973,888.8842287914438,714.1175039999999,84.01978618913675,77.03034430205929,464.4840990721596,596.4945224481738,594.8972839100373,187.0,421.785321763735,585.2687654010616,0.7206694542714955,903.6052048695653,714.1175039999999,84.01978618913675,76.57749936959767,492.00156838206436,651.2671516195137,649.4853361723032,184.0,460.51541927420556,614.8933735910427,0.7489354074264071,truth
1783334027102575697,1783334037102575697,1236.8701866666668,1260.20736,31.050790548159227,64.55802101285857,594.3260018234672,878.5909488986417,875.3191157745267,135.0,621.257617855353,716.5656138939978,0.8669933440976645,1314.12174311811,1302.2142720000002,84.01978618913675,60.89297935407476,651.7122799505667,940.0011529588492,936.2640932330731,127.0,664.6811895803753,792.8160251822236,0.8383801140089249,902.8080114162162,714.1175039999999,89.27102282595779,78.15243186717863,666.4091831686242,818.4001697992666,816.1732583634453,185.0,578.6963097892833,848.9744927505648,0.6816415743120668,869.893136,714.1175039999999,89.27102282595779,77.99054406760568,449.0634720043389,565.5804763261127,564.0979990185878,192.0,399.9257901169119,568.6349311965149,0.7033085168992218,912.6747656393441,714.1175039999999,89.27102282595779,76.19503844133837,501.2121714492716,667.0801981878085,665.2450760206283,183.0,471.6969317338655,625.4424705072535,0.7541811660971863,truth
1783334028102575697,1783334038102575697,1212.3746718832115,1218.2004479999998,54.936014046743246,65.74094200703202,595.9032158068044,880.3652314864047,877.1226773151299,137.0,622.5122251049014,718.6379825859847,0.8662389689796532,1362.8144073442625,1407.231552,129.8487604741204,58.96950427469698,668.369226736395,958.9989682761037,955.0461765284455,122.0,678.1146736189356,814.5643567010255,0.8324875352578534,898.180048516129,714.1175039999999,89.27102282595779,78.47293497303964,665.1340028503416,811.8494893947859,809.6523602656769,186.0,574.0642792538893,848.5467489406773,0.6765264023114214,870.1119219999999,714.1175039999999,89.27102282595779,78.348382211294,480.00495704808935,606.049205991974,604.4735710466405,192.0,428.5415032896476,607.4418552920112,0.705485635466522,893.3769466524063,714.1175039999999,43.282920158040135,77.32092721956306,492.53263003575444,646.2427789283297,644.5133556087469,187.0,456.9626512730608,617.065110803246,0.7405420323930216,truth
1783334029102575697,1783334039102575697,1215.7474896350363,1218.2004479999998,34.83747232232499,64.66902467048246,569.5308444930805,823.6322375971215,820.5986491853934,137.0,582.3959404087743,692.1981291188908,0.8413717343473821,1378.5904756363639,1428.2350079999999,35.70840913038312,58.182365854640636,669.2383582203579,953.6187659758356,949.6876238240546,121.0,674.3102960882607,817.5651487934409,0.8247786700343145,861.6858269844558,714.1175039999999,44.63551141297889,80.37735293010007,642.0829671970471,776.9629058834413,774.9369235409941,193.0,549.3957394805866,820.7455356256396,0.6693862051430984,843.5327379393937,714.1175039999999,44.63551141297889,79.6480743787658,455.35594769639454,566.8937033016024,565.4621023409899,198.0,400.85438181651773,578.2352120843316,0.6932375847046408,857.2441474639174,714.1175039999999,95.22242434768829,79.29366561054985,468.53893709168625,612.6320737778306,611.0540854483652,194.0,433.19629374068126,587.5610237981098,0.7372788122336901,truth
1783334030102575697,1783334040102575697,1205.80992,1176.193536,47.611212173844145,65.06535960433617,574.6462705450575,804.3604500368041,801.4408017454382,139.0,568.7687287392873,706.1782629809801,0.8054180630516041,1380.6271744,1428.2350079999999,26.45067342991342,58.560157186751276,677.5585299868579,979.8419331653872,975.7193934801102,120.0,692.8528754321811,823.4977653998722,0.8413536800500573,792.697598089552,714.1175039999999,84.01978618913675,81.75408676458605,354.76120269161083,455.57667822325493,454.6168818991812,201.0,322.1413585221053,447.01621272070497,0.7206480421849458,809.4567209411765,714.1175039999999,64.9243802370602,80.85427442451619,383.82580011168045,447.52705376308177,446.6077268828641,204.0,316.44941448031176,494.544612446923,0.6398804203215837,849.354042122449,714.1175039999999,44.63551141297889,79.16768462660981,431.9387344316398,568.5137865585635,567.0633917577021,196.0,401.9999536736018,540.6848982799726,0.7435013534730571,truth
1783334031102575697,1783334041102575697,1185.1311768510639,1176.193536,49.252978110873265,66.1005866848733,563.1972566542705,774.7379791619253,771.9775281999041,141.0,547.8224787081596,695.9364667243818,0.7871731183834038,1335.4132830967742,1428.2350079999999,27.468007023371623,59.285078728065365,615.2145143361839,829.8894860266937,826.5294580961361,124.0,586.8204832048937,764.7212940316236,0.7673651666101333,800.8893575757575,714.1175039999999,84.01978618913675,81.05319852800423,340.2425146140641,418.10146199569505,417.16980657533963,198.0,295.6423790011655,433.39096595460876,0.682160917567741,805.5081515707316,714.1175039999999,40.80961043472355,80.58039886501922,344.3401157234949,457.3296908177357,456.25499224719243,205.0,323.38092561516805,429.94490236200994,0.7521450396052936,859.4922099267013,714.1175039999999,84.01978618913675,78.74157457124842,464.6961009730259,639.231669179423,637.5472613262785,191.0,452.0050480259658,574.2217784084713,0.7871611022465139,truth
1783334032102575697,1783334042102575697,1172.3478327887324,1071.176256,49.252978110873265,67.87070382389791,568.4880740398181,792.210636626336,789.412627293334,142.0,560.1775132865941,699.6127196206679,0.8006965819465433,1343.5325460983604,1428.2350079999999,119.02803043461039,59.951937424933895,629.0261691425476,860.0084317703636,856.4783341746264,122.0,608.1177939824323,778.7452839364536,0.780894352141021,831.6946395979896,714.1175039999999,95.22242434768829,80.81081913114082,622.74814890431,870.1273158202487,867.9272432329578,199.0,615.2729255121465,765.7350243350187,0.8035063121821587,803.4331712621358,714.1175039999999,95.22242434768829,80.47107539345566,326.0543038401952,453.61210776580066,452.5043842374504,206.0,320.7521974295206,401.47457208084245,0.7989352744485464,875.699646984127,714.1175039999999,95.22242434768829,78.16279218437296,495.29730490101775,684.0230444408436,682.2014085983219,189.0,483.6773332119877,611.283043403703,0.7912493867305884,truth
1783334033102575697,1783334043102575697,1200.5453690434783,1155.1900799999999,47.611212173844145,64.5919419665662,541.740031844241,753.3987536196137,750.6621850925876,138.0,532.7333676219218,667.1297502857309,0.7985453615188841,1325.402087424,1428.2350079999999,34.83747232232499,61.1562525197967,629.4587018894932,850.5852054515526,847.1552568986316,125.0,601.4545667517456,782.0247546181303,0.7690991406601205,823.6280606567165,714.1175039999999,89.27102282595779,81.22824623584715,616.8436494400439,858.8591304605458,856.7093177152236,201.0,607.3051152326336,759.3302471356994,0.7997904963268275,812.4095394679803,714.1175039999999,89.27102282595779,80.22950105551529,357.2427667612526,485.9671358658619,484.7627990999355,203.0,343.63065720455523,442.9489525002313,0.775779365240458,854.5032979896373,714.1175039999999,89.27102282595779,78.89335888616608,462.2891008446019,624.7142653711136,623.0853198747426,193.0,441.7396933478868,574.3304337921493,0.7691385783462641,truth
1783334034102575697,1783334044102575697,1219.7678700895522,1176.193536,52.90134685982684,63.43507746929596,541.1576257947936,753.1244847219758,750.3028050643106,134.0,532.5394302245335,666.2612322053418,0.799295238088241,1236.5590243555555,1260.20736,158.7040405794805,66.7895331236204,627.43565860586,810.7922164172394,807.8234945459735,135.0,573.3166743619007,789.306662096326,0.7263547894543602,830.1162863756343,714.1175039999999,84.01978618913675,80.85163908856862,623.9135953285596,870.4086445266389,868.1854806964504,197.0,615.4718549481775,767.5503545403026,0.8018651171320125,837.3802104242425,714.1175039999999,95.22242434768829,79.18503209944609,397.63664882593434,549.9668436733343,548.5692128404171,198.0,388.8852845891766,490.5241346702896,0.7927954143389285,863.548342,714.1175039999999,20.11741359458204,78.57051076884966,476.56789338567114,630.1005932348752,628.569623299268,192.0,445.5484023060467,595.7996514042094,0.7478158156956901,truth
1783334035102575697,1783334045102575697,1243.4677634887219,1218.2004479999998,23.805606086922072,62.46016995512299,550.6713211193345,738.5898224269517,735.8298258309878,133.0,522.2618719534656,685.63771509337,0.7617169540948372,1249.152909473684,1302.2142720000002,119.02803043461039,66.2554142012564,632.9802041296766,836.704252785188,833.5407999470862,133.0,591.6392509920297,791.3971038504559,0.7475883448568029,840.1382399999999,714.1175039999999,37.587799084613806,80.68182785362582,642.4706664557775,868.4486352492075,866.2532203780219,198.0,614.0859190969172,798.1142502773077,0.7694210683289401,835.9164397989949,714.1175039999999,37.587799084613806,78.97627462591895,374.96132252418613,503.6096333850892,502.33847732325404,199.0,356.1057868374677,466.6758201027856,0.7630688617186877,861.9034793782384,714.1175039999999,37.587799084613806,78.45342433873151,467.16153855753487,643.6359305769239,641.9740484555224,193.0,455.1193311262568,576.9861379898832,0.788787288221189,truth
1783334036102575697,1783334046102575697,1227.2241550222225,1176.193536,34.00800869560297,63.63677802299717,551.4741779934668,744.0930442699083,741.3596969249935,135.0,526.153237436994,685.4406782168861,0.7676130906116275,1216.0383275294118,1197.196992,43.282920158040135,67.96103063182566,625.7493696422955,806.1046034711367,803.1270441475789,136.0,570.0020314601337,787.8282739792478,0.7235105038577838,835.7053497889444,714.1175039999999,95.22242434768829,80.83977531048289,637.3235991117981,860.6877009153563,858.5116007698391,199.0,608.5981098011075,791.9387036525563,0.7684914337361581,827.3898736716417,714.1175039999999,44.63551141297889,79.1397269315093,355.8023580014449,491.30732196642026,490.08764110199246,201.0,347.4067390090582,439.14111031002636,0.7911050249059915,866.1737739999999,714.1175039999999,44.63551141297889,77.96017297032904,462.97731984126017,636.0437722927624,634.3851289754265,192.0,449.75086451968457,572.3268972420318,0.7858286351506018,deceptive
1783334037102575697,1783334047102575697,1238.1148359111114,1218.2004479999998,43.282920158040135,63.16110293362257,555.7425678869008,756.2098533546286,753.3939129723211,135.0,534.7211153071426,689.0110796971235,0.7760704160841594,1211.8080918260869,1155.1900799999999,51.01201304340445,68.7677112476265,655.8135974131579,868.6916107829563,865.5260418994046,138.0,614.2577287444934,819.4673089530804,0.7495817368593327,843.9764350050759,714.1175039999999,95.22242434768829,79.65678226262942,501.84865529515844,586.4170130325772,584.9192953261553,197.0,414.6594465184953,646.3226108914998,0.6415672909021984,811.0407692487803,714.1175039999999,95.22242434768829,80.0362142402013,340.8300222991535,468.3261489682725,467.17706213487037,205.0,331.1565957424467,421.30495220092035,0.7860258798584406,881.0279468936168,714.1175039999999,84.01978618913675,77.00379018016707,470.0920363062449,650.5787389502373,648.8368918112541,188.0,460.02863800750544,579.7929555484297,0.793436059553986,deceptive
1783334038102575697,1783334048102575697,1240.457841671642,1197.196992,158.7040405794805,63.855953638356425,570.3608190065847,782.7094862331342,779.7845086697603,134.0,553.4591854144878,705.3115572255215,0.7847017105343146,1217.889285688889,1134.186624,44.63551141297889,70.28617404242546,704.7342378387733,975.6311866073322,971.9953287025779,135.0,689.8754279871225,869.1010521764346,0.7937804542515641,879.7003052698411,714.1175039999999,43.282920158040135,78.03891099743525,541.2243211982799,654.3590494414159,652.6262044648615,189.0,462.70172119080854,691.9545435334675,0.6686880309044885,827.1808840597016,714.1175039999999,43.282920158040135,79.06814861357502,352.96900689014706,486.271726801356,485.0661652198983,201.0,343.8460355205311,435.95778646382746,0.788714059472501,912.3808963516483,714.1175039999999,51.01201304340445,75.30408277504172,489.7084807081673,681.7147314414372,679.8337266179847,182.0,482.04510943700626,602.8640380624269,0.7995917470650161,deceptive
1783334039102575697,1783334049102575697,1218.200448,1176.193536,64.9243802370602,66.38579016421457,599.2646436808116,824.3549348683687,821.3256540246953,137.0,582.9069645500182,740.5038566215047,0.7871761360021662,1173.8101651063828,1092.179712,46.07536661984918,72.26199505706603,692.7006394280878,962.174000928077,958.7467193626624,141.0,680.3597607376347,853.3602109969023,0.7972714827456425,918.5820867182318,714.1175039999999,44.63551141297889,75.74092607168113,557.661139761658,699.8947267788503,697.9555141300127,181.0,494.900307422031,706.7593200357053,0.7002388131182038,870.4887837486909,714.1175039999999,44.63551141297889,76.99431872525165,422.6291925543753,593.5404764184315,591.9845591204747,191.0,419.696495784167,518.8046785752533,0.8089682169727955,982.2204423529411,714.1175039999999,21.641460079020067,72.50322769450729,573.5549768484349,782.5326469473574,780.2571427766252,170.0,553.3341411563349,710.5218413607058,0.7787714732268554,deceptive
1783334040102575697,1783334050102575697,1229.713453511111,1176.193536,84.01978618913675,64.75026061201115,594.5644295322496,826.5492176473886,823.4678957235881,135.0,584.458556782904,732.2689529343992,0.7981473943976745,1201.881216,1134.186624,34.00800869560297,70.4562146610439,717.1641303548987,999.1759236917709,995.5495576868032,139.0,706.5240712407835,882.6441231402781,0.8004631229255872,934.8317873898303,714.1175039999999,84.01978618913675,75.98894785679178,608.5202073688067,749.4630347108689,747.3418599492356,177.0,529.9503940927042,774.706380154988,0.6840661283655392,884.8407827165775,714.1175039999999,84.01978618913675,76.91140015984328,492.7694811223972,694.3909690484772,692.5218109634403,187.0,491.0085630088763,604.2340759815291,0.8126131618963608,971.5633740350877,714.1175039999999,84.01978618913675,73.74033013312754,610.2296109918904,843.7377429177016,841.2617913590268,171.0,596.6126795601386,752.8525828850316,0.7924694596568153,deceptive
1783334041102575697,1783334051102575697,1216.0541094306568,1176.193536,37.587799084613806,66.25671878507862,592.1932031314684,845.32299931967,842.2205613177127,137.0,597.73362511189,723.0095686611046,0.826729895454627,1235.0032128000003,1176.193536,40.80961043472355,69.78970822920178,761.6286737711016,1082.590025882841,1078.5546089798256,135.0,765.5067485466769,931.2122112523018,0.8220540273169498,889.33350057754,714.1175039999999,84.01978618913675,77.15878232776211,472.3960370274339,599.3344661524102,597.7212233457586,187.0,423.7934652151886,597.0892571625292,0.7097656843285508,861.6858269844558,714.1175039999999,84.01978618913675,77.87338741602849,454.6190815597079,629.2086180958112,627.5679530020616,193.0,444.9176806365647,560.6970192223913,0.7935081967327088,922.7595696795577,714.1175039999999,84.01978618913675,75.24138718838715,513.9036436935986,672.3745500896385,670.5042417376627,181.0,475.4406038656374,644.338440651381,0.7378740330702608,deceptive
1783334042102575697,1783334052102575697,1244.0269198222225,1218.2004479999998,39.676010144870126,64.5365513354787,615.4072027493783,874.425393527154,871.1570097402027,135.0,618.312125404766,752.5271478028877,0.8216476006347652,1288.211968,1176.193536,39.676010144870126,67.32258152023651,834.7607732437133,1194.473758256845,1189.7987415145963,129.0,844.620494412796,1018.3119400762353,0.8294319855952628,909.0020301639341,714.1175039999999,84.01978618913675,76.34933367872169,493.1569545983093,633.3368026032415,631.5944697213728,183.0,447.8367478957579,621.392538862862,0.7206986242790937,870.9286467015706,714.1175039999999,84.01978618913675,77.47819264060098,465.85309749336403,646.0598642021182,644.3574637089441,191.0,456.8333110297778,574.1862762685195,0.79561865183998,939.8156583050846,714.1175039999999,84.01978618913675,74.50856167777803,529.5865806724596,694.4239350788504,692.4483295533649,177.0,491.03187351250193,663.6020964810888,0.7399492498838048,deceptive
1783334043102575697,1783334053102575697,1176.193536,1155.1900799999999,68.01601739120593,66.48103009899825,561.3791911602117,822.0990852193754,819.1787071257189,142.0,581.3118379658778,679.2138588513587,0.855859800842335,1343.2048877419359,1281.2108160000002,51.01201304340445,63.8941540953185,844.2683935744268,1215.8378297684337,1210.8947525116664,124.0,859.7271742523947,1027.62485066462,0.8366157880440154,920.4181162666665,714.1175039999999,84.01978618913675,75.52496276575877,487.3645112150696,644.799911056966,642.9962714090992,180.0,455.9423896168634,609.1851953708656,0.7484462739434934,883.7009635555554,714.1175039999999,84.01978618913675,76.9145070314519,479.4885666295643,675.8208829120235,674.0210904146179,189.0,477.8775291745716,587.9073945885963,0.812844903080321,948.9743301818181,714.1175039999999,84.01978618913675,74.06025595033807,535.0994289446057,707.3684823781213,705.3445340742563,176.0,500.1850506872064,669.0069171901025,0.7476530329283212,deceptive
1783334044102575697,1783334054102575697,1156.940368,1092.179712,102.0240260868089,67.72556562742226,567.4631046689807,827.8754079296106,825.0057843038524,144.0,585.3963149246069,687.520419738543,0.8514602593872445,1401.0540649411764,1302.2142720000002,119.02803043461039,60.13931228944908,841.4470571862864,1236.3199003395625,1231.1133971536406,119.0,874.2101852459813,1016.8306526167554,0.859740196655413,904.4111108196721,714.1175039999999,33.21712477244941,75.54496446856963,439.68648573839135,603.9118307856318,602.2851203851279,183.0,427.03015078730306,543.5724759783554,0.7855992892552327,896.5991432258065,714.1175039999999,84.01978618913675,76.32959480730283,493.9522639523326,677.2827834162417,675.4797304246313,186.0,478.91124893452434,610.9825578109876,0.7838378408875617,926.4857813333333,714.1175039999999,52.90134685982684,74.18974934967339,457.212327139409,612.8357801097796,611.121956320966,180.0,433.34033586937306,569.3806291320221,0.7610731972564078,deceptive
1783334045102575697,1783334055102575697,1150.2309306666666,1071.176256,28.006595396378913,68.53698628717945,567.2047434590684,831.3281252148233,828.431335626622,144.0,587.8377547305008,686.0508939296245,0.8568427793504216,1392.1790752000002,1302.2142720000002,46.07536661984918,60.52840861665512,840.3199414288513,1233.6512463293798,1228.479268426791,120.0,872.3231618987404,1015.776234479557,0.8587749272807941,902.5809470270269,714.1175039999999,84.01978618913675,75.2552181509044,425.0193266906436,578.3754907085073,576.8016769322061,185.0,408.97323155208255,526.9281773240632,0.7761460653499314,893.8890198709677,714.1175039999999,79.35202028974025,76.80830230077298,510.02223027882627,711.6755079009293,709.7565732458013,186.0,503.2305776411275,627.3952849844065,0.8020949307160237,922.5274872928176,714.1175039999999,43.282920158040135,74.38202726652243,455.5456447307101,606.9911919163089,605.3142737008337,181.0,429.2075879245271,568.2729028382765,0.7552842758836845,deceptive
1783334046102575697,1783334056102575697,1152.4379030068965,1092.179712,129.8487604741204,68.1635621199072,569.8699863004421,844.1839447639184,841.2605917843715,145.0,596.9281919113765,686.5434941959901,0.8694688638925027,1367.9791916065574,1281.2108160000002,119.02803043461039,61.342493144342555,828.9015414963138,1218.5344982099657,1213.5106848088647,122.0,861.6340067940137,1001.4733896404723,0.8603663519240777,908.542938229508,714.1175039999999,95.22242434768829,74.81114101716037,424.46300815366146,577.8366762510724,576.2474422706149,183.0,408.59223219542895,526.1785671010259,0.7765276994206789,903.6052048695652,714.1175039999999,44.63551141297889,76.3201115732552,515.8249811996845,715.9814122921342,714.0297310301646,184.0,506.2753118352894,635.6048117913756,0.7965252975483516,930.5238989662919,714.1175039999999,84.01978618913675,74.215156661541,474.9906706993132,642.2622125913393,640.4453866932124,178.0,454.147965823212,590.0060059627242,0.7697344793671549,deceptive
1783334047102575697,1783334057102575697,1148.092360386207,966.158976,119.02803043461039,70.75956078816061,629.6572990376318,898.4340939995591,895.3608485840318,145.0,635.2888403162804,768.8567312233985,0.8262772692454861,1396.4650745546219,1344.221184,28.566727304306497,59.521410540938184,799.0108224013408,1180.9176072118048,1175.9074371851093,119.0,835.0348480820589,963.4287674100354,0.8667323172494267,913.9965468131867,714.1175039999999,84.01978618913675,74.47351247955451,426.4877839064729,594.4352060644857,592.802475735451,182.0,420.3291651842205,524.8288826757506,0.8008880209512174,910.072824263736,714.1175039999999,84.01978618913675,75.84868964457407,517.807086885671,713.4925800623072,711.5189140483201,182.0,504.5154416883431,639.5157879263479,0.7889022463765154,950.5564086857142,714.1175039999999,84.01978618913675,74.14415730353852,553.5311061356715,733.2264994048289,731.1266945491807,175.0,518.4694298748285,691.6560532968647,0.7496058588708643,deceptive
1783334048102575697,1783334058102575697,1146.558522739726,1050.1727999999998,51.01201304340445,69.91715620542108,619.6979208254686,879.9381972098791,876.9080574505957,146.0,622.2102662721711,757.9434137345443,0.8209191543817397,1358.906527219512,1344.221184,102.0240260868089,60.03169385023769,767.0443301085751,1080.4862250951237,1076.0497726675856,123.0,764.0191367434163,940.6653964340071,0.8122113767974843,912.674765639344,714.1175039999999,84.01978618913675,74.73471012673258,433.00672886087347,596.2133729018876,594.5731679430932,183.0,421.58651901302846,534.903783844185,0.7881539292603595,907.7145766956521,714.1175039999999,84.01978618913675,75.94481321235573,515.2250215065403,706.1303539234525,704.198393110356,184.0,499.3095616609301,637.3842062600977,0.7833729746625956,923.9186922666665,714.1175039999999,84.01978618913675,75.53611173254784,526.3637755157051,691.3184762892971,689.3937017068674,180.0,488.8359825437135,659.2703083224334,0.7414803554365981,deceptive
1783334049102575697,1783334059102575697,1179.4940790857142,1134.186624,34.83747232232499,67.92547934642242,612.5438486193257,869.3685459731673,866.2365196210138,140.0,614.7363942079154,749.312695595688,0.8204003453047233,1399.7557456271188,1428.2350079999999,27.468007023371623,58.83157003942598,775.0729657783124,1112.7352204521394,1107.9734602082458,118.0,786.8226200468157,944.4211385034275,0.83312686254953,896.4502085189189,714.1175039999999,37.587799084613806,75.78171312871399,429.7018350181505,582.9535134066051,581.3889375483949,185.0,412.21038244633337,533.2247503048368,0.7730518551711614,877.4777173333331,714.1175039999999,25.96975209482408,77.31955939432754,473.3806380990836,626.3328122130084,624.7255918784919,189.0,442.8841787954587,591.6969318329504,0.7484983527352395,867.9954553263158,714.1175039999999,89.27102282595779,77.2637036338814,403.38443726656294,533.6767061583814,532.2629905460974,190.0,377.3664178858921,504.2175143563623,0.7484198924894613,deceptive
1783334050102575697,1783334060102575697,1201.579008,1134.186624,20.11741359458204,66.68526362406554,628.3686319934586,863.3887455548916,860.3134838924443,139.0,610.5080367820104,776.7459326310945,0.7859816332916202,1353.2474626115702,1428.2350079999999,52.90134685982684,60.659869680917495,721.3335514259288,1033.914648946844,1029.626460573188,121.0,731.0880594384221,879.4312420529346,0.8313191804873546,874.3405891147539,714.1175039999999,84.01978618913675,76.55265869131641,398.2653338762148,559.362367770445,557.8237322840143,183.0,395.5289233910451,488.8854545960906,0.8090421174788782,874.5075316363634,714.1175039999999,84.01978618913675,77.01299710219277,416.4378740970151,558.4983663128241,556.9951863905552,187.0,394.91798210140644,518.5179839420803,0.761628322124927,877.2554585396824,714.1175039999999,44.63551141297889,76.16168429193971,373.6098620340043,505.33058864186523,503.9991466519021,189.0,357.32268596965264,464.03545884323535,0.7700331497519602,deceptive
1783334051102575697,1783334061102575697,1208.764112695652,1134.186624,40.80961043472355,66.28181531199769,630.2573414750939,896.2354733529754,892.9638144954604,138.0,633.7341807478242,770.4798031372712,0.8225188748197674,1329.7708062719996,1386.228096,42.009893094568376,61.861684463754756,712.0441192199842,988.66975715487,984.6798357239235,125.0,699.0950896382658,877.2950947391411,0.7968756394860932,934.0638072808988,714.1175039999999,95.22242434768829,74.78027984318973,569.022400601014,767.6395454792616,765.5130679587119,178.0,542.8031281153451,707.2873297504912,0.7674435908626117,906.9779673812153,714.1175039999999,95.22242434768829,76.20152215295555,484.4650062102905,652.4776200165809,650.6628252974521,181.0,461.3713496861838,602.4789816491926,0.7657882909429494,892.7598018064516,714.1175039999999,95.22242434768829,75.2119434052574,379.3482786450098,512.021674153731,510.6813905458471,186.0,362.05399790859207,471.4537987131577,0.767952233913112,deceptive
1783334052102575697,1783334062102575697,1212.681291678832,1134.186624,46.07536661984918,66.97166102347265,635.2474248645549,886.0408959176426,882.7773824496899,137.0,626.525525911969,781.5442817169492,0.8016507068999027,1291.793952744186,1344.221184,95.22242434768829,63.761748326277136,634.4432562952996,815.7456673079367,812.6295212772704,129.0,576.8192930769874,799.1722232937334,0.7217709478185644,941.814061090909,714.1175039999999,43.282920158040135,74.18034438519767,567.1567532343012,770.408570609009,768.2164003948841,176.0,544.7611245618654,703.5276995695293,0.7743278976722463,922.5093355977654,714.1175039999999,43.282920158040135,75.39830067579288,493.8583181281593,660.202235784901,658.3559512951715,179.0,466.8334778780234,615.4878786254875,0.7584771269916147,900.8656236521739,714.1175039999999,28.566727304306497,74.80157822339552,394.78653503436954,517.0932350833373,515.741057309182,184.0,365.64013303311737,494.8398357515784,0.7389060189096772,deceptive
1783334053102575697,1783334063102575697,1241.7117793432835,1176.1935359999998,18.549822924874345,66.66106760767771,672.5548181973328,958.2900900849205,954.8946725715838,134.0,677.6134210429148,821.6325168663626,0.8247159248605148,1300.245198,1344.221184,46.07536661984918,64.06922602581034,675.6129175002438,908.0300443879114,904.4495698924933,128.0,642.0742019078139,840.6997015632898,0.7637378730049151,949.8362901942854,714.1175039999999,95.22242434768829,73.71539330093164,571.8842619788045,779.2649110526248,777.0332560780569,175.0,551.0235029460428,708.7240420633549,0.7774866806293347,929.8159173033707,714.1175039999999,46.07536661984918,74.583371465626,483.12606425840625,636.0902268561855,634.2983201137346,178.0,449.78371285649814,604.7056257024132,0.7438060665204478,899.6291099675675,714.1175039999999,44.63551141297889,74.69295040447884,388.7792339855026,495.72568422396165,494.38203957006755,185.0,350.5309929231044,490.7775433502226,0.7142360070720735,deceptive
1783334054102575697,1783334064102575697,1206.8555155620438,1134.186624,39.676010144870126,68.70126180671772,664.0997552559852,957.9459101694157,954.4175522868256,137.0,677.3700490907131,807.8625366728807,0.8384719161262376,1302.8706300000001,1386.228096,43.282920158040135,63.580396912218546,673.597059113383,914.4847907699815,910.8788429925279,128.0,646.6383968454151,835.7005372470408,0.7737680760330333,935.5437689491523,714.1175039999999,89.27102282595779,74.84458119321653,578.3408152421297,784.374703703662,782.1624563683429,177.0,554.6366719800484,717.7362176993093,0.7727583732055857,889.9072987826084,714.1175039999999,89.27102282595779,76.1897479097519,432.99697486964345,565.9663940577544,564.4195998808087,184.0,400.1986751619359,543.0407633795468,0.7369588107370598,900.3103031351351,714.1175039999999,89.27102282595779,74.72618528260942,391.0721264523969,484.374859523324,483.11919044411883,185.0,342.50474780522376,497.2122937352203,0.6888501191960014,deceptive
1783334055102575697,1783334065102575697,1226.5400555294118,1134.186624,51.01201304340445,68.60294262395578,701.8087346432534,994.7027879624279,991.0294905143529,136.0,703.3610866333973,858.9019681826746,0.8189072940671196,1286.704027569231,1344.221184,178.54204565191557,64.88814888351786,672.6626922589162,900.7379163945446,897.3042399692488,130.0,636.917888754424,837.9248156047954,0.7601134098107727,917.689462153846,714.1175039999999,84.01978618913675,76.02682970786287,572.4356320013217,778.3694270298239,776.216257131767,182.0,550.390300121076,709.8593975822403,0.7753511498131727,869.893136,714.1175039999999,84.01978618913675,77.45454273011823,422.6964160631396,548.1438217708584,546.7070071848447,192.0,387.5962134396842,531.2523957299911,0.7295895821930183,874.4475503246072,714.1175039999999,84.01978618913675,76.21892998098255,372.8252647178214,462.8936251465777,461.673876978643,191.0,327.31522130916886,473.74014920997786,0.6909172082100467,deceptive
1783334056102575697,1783334066102575697,1250.489343044776,1197.196992,33.21712477244941,67.55002638365697,705.9408254209217,990.1648254015869,986.5288657919873,134.0,700.152262533856,866.9476931316593,0.8076061198164202,1288.9659382153845,1344.221184,32.4621901185301,64.02529050375792,668.7652122997463,887.1464558818639,883.7021738568704,130.0,627.3072748596783,835.3062970065001,0.7509907169475064,898.180048516129,714.1175039999999,84.01978618913675,77.83729668336485,643.7530165944828,886.5468821037792,884.1486123850841,186.0,626.883312175373,795.2009489475033,0.788333204336704,861.1416959999999,714.1175039999999,84.01978618913675,78.02833748454245,419.33389976640393,538.3324262226195,536.9472644151023,194.0,380.65850911462104,528.4234937111692,0.7203663607785862,849.6167227076921,714.1175039999999,84.01978618913675,77.70978238346537,356.87493138290944,431.8952961481583,430.78072578388463,195.0,305.3960926689349,456.1644951006011,0.6694867661753987,deceptive
1783334057102575697,1783334067102575697,1249.7845923609023,1218.2004479999998,64.9243802370602,65.50799515025493,643.0689374559136,932.8487264876555,929.3089812404943,133.0,659.6236603206562,780.7199433945216,0.8448915208347999,1307.8372444724407,1302.2142720000002,24.20909093585296,63.34164268406256,687.2419938055682,912.7103952417777,909.2106595315513,127.0,645.383709734915,858.1043349757095,0.7521040081369406,883.7009635555553,714.1175039999999,44.63551141297889,78.43187514165218,633.0220680044566,863.8106630001607,861.5176488236881,189.0,610.8063774686611,784.1502801013869,0.7789404569104876,852.8480236307691,714.1175039999999,95.22242434768829,78.54384680108724,415.0935417318632,534.2499586190536,532.8714227228518,195.0,377.7717685881652,522.732763660256,0.7226862267881367,843.5327379393937,714.1175039999999,44.63551141297889,77.90003761486271,341.85198000926573,411.15195621217117,410.1212867165705,198.0,290.72833633574066,437.56607466557216,0.6644215654925756,deceptive
1783334058102575697,1783334068102575697,1275.9198690687024,1260.20736,40.80961043472355,64.94524500126796,656.7548441160586,962.9396824766144,959.2289728778179,131.0,680.9011793528349,794.2547717941493,0.8572830828762175,1297.3297473488371,1302.2142720000002,178.54204565191557,64.44161226965613,689.1171959803266,943.44129026598,939.7653071003349,129.0,667.1137339984604,852.7864049965217,0.7822752920189685,907.4862782608695,714.1175039999999,84.01978618913675,76.94546437446456,596.8530170169307,766.0755741639539,764.0658113419784,184.0,541.6972333927097,752.1629487762392,0.7201860105899195,892.9276748663101,714.1175039999999,44.63551141297889,76.3192622328762,442.6954401724542,573.3052106695033,571.770732861662,187.0,405.38800215398794,556.5867312052678,0.7283465081464219,861.4681745906736,714.1175039999999,44.63551141297889,76.94896192043643,365.9597106808681,423.58016609326097,422.54504444148824,193.0,299.516407820669,472.2266197561831,0.6342641335537443,deceptive
1783334059102575697,1783334069102575697,1261.8230104615384,1260.20736,36.6240093644955,65.77059654638386,656.8649306175491,951.1411399823371,947.4881679239393,130.0,672.5583499470139,797.982272427571,0.8428236731387523,1275.9198690687024,1260.20736,49.252978110873265,64.74815378753381,681.1845480439322,957.4523555533574,953.7654195068619,131.0,677.0210532748124,835.9701093334403,0.8098627519285758,922.5001067865169,714.1175039999999,28.566727304306497,76.17570062070277,609.5949298240474,792.5355876708593,790.3301048395344,178.0,560.4072883737301,765.6264053069043,0.7319591964034844,889.7201689180326,714.1175039999999,36.6240093644955,76.24926006026764,430.6797547418624,548.4621254612142,546.9768556684703,183.0,387.8212881376116,543.8450390714834,0.7131099123377975,885.8178874754096,714.1175039999999,43.282920158040135,75.84035875695969,421.8035303182171,469.95222158674426,468.6595930454607,183.0,332.30640271766987,548.2906744914079,0.6060770649180125,deceptive
1783334060102575697,1783334070102575697,1227.4666785882353,1218.2004479999998,71.41681826076623,67.65969731133563,638.8630275106,937.4595581660376,933.9862153204427,136.0,662.8840106673499,772.3887169300207,0.8582259115618438,1272.1631734153848,1260.20736,30.39013543011329,63.765771722741555,649.1737672956199,905.6177866247028,902.1010461518704,130.0,640.3684780854793,798.6346263635322,0.8018290929874966,906.116487652174,714.1175039999999,84.01978618913675,76.64353029578646,536.9559518320273,717.8128769325821,715.8572336495013,184.0,507.57035290205346,669.2006850288777,0.7584725542833993,863.8623509222797,714.1175039999999,84.01978618913675,77.66704245007524,416.393188698409,502.52191531792613,501.30399465799417,193.0,355.3366540161575,532.5734750672046,0.6672068186860379,894.929864347826,714.1175039999999,84.01978618913675,76.36518712520714,490.0670951750075,593.7655738317274,592.1734751212176,184.0,419.85566369153605,626.2524462064875,0.6704255867339184,deceptive
1783334061102575697,1783334071102575697,1206.9377252173913,1176.193536,49.252978110873265,67.67827861254845,621.7292268341174,913.1764710185762,909.8603907052255,138.0,645.713275077236,751.413099562427,0.8593319379889124,1303.2065612598426,1302.2142720000002,52.90134685982684,61.36638964213771,649.1191414922247,931.4666283677693,927.7668027045938,127.0,658.6463693678194,791.0776193032518,0.8325938609512523,880.1448228571428,714.1175039999999,84.01978618913675,77.82212072225758,503.5293574953388,672.4965367912607,670.7056346473327,189.0,475.526861489569,627.7107054370488,0.7575573546391557,835.9164397989947,714.1175039999999,84.01978618913675,78.61278427229851,361.6774689840301,429.0670868358038,427.9822651508245,199.0,303.3962466855541,464.32374685121084,0.6534153136535039,909.0020301639341,714.1175039999999,84.01978618913675,76.5851610778732,555.0025965913726,706.5276291344286,704.5839833956007,183.0,499.5904776566086,700.8997373118017,0.7127845126218976,deceptive
1783334062102575697,1783334072102575697,1244.2196546865673,1218.2004479999998,26.949742739911784,65.86890126428804,637.9569830667169,933.6404826550315,930.1265611238274,134.0,660.183516475654,772.0473345424454,0.8551075652206123,1344.5599494193546,1344.221184,36.6240093644955,60.32453109262602,658.1445309757081,965.05357761149,961.1344820444702,124.0,682.3959289374227,795.9122724215814,0.8573758095992381,864.2976557098444,714.1175039999999,84.01978618913675,79.18917235889552,547.7799762663029,750.1578568757855,748.2250895403076,193.0,530.4417075572354,677.8212170170723,0.7825687574248287,813.7046222048781,714.1175039999999,84.01978618913675,80.03798128541506,355.7095639669999,443.69339756393725,442.6093677406852,205.0,313.73861018515885,451.48934653514124,0.6948970393053102,892.0291312941175,714.1175039999999,84.01978618913675,77.7942334012689,558.8626197214447,717.3589204595529,715.4315020239476,187.0,507.2493572016111,704.2754434545539,0.720242856564036,deceptive
1783334063102575697,1783334073102575697,1218.200448,1218.2004479999998,33.21712477244941,65.97430646743878,598.0075498397787,848.3162678989322,845.196275347109,137.0,599.8501856221989,731.6528799473542,0.8198562488612917,1309.491059905512,1302.2142720000002,54.936014046743246,61.49406721641804,617.5112334915673,916.3782151384662,912.7464835649699,127.0,647.9772500560343,743.4399697900723,0.8715932373652252,840.1382399999999,714.1175039999999,95.22242434768829,80.29634922907972,521.4638685793157,703.3860972940874,701.6090807037407,198.0,497.36907918898993,648.1983739572013,0.7673099766551247,811.4505927804877,714.1175039999999,43.282920158040135,80.17634567888766,344.0223512828511,437.1728760615213,436.1125026825808,205.0,309.1279052139278,434.6524191505061,0.7112071429812675,889.5581364705881,714.1175039999999,95.22242434768829,78.18079875466317,568.502468748002,729.9255854184805,727.9721260454294,187.0,516.135331210968,716.3743950498357,0.7204826621072383,deceptive
1783334064102575697,1783334074102575697,1257.3432523636363,1218.2004479999998,51.01201304340445,64.57953901817595,630.2467476763328,864.2207271565215,860.9168111677106,132.0,611.0963366143454,779.5527946210274,0.7839062868236197,1264.0261701818183,1260.20736,52.90134685982684,63.911021148646064,610.2287883582682,912.0101984904759,908.5409097148447,132.0,644.8885958639047,732.6784408898222,0.8801795711099419,860.9251655257731,714.1175039999999,44.63551141297889,79.24586430268035,539.1774570440049,731.3345509187537,729.4447473959412,194.0,517.1316202706691,669.1129232252174,0.7728615041210425,818.7229515294116,714.1175039999999,84.01978618913675,79.76829258386859,350.1290851949201,450.066531089098,448.9566242673525,204.0,318.2450961182073,441.0677748342308,0.7215333204467619,893.1523107593583,714.1175039999999,44.63551141297889,77.88167475847112,568.393854531151,732.0233759698438,730.0607789624311,187.0,517.6186931353461,715.6665368703406,0.7232679837161712,deceptive
1783334065102575697,1783334075102575697,1218.200448,1218.2004479999998,40.80961043472355,66.78183592497483,599.2375388495398,843.5532718968262,840.4260158512814,136.0,596.4822388503453,735.0345061974623,0.8115023632510991,1316.8833523809526,1323.217728,33.21712477244941,60.09065093259264,602.6858594112209,899.325861565938,895.7229105968628,126.0,635.919415209709,724.0605906608608,0.8782682325374123,848.0681162448977,714.1175039999999,84.01978618913675,80.10256027445995,533.7291450448415,720.2683709687914,718.4192843437968,196.0,509.30664938622016,663.3528239075234,0.7677764095223351,814.8105430588234,714.1175039999999,84.01978618913675,80.05207153343417,348.1854508355628,445.22677207050543,444.12899338241004,204.0,314.82286969685174,439.2146362600497,0.7167859258461774,874.8492146526313,714.1175039999999,84.01978618913675,78.67629497245346,538.6383848894733,678.6699468665263,676.8722884871545,190.0,479.8921216168347,681.9929582904264,0.703661402633534,deceptive
1783334066102575697,1783334076102575697,1178.5939309714283,1134.186624,40.80961043472355,68.33123562876439,607.0625687575595,834.9273874382856,831.9309806917904,140.0,590.3828174559795,750.1826372287104,0.7869854461534115,1277.9290259999998,1281.2108160000002,47.611212173844145,61.27884054143146,583.5098456199837,852.0555602959776,848.7108814485543,128.0,602.4942646329889,706.7303661320146,0.8525093777001301,857.0276169896905,714.1175039999999,84.01978618913675,79.4967512514436,538.0073688115847,729.3788100324439,727.48680617482,194.0,515.7487026277157,667.7615559913907,0.7723545897487474,815.0164592941175,714.1175039999999,84.01978618913675,80.01031333359887,347.98818219878706,444.9226963004476,443.8255229039406,204.0,314.60785565784937,438.9789271470982,0.7166809981118453,875.0703036631577,714.1175039999999,84.01978618913675,78.63145985263033,538.4766587361927,678.4556563830481,676.6584562012567,190.0,479.74059536282346,681.7908070573042,0.7036477910775079,deceptive
1783334067102575697,1783334077102575697,1180.960277787234,1134.186624,28.566727304306497,68.84196130626637,623.8130932881793,877.0636496637277,873.9269536193317,141.0,620.1776542094442,765.4902934232209,0.8101705005768938,1259.2526574545454,1302.2142720000002,51.01201304340445,62.38017955030798,574.2474579081377,827.464499210083,824.3331810923074,132.0,585.1057585825803,698.8175094147745,0.837279762884845,848.0681162448977,714.1175039999999,84.01978618913675,80.04570164647623,533.084483239874,726.2859797190425,724.4213463363061,196.0,513.5617413400503,660.6703424992942,0.7773343349986971,803.0016946086954,714.1175039999999,84.01978618913675,80.78814536479328,339.4186123188278,433.1736831258669,432.1210597370028,207.0,306.3000487698532,428.3691501948643,0.7150375993007851,865.7362019999999,714.1175039999999,84.01978618913675,79.15618818796302,533.1700264074851,674.4486508509942,672.6807973915027,192.0,476.90721457885616,674.4036687771169,0.7071539445264626,truth
1783334068102575697,1783334078102575697,1200.067968,1176.193536,42.009893094568376,67.76131473000568,637.0673737597965,906.5612502340446,903.2724823763847,139.0,641.0356076014475,778.6182327122388,0.8232989938708012,1265.3379752061069,1302.2142720000002,40.80961043472355,61.81540244447682,580.2903631868122,816.5237121708119,813.3936048046401,131.0,577.3694538755938,711.8961076453952,0.8110304968308508,816.1044346268656,714.1175039999999,31.050790548159227,80.99695980854885,409.05764921417085,553.5872521607863,552.2351417959953,201.0,391.44529998131924,507.9779614535603,0.7705950448346477,799.7469784615384,714.1175039999999,12.313244527718316,81.54064357917626,410.31344801459693,471.63285892684615,470.7936645124368,208.0,333.4947927775712,530.1932316037023,0.629006130027033,868.7386907234044,714.1175039999999,49.252978110873265,78.9548603524744,535.5675453525184,681.0790652606009,679.2609059223828,188.0,481.59562556996605,676.5338261948034,0.7118574222352243,truth
1783334069102575697,1783334079102575697,1210.2861022608695,1176.193536,32.4621901185301,67.00189487641173,647.1073237363655,923.2950373095283,919.9193801782719,138.0,652.8681819174539,790.1755155573867,0.8262318549024178,1284.7652470153846,1323.217728,59.51401521730519,60.65055400301659,579.9880201902689,818.4775099879062,815.3499266411033,130.0,578.7509975611287,710.8416480056967,0.8141771084809742,811.7217995294116,714.1175039999999,84.01978618913675,80.92816826274479,401.7564600866003,506.96855451613277,505.71849124328935,204.0,358.48090274669937,508.4901450624072,0.7049908562194511,808.78673982439,714.1175039999999,64.9243802370602,81.27133469155953,431.99543813207026,458.3528338689705,457.2303119693059,205.0,324.1043970048201,566.3199511362016,0.5722990976294813,854.2856455958548,714.1175039999999,29.149721739088253,79.49127461972061,528.5676367745883,721.2297252976211,719.3875314819753,193.0,509.98642955125877,654.7705049310986,0.7788781347213014,truth
1783334070102575697,1783334080102575697,1208.1553168695652,1176.193536,38.603685546360126,66.18244000928061,633.753218171188,882.9602809888664,879.7473385829927,138.0,624.3472022056069,779.9881849321118,0.8004572559774716,1241.0848105074624,1239.203904,46.07536661984918,62.52899127340381,568.7517607498249,810.1504772182453,807.0990521488238,134.0,572.8628962225388,694.8893305971927,0.8243944337585618,811.7217995294117,714.1175039999999,84.01978618913675,80.88104131477603,425.626184040798,557.5665906493514,556.191732444967,204.0,394.25911721122026,533.4746210741212,0.7390400623321156,823.8370502686568,714.1175039999999,84.01978618913675,80.67366585219654,464.3211110755748,515.5964140231057,514.3059792582467,201.0,364.5817207112048,603.9273738145515,0.6036847086569671,849.1858825846152,714.1175039999999,84.01978618913675,79.6580757974602,520.8814641406547,686.4051205254602,684.6338864844948,195.0,485.3617153647224,651.8028858479619,0.7446449316242162,truth
1783334071102575697,1783334081102575697,1257.343252363636,1218.2004479999998,52.90134685982684,65.03365254176927,671.1919283966057,919.31397557691,915.7989269400061,132.0,650.0531461699971,830.4894117728129,0.7827350198027864,1228.3933016470587,1197.196992,68.01601739120593,62.771092644471146,556.3103531099946,773.2617694031105,770.4151982949567,136.0,546.7786407772479,685.1853595558113,0.7980010564319573,802.7763230769231,714.1175039999999,89.27102282595779,81.31280335868206,413.57024659473393,537.2259179751226,535.9267382472792,208.0,379.87608962937713,519.5457400468266,0.7311696744835958,818.5170352941176,714.1175039999999,89.27102282595779,80.98033906757838,459.5668250868177,507.5283784893207,506.27680758243207,204.0,358.8767580744113,598.3369198852396,0.5997904293508138,830.7337074626865,714.1175039999999,43.282920158040135,79.99720138256636,458.2694712955821,568.6623546821728,567.2488718196864,201.0,402.105007201274,582.3895588305961,0.6904399316647729,truth
1783334072102575697,1783334082102575697,1222.8335632941178,1134.186624,84.01978618913675,66.6164459589,658.7469755888899,868.4034840904728,865.1867920558492,136.0,614.0539924063975,824.2354050269261,0.7449983204571727,1214.2143906569343,1134.186624,51.01201304340445,62.79519395733329,553.2394273791431,768.2657342775516,765.436265895861,137.0,543.2459104609189,681.60814871695,0.7970061852745125,793.828180917073,714.1175039999999,84.01978618913675,81.1878599381974,346.4334370031789,427.3824827379842,426.3337395164462,205.0,302.2050517043712,440.87221040778945,0.6854708565659955,835.283169768844,714.1175039999999,84.01978618913675,80.483373948151,491.42757197521183,565.9448747219427,564.5140714050343,199.0,400.18345869365686,634.7666631833268,0.6304418330457912,844.8533015510203,714.1175039999999,84.01978618913675,79.49246105680385,478.8346772326304,602.8346197370454,601.387264066577,196.0,426.2684475500785,606.3933554653923,0.7029569893999378,truth
1783334073102575697,1783334083102575697,1222.2158145882354,1134.186624,43.282920158040135,67.45735426156422,679.9581620342449,913.9548482446206,910.5661435401879,136.0,646.2636708920932,846.0838244976173,0.7638293655783194,1226.5400555294118,1176.193536,34.00800869560297,62.41344600453038,546.576006712631,769.0477043645989,766.2472208966127,136.0,543.7988468121551,670.546097841705,0.8109790640233195,803.0253371650483,714.1175039999999,84.01978618913675,81.1180712778109,389.37046663562916,507.47766905714207,506.2384469716321,206.0,358.8409010910477,488.7078108933575,0.7342647141961715,823.0010918208953,714.1175039999999,84.01978618913675,81.05381357513855,481.03460358523483,551.2564434112601,549.8895717994036,201.0,389.7971693088803,621.9466722253605,0.6267372858739864,852.6326035692306,714.1175039999999,84.01978618913675,79.31256197507815,492.01809719683985,634.8016317032367,633.16376443572,195.0,448.87253848564393,619.2094460157443,0.724912291590317,truth
1783334074102575697,1783334084102575697,1199.4635519999997,1134.186624,40.80961043472355,68.03597896393862,653.007784872714,909.378285959274,906.0922233087151,139.0,643.027552665602,803.8010434586289,0.7999834758844752,1229.4022912,1176.193536,84.01978618913675,62.863781634730294,560.6112586329466,784.491529326285,781.5590919247574,135.0,554.7192801700214,688.9943589869657,0.8051144003350476,822.8779741782178,714.1175039999999,89.27102282595779,80.25390232039365,417.39490390730714,551.3716844246565,549.9984425851528,202.0,389.8786570109237,521.9524193058785,0.7469620651043367,843.7632019492385,714.1175039999999,44.63551141297889,80.07538372640147,502.91651879181177,564.0300794331156,562.5985723839951,197.0,398.8294939603431,652.9299863852309,0.6108304140974655,875.9219057777777,714.1175039999999,89.27102282595779,78.17443430138448,513.3620629001324,670.2617856146967,668.4768350066973,189.0,473.94665377835594,644.0252323754937,0.7359131753738885,truth
1783334075102575697,1783334085102575697,1192.6962514285715,1134.186624,178.54204565191557,67.95697715150692,636.781271835201,862.5474608897539,859.4391716421355,140.0,609.9131586903834,790.5591348838313,0.7714959346842625,1183.994819657143,1134.186624,32.4621901185301,64.72092893423998,536.1209807024435,761.1693266921664,758.4880177579204,140.0,538.2279925352293,655.7489808794583,0.8207835745522386,839.504969969849,714.1175039999999,25.96975209482408,79.2615013669096,422.7649802399785,554.2442455435131,552.9016463873811,199.0,391.90986445744005,529.7771098349704,0.7397636802003827,855.648484430769,714.1175039999999,84.01978618913675,79.31480661783473,508.90846396848394,571.1397052252654,569.6657938514177,195.0,403.856758569671,660.6250893482041,0.6113251904618552,905.2258728791206,714.1175039999999,84.01978618913675,76.61438731790406,534.8161702803038,709.4208972668996,707.4584567238835,182.0,501.6363271728698,668.0098574249025,0.7509415042266253,truth
1783334076102575697,1783334086102575697,1237.3229974925373,1218.2004479999998,47.611212173844145,65.59329640743131,657.1310098571754,925.9078622923431,922.4420668791522,134.0,654.7157281808558,805.8014556130612,0.8125025384605963,1231.2692650666668,1176.193536,47.611212173844145,63.37915336365108,597.4596108087821,839.0710080162199,835.9427472691581,135.0,593.3127996653011,733.42070735167,0.8089665231947315,860.9251655257731,714.1175039999999,84.01978618913675,78.35236316732879,448.84216829639064,597.7995858911108,596.2488709939629,194.0,422.70814097411443,559.979908442361,0.7548630488367316,879.0499058526315,714.1175039999999,84.01978618913675,77.7249964974531,494.27262734043023,589.9452314832383,588.382459912892,190.0,417.15427371046536,633.7207715063241,0.6582619545812101,954.39704064,714.1175039999999,84.01978618913675,74.84150129416608,612.4855012142003,837.950059707722,835.5386876299922,175.0,592.5201695150025,758.1140433695821,0.7815712882476545,truth
1783334077102575697,1783334087102575697,1200.067968,1134.186624,59.51401521730519,66.57857127457632,630.2670263403161,866.764616829902,863.6289697977406,139.0,612.8951382529832,778.8792099784521,0.7868936934007252,1231.8915896888889,1176.193536,54.936014046743246,63.51064707147132,611.7338449843758,870.7146657370472,867.4760161608018,135.0,615.688244621244,747.5965401982156,0.8235568405091899,874.4070366315789,714.1175039999999,95.22242434768829,77.53709411888592,455.6008434837127,613.1953510023052,611.5840748343118,190.0,433.5945908857952,566.6940290345672,0.765129979619649,888.4349570053475,714.1175039999999,95.22242434768829,77.11997363463871,486.8092574061188,618.9026267135633,617.2500544861806,187.0,437.6302442433271,614.9848704271972,0.7116113993817909,988.5295208520708,714.1175039999999,64.9243802370602,73.33106772319641,638.1212573174228,880.0061578589995,877.3874939491973,169.0,622.258321708018,787.9053043439277,0.7897628284482227,truth
1783334078102575697,1783334088102575697,1256.4172626766917,1218.2004479999998,46.07536661984918,64.8186243870606,684.0469523101674,900.879702395183,897.4989321949554,133.0,637.0181465969528,856.1217240455638,0.7440742697040239,1222.8678826666667,1176.193536,36.6240093644955,63.66124984019764,599.1587476250602,848.7134714083326,845.5830624029805,135.0,600.131050917207,733.4192324815089,0.8182646763798052,876.1757487157893,714.1175039999999,46.07536661984918,76.7025300950939,398.9944547949602,552.5711072652967,551.118813439983,190.0,390.7267770350504,491.995368645027,0.7941675916810479,890.2320441497326,714.1175039999999,89.27102282595779,76.69878107775642,455.178091182829,590.6779719931919,589.0880313188542,187.0,417.67239949390364,571.9694683601477,0.730235480385661,962.2739436763005,714.1175039999999,89.27102282595779,73.67334933155954,554.3546790567492,760.8927790735348,758.6776964220347,173.0,538.032443838774,685.4770346792525,0.7849022164404523,truth
1783334079102575697,1783334089102575697,1211.4548124963503,1134.186624,44.63551141297889,66.58043777733205,664.6413082621775,889.7432606894101,886.4661642835239,137.0,629.143493148512,828.000827180361,0.7598343775705765,1235.3143751111113,1260.20736,47.611212173844145,63.224902237034094,597.8744876382291,855.4000123812593,852.2069144141486,135.0,604.8591493818451,729.3699408680654,0.8292899329823864,890.275522064516,714.1175039999999,84.01978618913675,76.30149598864028,422.18719836967136,578.909373758757,577.342633744582,186.0,409.3507438772747,522.2068988227037,0.7838861278932563,879.7131728842104,714.1175039999999,84.01978618913675,77.2378489067304,442.2258947598646,577.2872886468646,575.7752074827234,190.0,408.20375649499374,554.8083728495936,0.73575630158281,946.2356977371426,714.1175039999999,84.01978618913675,73.7224151651479,507.1080443084494,718.4251818180605,716.3577669365839,175.0,508.00331783872895,620.7120521925624,0.8184202579026643,truth
1783334080102575697,1783334090102575697,1220.6534063649635,1134.186624,62.101581096318455,66.37571192125276,666.0167985538868,913.2309122228951,909.868561701001,137.0,645.7517708219859,823.8076700007545,0.7838622949715854,1252.5697396363637,1260.20736,33.21712477244941,63.17722532556926,637.2105097656578,914.2704505614446,910.7990774230761,132.0,646.4868354304776,776.5963258470659,0.8324618774436353,935.2437767191009,714.1175039999999,43.282920158040135,74.35091183181893,471.04612498167387,631.6465752364961,629.8742219401408,178.0,446.6415766629852,586.5360642948589,0.7614903905353942,909.6906680655736,714.1175039999999,84.01978618913675,75.49842899543587,450.27278494196497,588.0136933974658,586.3962277519036,183.0,415.78847003189543,564.8461169319073,0.7361092828084699,985.0496583195264,714.1175039999999,19.838005072435063,71.87910659283298,540.5786679338516,750.0748980582994,747.974998905358,169.0,530.3830468148318,666.1812848436849,0.7961542284083869,truth
1783334081102575697,1783334091102575697,1207.5465210434784,1134.186624,39.676010144870126,66.38177036693668,640.7969985099281,899.1781513663199,895.9158642500075,138.0,635.8149683259086,786.8362279566362,0.8080651929018059,1301.229735,1302.2142720000002,43.282920158040135,62.896647487701514,707.3920620798561,1041.1943658035498,1037.0923487669113,128.0,736.2355965929169,854.2749160205501,0.8618251370677098,970.0894472982454,714.1175039999999,26.45067342991342,72.40223888478276,489.56796555007304,647.3010133420636,645.4591333528818,171.0,457.71093600309706,612.0489648036826,0.7478338537014108,909.6830165333333,714.1175039999999,84.01978618913675,74.86275120846882,426.0881864486479,566.6604425022555,565.0754239528443,180.0,400.6894415235145,531.8141319934837,0.7534388753859294,1008.1658879999999,714.1175039999999,84.01978618913675,69.94419534917895,526.8001820205448,764.6573901916372,762.293683175592,163.0,540.6944258889146,639.4228901596241,0.8455975446139202,truth
1783334082102575697,1783334092102575697,1242.3387481791046,1260.20736,109.87202809348649,64.91127025802226,669.7252476090353,960.6788361376886,957.1013051140308,134.0,679.3025195753597,816.2952027417846,0.8321775226581122,1320.5506224761907,1302.2142720000002,29.757007608652597,63.627815143931024,759.1893022958607,1122.618944669819,1118.122683919118,126.0,793.8114684645145,915.2423010919333,0.8673238414761367,964.449392372093,714.1175039999999,84.01978618913675,72.37002430775759,470.08766162171656,640.9324275339743,639.0556081972125,172.0,453.20766579162876,582.4656428080532,0.7780848044645607,901.5505189565217,714.1175039999999,84.01978618913675,74.9768499522203,409.30004491172247,531.2223338213463,529.7689184196686,184.0,375.6309145628178,514.2992917959606,0.7303741625836089,991.4131314285713,714.1175039999999,84.01978618913675,70.46883092191831,484.06854988482195,686.2204320395487,684.1628411677943,168.0,485.23112088392725,592.3850957257893,0.8191143301629202,truth
1783334083102575697,1783334093102575697,1219.7335469781024,1218.2004479999998,46.07536661984918,65.19143948446616,642.1864887429434,931.4133359937579,927.9839894049102,137.0,658.6086859687704,779.6949865371882,0.844700424320809,1319.4302195409834,1386.228096,37.587799084613806,64.2362013959893,763.6427674872635,1131.0665304415702,1126.4065983238818,122.0,799.7848136483749,920.0394983911999,0.8692939977543302,934.2998011685391,714.1175039999999,84.01978618913675,73.73945624805656,439.5370221221909,578.2605946691124,576.6357652088652,178.0,408.8919877834949,550.2628997082375,0.7430847836557748,878.3263418181817,714.1175039999999,84.01978618913675,76.01873173659328,378.85752722095384,483.3315125619246,482.0719603618436,187.0,341.76699009368787,478.1879485151232,0.7147126797213275,970.3596671999999,714.1175039999999,84.01978618913675,71.1630613983498,459.72339527614025,652.1065335736068,650.1743618197147,170.0,461.1089519459504,562.4770817963148,0.8197826486963037,truth
1783334084102575697,1783334094102575697,1206.9377252173913,1134.186624,24.626489055436632,66.95510094794483,652.0246645740621,933.2302342230324,929.8764872990707,138.0,659.8934270274162,795.3255050033555,0.8297149065081625,1377.8961465123964,1386.228096,25.96975209482408,61.13435203068842,773.745194678793,1159.4830248243072,1154.655322800429,121.0,819.8783095239577,928.042580576514,0.8834490212880501,916.493345237569,714.1175039999999,84.01978618913675,74.464496817247,419.5435113658938,533.4793746686966,531.9954236031533,181.0,377.22688345139426,529.9843913354636,0.7117697985422772,862.7740889533677,714.1175039999999,84.01978618913675,76.91914257871373,366.6336409947181,475.6812291055472,474.44106051478445,193.0,336.3574227836841,460.7301764452234,0.7300529463445595,940.7649670508473,714.1175039999999,84.01978618913675,72.85822013213283,446.07139906946253,619.3459093634419,617.5840819964079,177.0,437.9436924110386,549.6017169498912,0.7968382901739866,truth
1783334085102575697,1783334095102575697,1237.949966328358,1155.1900799999999,59.51401521730519,65.40274930962161,689.3917732520583,992.5962508138797,988.8594610834822,134.0,701.8715399308375,839.1723331788246,0.8363854624140369,1412.215422915254,1407.231552,22.672005797068646,62.158444644618285,832.2549282242376,1226.8274732685863,1221.6620595064778,118.0,867.4980256941752,1004.4999347015488,0.8636118288568343,905.0997487213112,714.1175039999999,84.01978618913675,75.03107385369088,406.0962583998055,499.3047340053164,497.94845981368195,183.0,353.06176329370453,517.2059916731565,0.6826327787726376,872.365765079365,714.1175039999999,46.07536661984918,76.3289052113431,372.0782290059277,476.0965808737727,474.82915142672437,189.0,336.6511208355742,469.2732982180544,0.717388187467561,905.0997487213112,714.1175039999999,84.01978618913675,74.37483276654736,383.85665099543786,510.7499046724469,509.3448128640057,183.0,361.1547210842699,479.0360015136006,0.753919788790689,truth
1783334086102575697,1783334096102575697,1231.9937623880596,1134.186624,26.949742739911784,65.58749833109782,669.852007376572,926.0380100923658,922.5786956672627,134.0,654.8077565728084,826.448319339382,0.7923154312858017,1404.179767794872,1428.2350079999999,31.7408081158961,63.81802561972909,811.181646107083,1241.3212276731065,1235.9896807156788,117.0,877.7466577184638,964.7858458715212,0.9097839292258354,908.313392262295,714.1175039999999,44.63551141297889,74.59366177410061,399.7148413431532,492.6727856828749,491.33309211519014,183.0,348.3722676624274,508.78511214640827,0.684713957514896,867.7743663157894,714.1175039999999,28.006595396378913,76.479094096482,359.1901690477751,455.66493831242525,454.5283080398335,190.0,322.20376782966576,454.01268823604687,0.7096800952447126,893.6631762580644,714.1175039999999,44.63551141297889,74.77827207489166,367.5988016578509,474.0867276633317,472.8495283887986,186.0,335.2299400012818,462.6750497097769,0.7245472610022134,truth
1783334087102575697,1783334097102575697,1230.112855880597,1218.2004479999998,52.90134685982684,65.89337679156836,653.6287186888117,932.2376463323753,928.7419017708178,134.0,659.1915613990091,798.2444778886501,0.8258015929437623,1394.7000782521009,1428.2350079999999,79.35202028974025,63.313551965531595,805.7131412587415,1220.889862848451,1215.7244095376739,119.0,863.2995011020537,962.135290742695,0.8972745407100204,922.5184618666665,714.1175039999999,84.01978618913675,73.98042650473197,435.5847769349576,547.7987716201742,546.2793687010324,180.0,387.3522261382861,551.7674530522895,0.7020207951656361,879.9107417872339,714.1175039999999,84.01978618913675,76.1808090909469,399.0505077070841,529.4565129312598,528.0544372063669,188.0,374.38229063707684,498.39900243803737,0.751169823385875,880.797336641711,714.1175039999999,89.27102282595779,75.36269149499556,349.25911112258444,479.8476057771144,478.5561675915662,187.0,339.30349598112673,431.74115186274327,0.785895656499745,truth
1783334088102575697,1783334098102575697,1216.0541094306568,1218.2004479999998,129.8487604741204,65.63970024025933,609.0857635641548,881.7253207229753,878.497304836156,137.0,623.4739534270993,740.0074658083191,0.8425238693316035,1401.0540649411762,1386.228096,129.8487604741204,63.98471266485566,844.622228163695,1275.882795480378,1270.4891490422833,119.0,902.1853766834241,1009.8535486226227,0.8933823898662818,958.6749859310343,714.1175039999999,84.01978618913675,74.11267052429841,600.4500920911393,803.7863037393754,801.4598919265528,174.0,568.3627459989824,748.039117068595,0.759803508974603,877.9444607999999,714.1175039999999,84.01978618913675,76.47766937739803,407.72004500801404,553.8465639113336,552.3794628331377,190.0,391.6286610785726,505.7516842419571,0.7743496923110852,892.0291312941175,714.1175039999999,84.01978618913675,75.17305189865272,383.6871192792837,521.5462517319495,520.1533878509695,187.0,368.7888913020876,475.8455503918883,0.7750180515471188,truth
1783334089102575697,1783334099102575697,1226.5400555294118,1218.2004479999998,49.252978110873265,65.01449379202776,607.5735048497984,883.3164853888775,880.0608656448287,136.0,624.5990767523432,737.040788729495,0.8474416698552356,1379.631969322314,1386.228096,46.07536661984918,65.76004941553106,849.2603702198318,1272.564067696977,1267.2762008883064,121.0,899.8386817628692,1018.6420010256215,0.8833708808952164,933.2735648914284,714.1175039999999,84.01978618913675,75.32987019372045,587.1626706192486,786.5388633984065,784.275586145344,175.0,556.1669639757728,731.34065771598,0.7604759261063305,888.4349570053475,714.1175039999999,84.01978618913675,76.2512145545943,449.3754574883675,593.3400412617294,591.7553466118877,187.0,419.55476672567477,562.0173506615623,0.7465156836026648,885.963962181818,714.1175039999999,84.01978618913675,76.01006296987751,414.69872228570154,569.1348669781257,567.6158573925161,187.0,402.4391238499364,512.807406662808,0.7847763480424078,truth
1783334090102575697,1783334100102575697,1216.0696626086956,1218.2004479999998,43.282920158040135,65.29661576519335,604.2851819733245,881.3757977414908,878.2013823326338,138.0,623.2268033567111,732.1989743873966,0.8511713689276083,1349.9801961290325,1365.22464,52.90134685982684,66.34047478984544,813.7748245371542,1217.0045423564206,1212.0611783018092,124.0,860.552164635056,976.8233801828824,0.8809700730893052,926.7626630508473,714.1175039999999,84.01978618913675,76.01451595189701,597.3184656799733,802.4718206016853,800.1888235983532,177.0,567.4332660585663,743.362928299232,0.7633327469757178,898.180048516129,714.1175039999999,62.101581096318455,76.41978086538775,484.0819525113702,660.450452217234,658.6644412761652,186.0,467.008993400528,599.6848952041012,0.7787573059374503,875.5124816842105,714.1175039999999,84.01978618913675,76.41924025396288,399.58019079653076,553.5483410142677,552.0835958116413,190.0,391.41778564575225,492.6710020836134,0.7944810715271668,truth
1783334091102575697,1783334101102575697,1212.0229609411765,1218.2004479999998,24.20909093585296,65.13758961340055,581.245278809645,855.5537663178745,852.4018765871815,136.0,604.9678698330599,701.9252713158494,0.861869339308684,1322.884339809524,1344.221184,40.80961043472355,67.26800772371541,778.9625850472065,1144.0231715368427,1139.4641049720665,126.0,808.9465424282423,941.4712760108769,0.8592365620073326,912.6117035604394,714.1175039999999,84.01978618913675,76.89301470169019,592.1629162628878,797.589211157132,795.3904927049283,182.0,563.9807398104372,736.3943925339001,0.7658677816241982,911.5270358032784,714.1175039999999,84.01978618913675,76.28317487586229,521.3894248302831,727.0985243391514,725.0982495057497,183.0,514.1362971509459,641.5027658753032,0.8014560879553322,873.3478929424084,714.1175039999999,84.01978618913675,77.18788036126918,426.64613508625774,585.4554824044743,583.9127775295821,191.0,413.9795416910452,527.6024248415835,0.7846429853224152,truth
1783334092102575697,1783334102102575697,1240.771326089552,1239.203904,36.6240093644955,64.95271875874232,646.7324361676536,917.8200683687115,914.402872283012,134.0,648.9967942526166,791.155653779716,0.8203149293720637,1320.2172342857143,1344.221184,29.757007608652597,66.42579287942563,737.858143918476,1068.7969416109477,1064.5251040436683,126.0,755.7535651245435,896.263106177203,0.8432273513388613,938.0757033707864,714.1175039999999,84.01978618913675,75.73001852484138,616.5282322215608,842.1288233671202,839.7465588394633,178.0,595.475001635539,763.4912464894819,0.7799369074282405,917.4586549450548,714.1175039999999,84.01978618913675,75.39697974887349,495.680962914398,688.7368823984829,686.8316591569678,182.0,487.01051999724893,610.5813710698143,0.797617718247686,893.8890198709677,714.1175039999999,43.282920158040135,75.92640592234487,439.93809126951027,596.8264899706104,595.2223471817144,186.0,422.0200582499836,545.9309329183135,0.773028294978716,truth
1783334093102575697,1783334103102575697,1255.4697383458647,1260.20736,42.009893094568376,63.600864752100996,644.3616441534591,911.1028236574174,907.6518658867313,133.0,644.246984966371,789.2254228629286,0.8163028791309764,1361.0928125901637,1344.221184,16.04872320466657,63.80092759748623,755.0949477056537,1055.1876535085587,1050.9293462365388,122.0,746.1303452202229,928.4295956463168,0.8036477388474588,937.839709483146,714.1175039999999,84.01978618913675,75.64357494688907,615.2790909727129,839.7323933917728,837.3569080289717,178.0,593.7804697493322,762.1345658402768,0.7791018756571826,917.2278477362636,714.1175039999999,84.01978618913675,75.55100446828236,504.7309554695006,708.0653763667241,706.1066855429249,182.0,500.6778291523156,619.8124962567085,0.8077891816897949,907.2579798260869,714.1175039999999,84.01978618913675,75.06986572292747,444.71376694189485,604.1335372269274,602.4806379947747,184.0,427.18692091537594,551.6306158243215,0.7744075630701084,truth
1783334094102575697,1783334104102575697,1287.5606980465116,1302.2142720000002,28.006595396378913,61.04826871167756,648.2138155470818,886.8743358755414,883.4959027860145,129.0,627.1148569579111,802.3252329470523,0.7816217553752247,1350.027017365854,1344.221184,33.21712477244941,64.3646524238642,731.5920786318659,1025.1564389371079,1021.0174560775419,123.0,724.8950697494818,898.7310542983565,0.8065761901544736,954.1570011428571,714.1175039999999,42.009893094568376,74.73118501335387,623.5489739015535,850.2812568362352,847.8344335973482,175.0,601.2396426247224,772.5814466938799,0.7782216945509328,928.8455737206701,714.1175039999999,84.01978618913675,75.42413610333291,540.9442314892378,769.0860559375691,766.9226953990539,179.0,543.8259654694715,661.3380246164309,0.8223116548982419,923.6853205333334,714.1175039999999,84.01978618913675,74.37172803411035,459.5836463932432,628.4416203230455,626.683782161101,180.0,444.37533131028715,568.9459891111418,0.7810501169092166,truth
1783334095102575697,1783334105102575697,1229.3199247058822,1260.20736,142.83363652153247,64.19151019322717,608.485320717676,842.7234116925631,839.6324489929872,136.0,595.895439072474,750.3086590891097,0.7942004025328768,1282.6761733953485,1302.2142720000002,102.0240260868089,65.37163356681333,665.6813048151616,926.3707168818598,922.8010674364774,129.0,655.0430157998064,819.5868000930589,0.7992356828165491,965.4305324393064,714.1175039999999,84.01978618913675,74.4426859456922,639.8859216719081,871.381821941385,868.8450426956506,173.0,616.159995297442,793.1465284582306,0.7768551877736559,943.6128932881356,714.1175039999999,42.009893094568376,75.3828675555679,593.8818669244005,835.7421649035633,833.3743927218753,177.0,590.9589521268355,728.5431367968536,0.8111516288864828,948.9743301818181,714.1175039999999,84.01978618913675,72.99754702478491,475.55668099173386,659.9907188779674,658.1023295457924,176.0,466.6839128387951,586.0131196658343,0.7963711001980894,truth
1783334096102575697,1783334106102575697,1233.95304,1281.2108160000002,46.07536661984918,64.16669066780575,614.3791783997768,858.0265623530693,854.8441951280406,136.0,606.7164006780373,755.5601592702683,0.8030021080836415,1269.5781326769231,1239.203904,39.676010144870126,64.38672643628685,648.773938264789,909.6222506801853,906.1028893282268,130.0,643.2000617741287,796.8450829427807,0.8071833227592561,961.3026855953756,714.1175039999999,84.01978618913675,74.57616793883817,632.0519368099941,872.5651131308983,870.0250261852467,173.0,616.9967085216653,780.1518009254643,0.7908675052595477,955.7779575172412,714.1175039999999,84.01978618913675,74.92145856340119,603.4737923166033,834.1330943210547,831.7189529022568,174.0,589.8211674065359,744.5916540396898,0.7921404493409698,955.7779575172412,714.1175039999999,84.01978618913675,72.30825589803808,471.20587462943473,653.1518645754792,651.2618139748024,174.0,461.84811258595886,580.8770205654333,0.7950875938187223,truth
1783334097102575697,1783334107102575697,1280.241425723077,1281.2108160000002,30.39013543011329,61.456746382242535,648.962614975811,872.2046448903968,868.8174906143777,130.0,616.7418189844043,807.539296647779,0.7637297919056018,1217.5781233777777,1176.193536,33.21712477244941,67.92108537364673,612.748100063471,847.9809354039404,844.8118327175027,135.0,599.613069741038,755.7463539843587,0.7934051769880558,954.6370801371428,714.1175039999999,79.35202028974025,74.43646942085549,574.6550563429115,707.8799819338956,706.1272763987292,175.0,500.5467354916683,731.5622669023236,0.6842161742583425,960.1235001379307,714.1175039999999,79.35202028974025,75.15555386353579,659.5443831862412,932.9632285996843,930.2629269015953,174.0,659.7046255405319,807.7081714983774,0.8167611135055319,933.3044079553073,714.1175039999999,79.35202028974025,73.71513502152708,469.3401379767918,659.480113428446,657.6403181307077,179.0,466.3228602629277,576.0484573629627,0.809520196265541,truth
1783334098102575697,1783334108102575697,1261.798530909091,1239.203904,178.54204565191557,63.61883659152938,669.9909772255903,885.2799695582274,881.9542602445765,132.0,625.987469723243,837.7622950468402,0.7472137065899382,1267.9032828091601,1302.2142720000002,47.611212173844145,65.10043779735933,619.9357053722752,835.1805358261055,831.9636705269718,131.0,590.5618203976535,770.8819142612865,0.7660859717581668,918.754527821229,714.1175039999999,95.22242434768829,75.0803476325654,472.80761136957733,620.1119153642724,618.3677547236122,179.0,438.4853404486554,592.4182457046912,0.7401617752793381,971.5951646117647,714.1175039999999,29.149721739088253,74.9925814973573,693.6328425069931,968.74258221183,965.9049774897949,170.0,685.0044491061515,853.0167013377003,0.8030375583876939,931.939862292135,714.1175039999999,29.149721739088253,73.74654286694614,461.7078342304444,637.3827298937488,635.6250345109082,178.0,450.69765051906336,569.8982911782006,0.790838747010974,truth
1783334099102575697,1783334109102575697,1269.2550025846156,1239.203904,34.00800869560297,63.57428476943611,676.2291537877595,893.818875409046,890.3486738112703,130.0,632.0253879542703,845.4842939733686,0.7475306075575403,1334.058221419355,1407.231552,30.39013543011329,62.0417947636566,642.7913726164304,837.8648986650322,834.5529043842978,124.0,592.4599515642237,806.7571507687355,0.73437211061555,922.2641128988762,714.1175039999999,84.01978618913675,74.21388672913848,449.28439436282736,600.1456054412531,598.4480657891911,178.0,424.3670273068162,560.0618243581088,0.7577146108703028,954.2610645086703,714.1175039999999,25.96975209482408,75.16244555178992,656.2558772559051,921.9475032667273,919.3103622922946,173.0,651.9153314579095,805.5102439888008,0.8093197278655258,938.1543679999996,714.1175039999999,52.90134685982684,72.98519282448842,436.6732298081404,606.2092349257827,604.4585962887911,174.0,428.65466083392977,538.0470333853912,0.7966862267353009,truth
1783334100102575697,1783334110102575697,1319.689147392,1260.20736,25.058532723075867,62.57060578932606,726.1554806895349,942.2057080405351,938.4694848956618,125.0,666.2400454281347,912.5051590017765,0.7301219492906316,1402.2476810847456,1470.2419200000002,75.17559816922761,59.13988769444923,682.839042155649,884.5729509508361,880.7849052586912,118.0,625.4875320715315,858.4410221999068,0.7286319221658457,931.4678745168538,714.1175039999999,84.01978618913675,73.49373661327309,437.6388864887317,579.7521115265266,578.1120739790626,178.0,409.94664946762657,546.8340353611208,0.7496728860282154,932.6958427118643,714.1175039999999,84.01978618913675,75.40059961973735,585.454129405201,805.3441391845473,803.0529705612918,177.0,569.4643020062362,723.441967019801,0.7871596174495218,917.150912,714.1175039999999,95.22242434768829,74.03265522322994,410.46674609871536,571.1646921442511,569.567218924164,180.0,403.8744269895268,505.37968193990076,0.7991505029233746,truth
1783334101102575697,1783334111102575697,1320.2172342857139,1260.20736,27.468007023371623,62.73635213665347,731.6910237926622,967.1444869500901,963.3715405110138,126.0,683.8744251095932,914.8231489954877,0.7475482292512106,1420.3362724102562,1512.248832,32.4621901185301,58.1191089400887,699.5026562242057,933.5176595227339,929.4862956648077,117.0,660.0966674059198,872.2064703779936,0.7568123945696591,931.467874516854,714.1175039999999,84.01978618913675,73.24176027820981,429.08108159588824,564.683756911636,563.0863456295284,178.0,399.2917137381138,537.1258817419197,0.7433857263463001,936.3940783542855,714.1175039999999,102.0240260868089,75.3057092432708,590.9363906713015,808.6733836263741,806.3543926716188,175.0,571.8184333272795,731.384628832749,0.781829984914875,934.4737623771426,714.1175039999999,79.35202028974025,73.5432163541391,458.0911748672714,658.0138335586498,656.1843967556337,175.0,465.28604382387755,558.0766055784065,0.833731497025649,truth
1783334102102575697,1783334112102575697,1328.090529792,1260.20736,27.468007023371623,61.63685628244967,722.8281209307073,911.6482678155062,908.0513385089273,125.0,644.6326722293143,914.9783296688951,0.704533267430048,1432.2184220689653,1533.2522880000001,31.7408081158961,58.66227375569545,710.098422146943,955.8100245266415,951.6453252567146,116.0,675.8597498688686,883.2249642784965,0.7652181235852817,908.7724841967212,714.1175039999999,79.35202028974025,74.23016676988968,397.1779331510841,505.44411205891976,504.05409227322133,183.0,357.40295914767535,501.6295281984271,0.7124838931058683,925.560116916201,714.1175039999999,84.01978618913675,76.14475731268762,593.3143633028785,813.4174575457869,811.1293588991313,179.0,575.1730001661465,733.9154429107874,0.7837047247363383,920.4181162666665,714.1175039999999,84.01978618913675,74.18838965906548,448.40752732589755,647.7450587197104,645.9331808804259,180.0,458.02492350078563,545.2019862868264,0.8401013477963054,truth
