window_start_ns,window_end_ns,red_Mean_NN,red_Median_NN,red_Heart_Rate,red_Mean_HR,red_SDNN,red_SDSD,red_RMSSD,red_NN_Count,red_SD1,red_SD2,red_SD1_SD2,infrared_Mean_NN,infrared_Median_NN,infrared_Heart_Rate,infrared_Mean_HR,infrared_SDNN,infrared_SDSD,infrared_RMSSD,infrared_NN_Count,infrared_SD1,infrared_SD2,infrared_SD1_SD2,ppg0_Mean_NN,ppg0_Median_NN,ppg0_Heart_Rate,ppg0_Mean_HR,ppg0_SDNN,ppg0_SDSD,ppg0_RMSSD,ppg0_NN_Count,ppg0_SD1,ppg0_SD2,ppg0_SD1_SD2,ppg1_Mean_NN,ppg1_Median_NN,ppg1_Heart_Rate,ppg1_Mean_HR,ppg1_SDNN,ppg1_SDSD,ppg1_RMSSD,ppg1_NN_Count,ppg1_SD1,ppg1_SD2,ppg1_SD1_SD2,ppg2_Mean_NN,ppg2_Median_NN,ppg2_Heart_Rate,ppg2_Mean_HR,ppg2_SDNN,ppg2_SDSD,ppg2_RMSSD,ppg2_NN_Count,ppg2_SD1,ppg2_SD2,ppg2_SD1_SD2,label
1783771453635041656,1783771463635041656,1434.1080937931033,1535.2752639999999,33.96319758777612,57.13866964975388,664.4153981514661,978.3291164475936,974.066224202355,116.0,691.783152472337,802.2553693053478,0.8622979402074107,1555.1271141682244,1682.49344,36.57575124837428,52.95016697809973,666.103574469357,953.8444569135938,949.4091652696601,107.0,674.4698836808018,812.3626849169718,0.8302570960035375,857.4245415384615,715.059712,38.552818883421544,77.5494099787948,410.8856734096218,569.1612662085693,567.7090217704528,195.0,402.45779092480115,506.6240583396344,0.7943913919993876,898.9128258064517,715.059712,64.83883175848167,75.41980474045201,435.6936708547347,554.0674200575862,552.5690808462601,186.0,391.78482995725454,550.3728492153572,0.7118534835353983,913.6491016393443,715.059712,79.24746103814428,75.67191064831441,547.936206578473,767.3490466547403,765.2380760506104,183.0,542.5977144265993,673.2473788353948,0.8059410723071844,truth
1783771454635041656,1783771464635041656,1428.306392275862,1493.212928,46.014654796341844,57.868903095837766,726.8579988589397,1029.7306148496523,1025.2531448183763,116.0,728.1295005555821,889.695912219891,0.8184026593297674,1532.5490014814814,1682.49344,27.96969213110975,53.29964017414118,635.5248434501467,943.9139436844839,939.5046196168512,108.0,667.4479504358355,764.879251917692,0.8726187156501128,845.0899791269035,715.059712,83.90907639332923,77.63161398611278,332.4010333586464,448.2533359046326,447.10857622537424,197.0,316.962973507657,413.21680830816166,0.7670621502678029,895.0684187526881,715.059712,83.90907639332923,75.57714351451696,431.30416564509466,550.2809128628412,548.7918403040372,186.0,389.10736504283864,544.3751425628581,0.7147779805135189,890.2819566203208,715.059712,83.90907639332923,76.25650336233183,479.0670782610935,657.6455821825265,655.8754910876075,187.0,465.02565077863943,592.3563986369969,0.7850436862818675,truth
1783771455635041656,1783771465635041656,1409.801176949153,1472.18176,30.35009146141696,60.2017447499197,744.6306475633585,1055.7819371164449,1051.2707549423035,118.0,746.5505671893073,911.1974143378125,0.8193071615900517,1540.7277890370372,1682.49344,30.35009146141696,53.51775087052901,637.0144232517564,944.2463859527029,939.8565467417268,108.0,667.6830226180462,767.2512245121219,0.8702273796208159,851.3848214974362,715.059712,83.90907639332923,77.12111386449881,334.5644378298983,455.5274749561734,454.35191822233855,195.0,322.1065665582954,414.71726032429007,0.7766895602715516,878.4129110687832,715.059712,83.90907639332923,76.34601440516796,416.479938925678,522.2879061644079,520.8969904961172,189.0,369.31332018057606,527.934574377993,0.6995437277728914,873.7896852210528,715.059712,83.90907639332923,76.62998370825058,436.38805151516965,599.8924628714207,598.3033409729634,190.0,424.18802847908074,539.3526872631006,0.786476156504544,truth
1783771456635041656,1783771466635041656,1433.0202747586204,1514.244096,35.661357467164926,57.73230018912479,707.2114242411192,982.206317301847,977.9596358007674,116.0,694.5247474884018,871.2713037380437,0.7971394725255607,1536.258028859813,1682.49344,34.79156826064871,55.29211336420554,685.3914818263929,1063.3661564980234,1058.3458314431505,107.0,751.9134201440279,810.4542374644066,0.9277678928503972,840.821847919192,715.059712,43.225887838987795,77.2202533339172,299.6214904485427,431.0981708126182,430.0197956741125,198.0,304.83243993871895,364.80771216863826,0.8355975758478627,876.2248730947371,715.059712,43.225887838987795,75.80792512561112,372.69975231865817,471.41334264603915,470.18162894042865,190.0,333.3395713268318,471.4367145764109,0.707071725685047,862.6047973471503,715.059712,28.52908597373194,76.60918284742965,368.8737161472129,492.83118526081955,491.6058950389796,193.0,348.4842730781292,459.7988610654806,0.7579059075322526,truth
1783771457635041656,1783771467635041656,1469.9483616283183,1598.3687679999998,178.30678733582462,57.116314380172966,754.4224227817855,1036.7391306249656,1032.2043751988572,113.0,733.085269586359,932.5231245120016,0.7861309283563233,1525.8208857247705,1640.431104,35.661357467164926,54.922710456435134,676.9745251198904,1047.4866019929498,1042.6957510754376,109.0,740.6848794712689,801.4249621667135,0.9242098941724636,844.8764647309646,715.059712,83.90907639332923,76.99829591187772,305.6214012088033,435.37739754130024,434.26553273983274,197.0,307.8583101768047,373.39056252295103,0.8244940849512813,880.6384314920635,715.059712,83.90907639332923,75.42813898997942,360.72993556453747,478.3001776623807,477.02661649281333,189.0,338.20929906779986,450.6211355860092,0.75054024846832,871.4170866596859,715.059712,83.90907639332923,76.1823347212434,376.6712872251525,501.92092690309016,500.59853561993174,191.0,354.9116910326125,469.87377350081204,0.7553341153483195,truth
1783771458635041656,1783771468635041656,1539.5593908148148,1640.431104,41.954538196664615,53.78147214608497,749.5262616317262,1059.1549908179559,1054.204604528287,108.0,748.9356763349522,918.2194237259499,0.8156391130302185,1585.950364038095,1682.49344,34.79156826064871,52.18228521207864,692.5789634012335,1038.3500502350369,1033.3462410764778,105.0,734.2243617665868,830.5350891961631,0.8840377382215229,837.2104352323233,715.059712,95.09695324577314,77.33761084680486,294.1033369423665,412.2892258432184,411.24153059156487,198.0,291.5325074038917,361.2449918887046,0.8070215890874122,872.461400926316,715.059712,95.09695324577314,75.907610188939,356.2066679220285,464.3505496424391,463.1204798004787,190.0,328.34542249986924,447.05818671166253,0.7344579123246008,863.3732613333335,715.059712,95.09695324577314,76.46855321927411,365.4240529795614,476.1187296007922,474.88725425578485,192.0,336.6667823506444,458.6907627398338,0.7339733208048043,truth
1783771459635041656,1783771469635041656,1532.3810665688075,1640.431104,39.62373051907214,55.04530209169626,777.8977468971657,1095.3276228939833,1090.245146936433,109.0,774.5135897692771,954.1038512063179,0.8117707404597765,1576.1471565283018,1682.49344,27.96969213110975,53.26296248365713,697.9525565483868,1041.7147296779535,1036.744250790992,106.0,736.6035494171921,838.4409030324412,0.8785396165109222,851.0034474226803,715.059712,83.90907639332923,76.49285306685607,303.50558616318335,431.8863559897726,430.76602633094564,194.0,305.38977102231553,370.94450466610755,0.8232761698335476,879.0353427165777,715.059712,83.90907639332923,75.444210869358,356.60506469507385,463.6868590356245,462.43893027791415,187.0,327.8761223711808,447.8648998546044,0.7320871148366909,874.2799681675393,715.059712,49.188079265055066,75.80525825042635,371.0606154097914,493.7153795287223,492.4215804977979,191.0,349.1094928408495,463.06937020363233,0.753903227689904,truth
1783771460635041656,1783771470635041656,1549.2305250093455,1640.431104,44.576696833956156,55.314502938236934,795.3424640068974,1125.6826373076674,1120.3760422277173,107.0,795.9778263042085,973.8320800431353,0.8173666103389726,1568.0996103177567,1682.49344,33.173355783409235,53.45212196941424,692.2838398015815,1027.855316054701,1022.9966841967112,107.0,726.8034640609211,833.3019812861158,0.872196971065849,862.3868577823835,715.059712,44.576696833956156,75.8176221888703,313.77242077195655,451.365972026955,450.1890052987065,193.0,319.1639396171174,382.0647247499146,0.8353661538003287,878.1631319148938,715.059712,83.90907639332923,75.75568610972333,389.12522280066054,547.0582210589603,545.6325306215326,188.0,386.82857781464014,477.51304037929566,0.810090081534478,859.8680666666668,715.059712,83.90907639332923,76.34025442579055,339.0131682275483,453.80562885229915,452.6160969797267,192.0,320.8890375020863,422.3446096126388,0.759780118411824,truth
1783771461635041656,1783771471635041656,1518.0679447272728,1598.3687679999998,89.15339366791231,58.1054961852551,848.7104583570185,1199.8634915889365,1194.3798265130333,110.0,848.431611400705,1039.5675950303387,0.8161389557125859,1600.8190011650483,1640.431104,30.35009146141696,53.863633971341635,814.4234302571413,1200.32540521025,1194.475085590386,103.0,848.7582336546582,983.0441383301819,0.8633978888235635,870.8218,715.059712,36.57575124837428,75.65610357660269,355.1425608347452,515.4586739398994,514.1303630627184,192.0,364.4843237643284,431.0777956443031,0.8455186684332885,889.3499234042555,715.059712,64.83883175848167,75.37255368530083,424.1303064874699,561.8495522123156,560.3463955550906,188.0,397.28762837595355,529.956888748524,0.7496602776768039,867.0975306666668,715.059712,64.83883175848167,76.34810968165965,368.64950515554494,502.78385120667366,501.4707713876674,192.0,355.5218706593271,456.73516948479306,0.7783982806937405,truth
1783771462635041656,1783771472635041656,1513.4793262545454,1598.3687679999998,50.94479638166419,57.25145675869912,816.613033879303,1153.3525407688928,1148.0783430514605,110.0,815.5434026764182,1000.5789191156308,0.8150715421800434,1622.698942745098,1640.431104,49.188079265055066,51.139947156157156,825.9153555234706,1196.9123868025,1190.9828234002366,102.0,846.3448651942236,1003.0565953916096,0.8437658144940434,890.0570243422461,715.059712,38.552818883421544,74.39138367529266,367.17294873845964,513.0901369877898,511.72899110191366,187.0,362.80951522400085,451.46049262593704,0.8036351378471803,909.5118226885246,715.059712,38.552818883421544,74.03401165295847,435.50914234433566,576.3640179900132,574.7795809286986,183.0,407.5509055526636,544.3230252548569,0.7487298656194906,886.683040171123,715.059712,83.90907639332923,75.17289707500072,395.1553806094082,523.2242420538532,521.8158296955208,187.0,369.9754096374712,493.8164110081045,0.7492165132426091,truth
1783771463635041656,1783771473635041656,1491.7107017142857,1598.3687679999998,31.698984415257716,57.27480133080061,745.6656693574469,1069.3535985857134,1064.529097283035,112.0,756.1471810461952,908.9308561241194,0.8319083634926563,1640.4311040000005,1640.431104,29.717797889304105,51.682751639746854,843.0563692444541,1197.973125826801,1192.1442059525884,102.0,847.094920951376,1030.8749589045576,0.821724219445128,879.988345263158,715.059712,83.90907639332923,74.88806978208407,356.9345676954464,499.2929602436658,497.97032756201656,190.0,353.05343798700136,438.7268013179155,0.8047227498444244,899.9066264216217,715.059712,83.90907639332923,74.44566470766686,418.9305403683457,560.1209919398351,558.5968971370513,185.0,396.06535168559293,522.0840103888569,0.7586237919651989,879.988345263158,715.059712,83.90907639332923,75.3407350157658,363.4319950236624,485.04772053246074,483.762823651434,190.0,342.98053238758035,453.15318294736136,0.7568754789645188,deceptive
1783771464635041656,1783771474635041656,1494.5392178738737,1556.3064319999999,40.755837105331345,57.32358377725395,766.8490388932156,1100.1897923101105,1095.2226378352207,111.0,777.9516627346985,934.6178374753265,0.8323740801226,1694.9404577959185,1682.49344,16.20970793962042,48.789711525002744,857.9961731998764,1218.896994171097,1212.977603652052,98.0,861.8903301462824,1049.231812256677,0.8214489115541946,879.988345263158,715.059712,83.90907639332923,74.68261459526508,348.38737600607624,493.2055285487255,491.8990215422773,190.0,348.74897375549915,426.53792817643006,0.8176271105514564,908.6836173913043,715.059712,83.90907639332923,74.37891211634705,444.1679209620792,585.478787591422,583.8769274416054,184.0,413.9960209467728,555.7642767789879,0.7449129752386147,889.3499234042554,715.059712,83.90907639332923,74.70475508712254,368.0960121038437,520.373766855973,518.9805280322413,188.0,367.95981929544604,450.87928977225977,0.8160938584721943,deceptive
1783771465635041656,1783771475635041656,1460.743756350877,1556.3064319999999,34.79156826064871,58.90230826300738,761.8282688425651,1095.274210274144,1090.4234478966441,114.0,774.4758213435879,927.8244572613975,0.8347223607680709,1772.4352435744674,1682.49344,35.661357467164926,47.50088189139848,927.8269317429268,1293.8446836367093,1287.2591205581246,94.0,914.8863496016804,1141.585351251164,0.8014173873192888,907.3446765714286,715.059712,64.83883175848167,73.42910112387611,381.0006208180391,529.4762087517396,528.0123596988881,182.0,374.3962176852991,469.2938122529781,0.7977863928951116,938.2768814545456,715.059712,64.83883175848167,72.96835573509257,469.91024813367795,620.9603319176747,619.1843641573253,176.0,439.0852615468371,587.5656126325658,0.7472957098008713,912.3576305856354,715.059712,64.83883175848167,73.72167569434863,400.6199712037996,570.1792740962317,568.5940051799392,181.0,403.1776312054686,489.6086411639811,0.8234691901004157,deceptive
1783771466635041656,1783771476635041656,1421.1317453675215,1556.3064319999999,30.35009146141696,60.444516049122605,721.088311549001,1073.7594714817187,1069.1214259079022,117.0,759.2626036480066,867.0045302396079,0.8757308378056278,1715.8831294020617,1682.49344,34.79156826064871,48.16981962164841,845.4411418905935,1159.480873727199,1153.4913440898172,97.0,819.8767884686054,1045.6779976014338,0.7840623885643868,931.2460199329608,715.059712,43.225887838987795,72.58161264430292,423.0915152090836,578.2198536842736,576.6090416578265,179.0,408.86317955684325,523.8590561259495,0.7804831753419985,963.5435697572254,715.059712,83.90907639332923,72.01081996556655,500.2910244037579,657.7742096719362,655.8594703359568,173.0,465.11660414864804,626.4307547291543,0.7424868600995611,926.0724309333333,715.059712,79.24746103814428,73.07985830026743,421.29194875435434,589.0832288749738,587.435863384397,180.0,416.54474582076097,517.8986865546599,0.8042977451668013,deceptive
1783771467635041656,1783771477635041656,1441.8237261913039,1556.3064319999999,37.53827101806834,60.07241415575092,767.0912706386017,1139.4139074743398,1134.4114708126879,115.0,805.6873005533671,923.1966322747301,0.8727147309540945,1730.2517173333333,1682.49344,37.53827101806834,47.73015934505812,839.5984709221567,1163.321503976354,1157.199163376805,96.0,822.5925241618131,1035.1434462653935,0.7946652486953137,911.0424643516484,715.059712,83.90907639332923,73.9867863994308,417.976013863159,567.0187337234511,565.4502141661677,182.0,400.94279167566157,518.681342667668,0.77300407532213,967.6782764651164,715.059712,83.90907639332923,71.78407516942465,502.64251392926997,662.335296825612,660.3959874777405,172.0,468.341779804595,628.9888570261041,0.74459471669966,921.1651584,715.059712,83.90907639332923,73.6343767546597,429.83035486843204,602.8678365892737,601.1814896871568,180.0,426.2919354115389,527.8691701872602,0.8075711928020212,deceptive
1783771468635041656,1783771478635041656,1460.8432172521736,1556.3064319999999,35.661357467164926,59.193574874243765,767.8147007678423,1129.2455600022686,1124.2973184105542,115.0,798.4971931024045,927.5127738927442,0.8609015590708632,1637.9568489411765,1640.431104,35.661357467164926,51.290717896671765,819.8780127500784,1155.214243000547,1149.4812098876462,102.0,816.8598249489709,1005.3705410316156,0.8124962803373839,939.313402247191,715.059712,43.225887838987795,72.74945166686086,452.93081995980305,621.0509960045134,619.2941752900559,178.0,439.14937073745085,560.2379587544649,0.7838622211779058,990.5804572781066,715.059712,19.81186525953607,71.03783563807444,534.2813840266064,701.5134432666123,699.4773825444387,169.0,496.0449128273459,669.2405523157031,0.7412057011651992,935.005781810056,715.059712,19.81186525953607,73.35745831304075,460.67929168617735,631.6611607070624,629.9417760803832,179.0,446.6518901481294,569.8261700646153,0.7838388505348594,deceptive
1783771469635041656,1783771479635041656,1484.5751268571425,1556.3064319999999,36.57575124837428,57.47349554922685,741.8233228041363,1073.3786009442174,1068.5343029633839,112.0,758.9932875081852,901.4256925954008,0.8419920729382344,1647.92736190099,1598.3687679999998,33.173355783409235,52.00110159881949,876.4199421747484,1246.5092322195069,1240.2613115970457,101.0,881.4151309140502,1071.3437886976628,0.8227192244102223,931.7516339775283,715.059712,83.90907639332923,73.20463258391055,449.31318286721876,610.0686708011377,608.3428719523662,178.0,431.383694112948,557.4214983504626,0.7738913827139979,972.6296636235294,715.059712,83.90907639332923,72.35245065650385,564.6259584330829,766.2806704765272,764.0112177404962,170.0,541.8422583861267,700.5772115808977,0.7734226141375975,931.2460199329611,715.059712,83.90907639332923,73.61975639414445,461.47582500901274,639.2198629173441,637.4392929353937,179.0,451.9966997379894,569.0073513132153,0.7943600354104805,deceptive
1783771470635041656,1783771480635041656,1528.6543407407405,1598.3687679999998,43.225887838987795,55.20283358172063,750.1045149628486,1083.7532786441795,1078.6789137292938,108.0,766.3292924624534,911.9667068990503,0.8403040227950798,1684.1929283232323,1682.49344,33.96319758777612,49.62760755809681,838.4504898001371,1192.0166138261284,1185.925593356968,99.0,842.8830309234814,1025.0719710258409,0.822267172206422,896.1991267096774,715.059712,83.90907639332923,74.76270899853925,397.1348762829268,540.6651449727544,539.2019557333176,186.0,382.3079903614424,492.2931242394198,0.7765860856823837,931.2460199329608,715.059712,83.90907639332923,73.78864077878634,487.9824593689474,667.0223765155679,665.146121169768,179.0,471.65604563732455,604.172201123499,0.7806649242720011,901.0434463135136,715.059712,83.90907639332923,74.83952324701355,424.59497100989313,595.8012444807619,594.1800575742202,185.0,421.29510021173076,521.3607178169236,0.8080683599942199,deceptive
1783771471635041656,1783771481635041656,1529.2939226422018,1598.3687679999998,33.173355783409235,52.88822604375209,678.9475011533392,957.8031231174967,953.3614009594028,109.0,677.2690833980356,832.221552821915,0.8138086319701008,1647.5109031287127,1682.49344,44.576696833956156,49.581383318487454,731.0881544489922,1031.305234606344,1026.1399764816297,101.0,729.2429248633291,896.1485130376858,0.813752312539587,867.2328752251309,715.059712,83.90907639332923,76.19551348956507,364.20787414158457,484.4902633876659,483.22090945068226,191.0,342.58635066027506,454.5459793509367,0.7536891012642263,908.5924273661202,715.059712,83.90907639332923,74.93594877489033,471.1373657689438,643.6233059039516,641.8568352762989,183.0,455.1104041343879,583.4193130774092,0.7800742860804181,871.7972587789475,715.059712,83.90907639332923,76.28733948689775,391.9824626456855,543.9220384662337,542.4877565300488,190.0,384.610961836284,483.0504177218323,0.7962128749421032,deceptive
1783771472635041656,1783771482635041656,1472.932873142857,1556.3064319999999,41.954538196664615,55.34391204229731,682.9650472198432,931.1134642302868,926.9117067163322,112.0,658.3966446113336,846.2502234151988,0.7780165090583404,1670.1721496565656,1682.49344,40.755837105331345,50.31424782290385,763.0422935821185,1151.5961521965353,1145.7171730542443,99.0,814.3014484065055,912.6465138001972,0.8922418878430931,856.8574838762888,715.059712,83.90907639332923,76.50934620172505,344.8840226571912,475.57088821716485,474.3374394872241,194.0,336.27939999326685,425.8498100721617,0.7896666666031462,888.9323629518718,715.059712,52.83164069209618,75.28755446428937,401.1265063479544,527.8575263560316,526.4436364486799,187.0,373.2516363867067,502.14196812968527,0.7433189418063323,861.2971599585494,715.059712,83.90907639332923,76.47422385281573,360.6368180235191,524.5995071900018,523.2317626095512,193.0,370.94786894117124,437.39760892380224,0.8480793250193395,deceptive
1783771473635041656,1783771483635041656,1513.4651638518521,1619.3999359999998,25.472398190832095,52.69143408944985,649.9240956180536,881.081649425021,876.9590978528316,108.0,623.0188090874607,806.6761691605318,0.7723282686481314,1671.8716379797984,1682.49344,40.755837105331345,51.0254424911756,810.1631774832733,1233.815784483614,1227.523874502513,99.0,872.4395079433633,965.4809168437038,0.9036320580995985,867.4530968795813,715.059712,31.698984415257716,76.08190428751384,358.9770831066739,485.75062038740316,484.51029627577543,191.0,343.4775576415052,445.8034052021866,0.7704686721397446,899.2245344864865,715.059712,50.94479638166419,74.88849783516241,414.72428224563134,536.5316102300757,535.0786894015889,185.0,379.3851399146241,521.5610399313667,0.7274031433876813,875.5607309473685,715.059712,31.698984415257716,76.00783913215554,396.7392286822236,564.046477927012,562.5893337723588,190.0,398.8410894465785,485.0432185231174,0.8222794881268287,deceptive
1783771474635041656,1783771484635041656,1528.1362436697245,1640.431104,23.774238311443284,51.059253826165,638.293415555474,867.7871199643082,863.900719396749,109.0,613.6181571531064,791.5638617881432,0.7751972857463991,1638.7652689108909,1682.49344,62.01975211680857,51.68613963470813,787.1372711841686,1182.5435926806263,1176.6557899003046,101.0,836.1845934331734,943.1690358716289,0.8865691743796636,850.5220043487182,715.059712,83.90907639332923,77.08829262968388,346.66446909790415,478.44254014536256,477.24926888139345,195.0,338.30996454490287,427.9318780070921,0.7905696722582001,878.6600609684211,715.059712,83.90907639332923,75.61047152521193,379.54489616107776,510.94266051885177,509.59310402355754,190.0,361.2910200503762,472.06255498538104,0.765345643781394,863.8114106666666,715.059712,83.90907639332923,76.8068497365656,393.0949286951638,561.3474640018574,559.8760395470601,192.0,396.9325983975847,479.86404542993495,0.8271772019134134,deceptive
1783771475635041656,1783771485635041656,1555.1271141682241,1640.431104,71.32271493432985,51.58053307023133,674.3466298089907,931.2762540086394,926.8852635556191,107.0,658.5117543675146,832.2667174346195,0.791226827377301,1645.89920768,1661.462272,25.935532703392678,51.06912703772313,830.678670708474,1266.782243017811,1260.3821504738207,100.0,895.7503143245991,989.3784893223046,0.905366676142476,849.4016626938775,715.059712,83.90907639332923,76.77409820887887,318.4998791810517,419.9330958407514,418.8616808762054,196.0,296.93753971365567,398.4951628703787,0.7451471620754468,870.0262130526318,715.059712,83.90907639332923,76.24678726727704,380.60856182832555,545.0693410195165,543.6254461890234,190.0,385.4222272517829,464.1665735963655,0.8303532593170789,858.1583808659794,715.059712,83.90907639332923,76.83828634041411,366.49888804413405,524.8176613349763,523.4617539826543,194.0,371.1021272164267,446.97256679006034,0.8302570555537709,deceptive
1783771476635041656,1783771486635041656,1521.1270237090907,1640.431104,75.07654203613669,52.90679429500689,659.2180658755668,905.6877681160377,901.5336576825524,110.0,640.4179624725597,814.9044934375402,0.7858810052341989,1696.803306886598,1682.49344,95.09695324577314,49.55682167350732,841.6603758138556,1265.1901128429552,1258.682167970653,97.0,894.6245082814268,1008.2697412009094,0.8872868754504877,848.7197238578681,715.059712,49.188079265055066,76.69166713238567,317.6884583549579,438.23366559374574,437.1246182222007,197.0,309.8779966855754,392.22407719180995,0.7900534788792053,870.8218,715.059712,49.188079265055066,75.89362768318934,370.96145982295053,524.9237426984388,523.55687134399,192.0,371.1771380678885,454.24506099220815,0.8171297168473901,855.556586886598,715.059712,89.15339366791231,76.77365061776561,355.8760540969964,505.72374952373605,504.41192993568166,194.0,357.6006926953208,435.1510129267885,0.8217852701068742,deceptive
1783771477635041656,1783771487635041656,1531.7700693333334,1640.431104,32.41941587924084,50.905714896577415,643.3304281564739,881.1942421538394,877.1570517000299,108.0,623.0984241695204,796.0039299417524,0.7827831003486574,1746.2510861473686,1682.49344,89.15339366791231,49.45291111729292,914.1956912665502,1334.8494013894237,1327.812265645738,95.0,943.8810635852652,1107.272230647561,0.8524381244829554,856.3460201025642,715.059712,49.188079265055066,76.27414757944152,326.1893190012113,450.7836377353294,449.6203754590766,195.0,318.7521670905915,402.4890950677717,0.7919523062778124,874.2799681675393,715.059712,49.188079265055066,75.50756377760976,366.9473214938597,519.3819227205985,518.013372330142,191.0,367.2584795814426,449.2897484817561,0.8174201188041474,850.0905957743591,715.059712,95.09695324577314,76.8043978836043,339.3106911104765,481.4361876183487,480.2020417550466,195.0,340.42679297353334,415.1123817915047,0.8200834470519767,deceptive
1783771478635041656,1783771488635041656,1529.4332728888887,1640.431104,118.87119155721642,51.74991502471013,663.7314286830095,914.3012441657253,910.0201376947451,108.0,646.5086097968816,819.8122514164019,0.7886056943890495,1788.1064793043477,1682.49344,89.15339366791231,46.42395790384555,892.6580056419434,1322.1749581652323,1314.94941683103,92.0,934.9188788336755,1075.4719778188064,0.8693103103716469,834.9373696000001,715.059712,49.188079265055066,77.2168720953482,279.5432019081944,388.10669158477765,387.14163049640064,200.0,274.43287344347226,344.4301125815667,0.7967737529873555,860.7601748453609,715.059712,49.188079265055066,75.60510958228902,315.61274217076414,444.5346739207561,443.39203225910194,194.0,314.3334824019173,387.065933610335,0.8120928635335847,839.1330347738694,715.059712,49.188079265055066,77.01310206360024,298.4378211204517,433.2760569800459,432.19077375982033,199.0,306.3724380163594,362.21296327188713,0.8458351000165274,deceptive
1783771479635041656,1783771489635041656,1524.1861026909091,1640.431104,64.83883175848167,50.3469153940514,598.3860516151296,819.219155974094,815.5293969136559,110.0,579.2754204672018,740.5077495586137,0.7822678706772267,1805.51446572043,1682.49344,23.007327398170922,45.78233229480389,883.096466685792,1317.9627708389569,1310.8384847637699,93.0,931.9404126116382,1060.8780667996134,0.8784613819221037,856.3460201025642,715.059712,47.54847662288657,75.8674261851529,294.7594135165937,404.502819500085,403.4703578805201,195.0,286.02668667758815,364.5004677190593,0.7847086958967766,869.7264266666667,715.059712,47.54847662288657,75.148706145976,322.7854546214737,455.9445899828703,454.7599026543496,192.0,322.4015114222076,395.4864500165853,0.8152024207370119,851.9769077551022,715.059712,47.54847662288657,76.43113533855939,317.3385255584646,467.7920685378931,466.6008323940303,196.0,330.7789438484264,383.0145229106859,0.8636198474530425,deceptive
1783771480635041656,1783771490635041656,1528.1362436697248,1682.49344,31.009876058404284,51.77358109237062,639.0629041914194,890.9278981782138,886.8812116731173,109.0,629.9811583500929,786.3616604903117,0.8011341218712106,1810.5092452173908,1682.49344,44.576696833956156,45.9385845506166,934.4018898864623,1425.4315012694976,1417.605028249915,92.0,1007.9322806645825,1112.7668410066556,0.9057892844405435,877.077598814815,715.059712,67.92639517555224,74.68931717249988,313.80528587295356,428.2681090539733,427.1285170101275,189.0,302.8312840780044,388.70827309879286,0.7790708483352443,905.0335592087913,715.059712,49.188079265055066,73.55033794869796,366.15008573040626,508.31079968401764,506.9123520183863,182.0,359.43001340692564,451.1505328511941,0.7966964177907305,887.6289715891893,715.059712,83.90907639332923,75.25677089216089,404.0080238562536,574.1591583725018,572.5968176306262,185.0,405.99183436555694,493.9942124101409,0.8218554472222853,deceptive
1783771481635041656,1783771491635041656,1526.317544296296,1682.49344,29.11131221809382,54.5660368773858,682.2710000317365,977.5957897118136,973.1255661744586,108.0,691.2646121646414,831.9038724233982,0.8309428950618248,1806.8315541098898,1682.49344,32.41941587924084,46.50161153530238,930.4751584218194,1419.1829305772267,1411.419636018452,91.0,1003.5138739553544,1108.1732686136127,0.9055568315691344,891.2240116989248,715.059712,83.90907639332923,73.81956805077702,323.7583686115481,441.9154722915895,440.7197223557673,186.0,312.4814271686388,401.0195024301779,0.7792175325015406,953.7334242742858,715.059712,83.90907639332923,72.33042179418472,501.7824089608268,734.1583752095272,732.0496761992706,175.0,519.1283655755544,607.3088521604865,0.8548012493622773,910.8113526153847,715.059712,83.90907639332923,74.2522996996068,429.46794701473897,610.5238385723931,608.8351501156536,182.0,431.7055463305802,525.0719909305932,0.8221835363289172,deceptive
1783771482635041656,1783771492635041656,1535.6647300740742,1640.431104,95.09695324577314,53.6839144260038,676.1470241417768,966.2848475325777,961.7769742700076,108.0,683.2665682480949,825.1805831869754,0.8280206565321903,1752.0069847578945,1682.49344,64.83883175848167,47.330894829689036,880.2945249527609,1296.8144391457456,1289.9132586064434,95.0,916.9862838605861,1062.7346700514622,0.8628553388741723,898.9128258064517,715.059712,31.698984415257716,73.79558282777433,333.09091297569637,442.3586538223932,441.1643407342794,186.0,312.7948038343667,415.90722278060514,0.7520783162723981,951.3298622171429,715.059712,29.11131221809382,72.75978922365503,507.5539430464635,730.388076031279,728.3176885409385,175.0,516.462361459513,617.944435044007,0.8357747592997306,906.9107000888889,715.059712,83.90907639332923,74.45127895930484,428.3806835419823,605.5164439330408,603.8226883245408,180.0,428.16478362501704,524.7451563334942,0.8159480434592199,deceptive
1783771483635041656,1783771493635041656,1525.049099743119,1640.431104,118.87119155721642,53.467612882119155,672.4227575575383,973.5011180601117,969.0495095555356,109.0,688.3692420729908,816.9324470520778,0.8426268837245837,1830.4049512087909,1682.49344,83.90907639332923,46.03324910052197,939.3997593795934,1374.1248003918236,1366.5117280783745,91.0,971.6529645536694,1137.0528018002985,0.8545363619132277,919.7940656795581,715.059712,83.90907639332923,73.41998465193349,394.68949772937,550.3505972836608,548.8199154347403,181.0,389.1566393693432,485.6317063918955,0.8013410867685424,951.3298622171429,715.059712,83.90907639332923,72.83124517594594,508.63459785554045,755.6075386501645,753.433279080887,175.0,534.2952144952077,612.1132412839104,0.8728698849489369,919.7940656795581,715.059712,83.90907639332923,73.70892676403845,428.13702530453264,599.1226570224186,597.4562923421342,181.0,423.64369354305427,526.1802308466438,0.8051303882348366,deceptive
1783771484635041656,1783771494635041656,1507.7435531636359,1640.431104,71.32271493432985,54.124511588027055,667.2127337380641,976.0710825564487,971.6275160537064,110.0,690.1864813957593,807.5685571972898,0.8546475407500865,1875.1198196363634,1703.524608,29.717797889304105,45.92422444380352,965.5868051360058,1451.0765696954393,1442.726636934204,88.0,1026.066082452559,1156.8534711560262,0.8869455882145788,910.8909156721313,715.059712,79.24746103814428,73.15227825997472,341.2222686843253,452.17160414256523,450.92819642464974,183.0,319.7336075492071,426.3220418814169,0.7499814134361418,936.4777391460674,715.059712,79.24746103814428,73.41668536245287,493.7622768570669,728.036873546551,725.9777092195407,178.0,514.7998102386192,595.8967610109073,0.8639077167751148,905.9404215652174,715.059712,79.24746103814428,74.29070234353705,410.5942506628104,561.6226825263954,560.0865167454576,184.0,397.1272072825937,508.2521696684368,0.7813586069719357,deceptive
1783771485635041656,1783771495635041656,1507.0442366846844,1598.3687679999998,19.019390649154627,54.483237340051154,683.1466282809806,977.4226223919777,973.0616911324794,111.0,691.1421643785056,833.3905961627129,0.8293136106416608,1777.590895304348,1682.49344,52.83164069209618,49.864154544181446,907.9982484994292,1334.842508640606,1327.5015481470562,92.0,943.8761896758352,1097.0280342076842,0.8603938643715143,886.683040171123,715.059712,83.90907639332923,74.70511017896914,341.10025564075306,452.22232338762694,451.00503363348093,187.0,319.7694714713268,426.1132611804617,0.7504330435186864,906.0640902295082,715.059712,83.90907639332923,74.75431951980916,457.7582359676981,662.5458801995503,660.7231920688852,183.0,468.49068473631195,556.1865193891059,0.8423265728390618,881.9666410212768,715.059712,83.90907639332923,75.55951695385151,390.8673373561175,526.8771018464889,525.4664511173737,188.0,372.5583715675676,485.95748858432364,0.7666480717333797,deceptive
1783771486635041656,1783771496635041656,1522.033417481481,1661.462272,23.38449669978028,53.84569258714904,675.3065516907379,967.2837620993678,962.7993600939458,108.0,683.9729075120981,823.5098107536995,0.8305582988575531,1730.7544360421045,1682.49344,20.090905615304184,51.2051333442201,854.3664954028116,1264.2496206063454,1257.6044315354,95.0,893.9594798432668,1029.7098820216027,0.8681663597208364,886.907972449198,715.059712,83.90907639332923,75.0023471770086,356.62588968949996,474.63340064189487,473.35578486377767,187.0,335.6164961715153,445.0222849952937,0.7541566062811091,899.9066264216216,715.059712,83.90907639332923,75.52418021464425,466.00092673309666,676.2932264563437,674.4531243312961,185.0,478.2115264978101,565.6594341072436,0.8454053758557942,876.2248730947367,715.059712,83.90907639332923,76.18820337262525,395.84228811987356,536.3143393480642,534.893821809184,190.0,379.2315062005994,491.4000065937793,0.7717368764996678,deceptive
1783771487635041656,1783771497635041656,1483.9288988828825,1640.431104,75.07654203613669,55.38190369375261,666.8311614078212,968.8687804310398,964.4948759426841,111.0,685.0936847227284,809.105010011386,0.8467302466871236,1701.3785704489796,1661.462272,25.935532703392678,52.1478874163321,839.2305685801447,1256.9331243826155,1250.4500092681849,98.0,888.7859357489416,1006.7997192521187,0.8827832574378931,891.2240116989248,715.059712,29.11131221809382,74.9611686791354,368.95833024751687,487.5098027220483,486.2483140192501,186.0,344.72148739967633,461.3502432865391,0.7472012693522607,899.5762577679559,715.059712,83.90907639332923,75.62169029979046,473.6131888221093,686.1095441603265,684.2010698144556,181.0,485.1527113125779,575.267180191536,0.8433519728190397,889.1572952299465,715.059712,83.90907639332923,75.8948407146545,426.020485771829,589.9192287480016,588.3313306250211,187.0,417.1358870000501,525.343444313214,0.7940251116017549,deceptive
1783771488635041656,1783771498635041656,1495.6760377657656,1640.431104,43.225887838987795,55.62593544837077,695.3698749150204,1042.447923261042,1037.7012415980867,111.0,737.1219955717165,833.9089324985358,0.8839358434057916,1643.3463154059405,1640.431104,41.954538196664615,54.22476551434806,839.841872689519,1247.0530566113523,1240.8032654405188,101.0,881.7996728292987,1010.8824910662701,0.8723068018511074,921.3988380444446,715.059712,25.935532703392678,73.61305775535176,405.5418063819306,520.4727288540764,519.0936658503059,180.0,368.0297959953847,511.0825257009247,0.7200985701685845,931.2790234606744,715.059712,54.863626872561426,74.9076819971023,550.4768280700188,807.9184061230221,805.6371589682377,178.0,571.284583615016,665.4821100119573,0.8584522033278269,911.2735760879123,715.059712,25.935532703392678,75.54036963188612,491.4482288871734,696.7919487103756,694.9205542390911,182.0,492.7063120092956,601.3842103063387,0.8192870773216947,deceptive
1783771489635041656,1783771499635041656,1481.5706742857142,1619.3999359999998,41.954538196664615,54.626352523800456,659.1348419180264,975.171502280751,970.7725236674853,112.0,689.5503820825919,794.4668746684653,0.8679410105932289,1657.089454891089,1640.431104,43.225887838987795,51.05687799979021,759.5735662559981,1094.845316105288,1089.3576599224677,101.0,774.1725473683784,924.2469575607421,0.8376252050767495,946.1635694545456,715.059712,16.027576389737046,72.7781759796655,470.0023486027918,602.5325833420017,601.0647472747359,176.0,426.05487556697796,592.4888495888205,0.7190934915697645,955.520118381503,715.059712,36.57575124837428,73.67341732482295,567.4077169059331,816.2528309295066,813.8766909530605,173.0,577.1779119129706,690.8949727771209,0.8354061538368801,932.9331602696631,715.059712,28.52908597373194,74.82017793466137,535.5551164627554,745.5015393615913,743.3926578740134,178.0,527.1491938675911,659.3143629872214,0.7995414986550324,deceptive
1783771490635041656,1783771500635041656,1469.598984982456,1577.3375999999998,34.79156826064871,55.8196624546901,693.9419117866454,972.8884135178353,968.5740312238237,114.0,687.9359945362833,852.3395963927148,0.8071149075412862,1673.2397260799999,1661.462272,38.552818883421544,50.680689774468185,760.9264249536345,1094.4279951583617,1088.88787822532,100.0,773.8774568968755,926.5931627412597,0.8351858053942621,941.7685738305084,715.059712,44.576696833956156,72.59351907360359,445.14707073416906,611.6319508706644,609.903872,177.0,432.489100051004,550.2621360178791,0.785969216746092,940.4949285393258,715.059712,41.954538196664615,73.99580124094027,521.8744215030521,734.506165588917,732.4408411803375,178.0,519.3742905112524,640.1804408260667,0.8112935937890726,914.7983457923497,715.059712,83.90907639332923,75.52138775628875,531.3969778432894,767.9093321732302,765.7968201775294,183.0,542.9938961161241,646.0219117895915,0.840519317080032,deceptive
1783771491635041656,1783771501635041656,1452.0649906086953,1556.3064319999999,35.661357467164926,54.847336553015055,683.5534959023167,952.2964367000747,948.1105698268714,115.0,673.3752680904086,841.2928370565402,0.8004053266950061,1669.4541158399995,1640.431104,35.661357467164926,52.19856899119073,813.1764832954933,1173.6530849983196,1167.7105768431609,100.0,829.8980551628233,989.0129397475714,0.8391174895797021,945.8084592090396,715.059712,40.755837105331345,72.37776749008363,446.4562022543096,606.3626533558761,604.6564708039979,177.0,428.7631440462078,553.8297249304044,0.7741786414589561,935.2407669273744,715.059712,40.755837105331345,73.51481422045647,473.95706595459194,649.9508376851027,648.1397927986285,179.0,459.5846447650132,586.2265584948187,0.7839710400447085,904.908633945946,715.059712,40.755837105331345,75.60423105617933,493.77227391644277,703.3003959959437,701.401550998091,185.0,497.308479219916,603.2945012390022,0.8243212530506745,deceptive
1783771492635041656,1783771502635041656,1522.3478488073392,1598.3687679999998,43.225887838987795,53.487070907024645,773.7403063115237,1068.9694248373733,1064.017607878583,109.0,755.87552918359,954.816325485072,0.7916449572639902,1660.2004019199996,1640.431104,36.57575124837428,51.80323767229675,778.2698748321802,1144.6136268454518,1138.8180775712706,100.0,809.3640573809474,940.1451523315535,0.8608926561751982,910.8909156721313,715.059712,83.90907639332923,73.89664785055152,399.9546477117036,541.5292588490463,540.0395413555975,183.0,382.9190111430858,496.60241230282656,0.7710776300248477,905.9404215652175,715.059712,83.90907639332923,74.71984393505576,441.1724984721609,627.7607822114924,626.0432814270282,184.0,443.89390606471767,539.2081665698706,0.8232329062976049,872.7384165863875,715.059712,83.90907639332923,76.6248298625691,424.14997201488296,596.5248345267704,594.9530025355349,191.0,421.8067556400625,520.4286002600686,0.8104987993151744,deceptive
1783771493635041656,1783771503635041656,1532.766959559633,1556.3064319999999,41.954538196664615,54.50559148206086,829.8838605810884,1164.2669970411825,1158.8931977115992,109.0,823.2610887195182,1019.085390929592,0.8078430875832238,1620.4208664854368,1640.431104,43.225887838987795,52.681302764309216,729.77433164979,1089.3398074587635,1083.9905974043056,103.0,770.2795648705397,876.6275413430845,0.8786851068931639,920.2588428729281,715.059712,83.90907639332923,73.27164474318798,402.1950963858303,543.077581742117,541.5815015912622,181.0,384.0138407602425,499.7884314046277,0.7683528001658478,900.3613543783783,715.059712,83.90907639332923,74.88297419187717,433.68609996573394,610.8245538690664,609.1624431585925,185.0,431.91818415606446,531.8746165259639,0.812067676734071,867.53568,715.059712,89.15339366791231,76.61309890264992,389.2499195534401,551.6001189072944,550.1542886254589,192.0,390.04018458265375,476.4087813528251,0.818709057954565,deceptive
1783771494635041656,1783771504635041656,1518.8327144727273,1577.3375999999998,57.05817194746388,55.52173726525191,827.8919580017621,1174.0410583826138,1168.6556273701517,110.0,830.1723937737775,1013.0237344484783,0.8194994505491514,1595.5376492307691,1661.462272,32.41941587924084,53.83959092455701,708.8050273947122,1045.989149678772,1040.9030732059935,104.0,739.6260207854103,855.1525059359922,0.8649054006757142,913.4192528087433,715.059712,83.90907639332923,73.44055831016952,388.3870221299777,522.6346702824615,521.1970880072944,183.0,369.55851943992394,483.1171786147428,0.7649459298871772,913.4192528087433,715.059712,41.954538196664615,74.17372987710992,440.5937062101499,625.1297302358054,623.4254400328601,183.0,442.0334713710551,539.0258184890768,0.8200599233077605,879.7669645473686,715.059712,41.954538196664615,75.62522367465857,379.64321451663835,529.7031134101152,528.3168459358121,190.0,374.5566635079193,467.0241894891101,0.8020069879413668,deceptive
1783771495635041656,1783771505635041656,1584.347989333333,1640.431104,34.79156826064871,53.37038859549248,836.0063096506202,1214.7842113666193,1208.929863203256,105.0,858.9821535356888,1014.3411307370378,0.8468375455814726,1658.338831207921,1682.49344,38.552818883421544,50.402623452925106,719.3359608454991,1060.9061847162245,1055.5886609553406,101.0,750.1739574155904,868.0483661287261,0.864207556499616,928.8765866666666,715.059712,41.954538196664615,72.3100643347144,386.4519580938014,528.8299347789737,527.3676497838678,180.0,373.9392329766519,478.3042513395455,0.7818020264912815,918.6691516483517,715.059712,83.90907639332923,73.69021769937333,435.24644751417895,630.0385881415549,628.2957824460126,182.0,445.50455808409185,528.8116720634813,0.8424635491604867,879.988345263158,715.059712,83.90907639332923,75.76154142765309,377.2086545655305,532.7669722823528,531.3557131720089,190.0,376.723138893077,462.18240605798604,0.8150962346364453,deceptive
1783771496635041656,1783771506635041656,1529.6798156330274,1598.3687679999998,41.954538196664615,56.04816073661426,839.9928839691038,1175.5240324571769,1170.0701722161587,109.0,831.221014798225,1032.333232302617,0.8051867253601711,1683.343184161616,1682.49344,34.79156826064871,49.17745616353845,742.6039191264761,1099.9181837398344,1094.297353917495,99.0,777.7596064728278,894.6877436701699,0.8693084397046932,973.3372137543861,715.059712,44.576696833956156,70.44937768582108,440.1926702401255,583.3472102395501,581.6441617291732,171.0,412.48876814664044,549.9688008811929,0.7500221239563521,940.3427319322035,715.059712,83.90907639332923,72.87782003805967,469.0573756135465,640.4059162892908,638.5841685340524,177.0,452.83536612014194,580.9472513321273,0.7794775947072279,909.5118226885246,715.059712,83.90907639332923,74.92160880789106,459.4703021653473,642.1372545077012,640.3708780761889,183.0,454.05960711490746,564.9255293728183,0.8037512619035034,deceptive
1783771497635041656,1783771507635041656,1507.361168290909,1598.3687679999998,33.173355783409235,55.39955980291241,805.3355535778405,1113.1988693799105,1108.1583604302984,110.0,787.1504693477326,993.6436871514235,0.7921858504473919,1744.4800404210523,1724.555776,38.552818883421544,44.58153902898768,706.2625836341141,1016.5651024503223,1011.1913039733247,95.0,718.8200774602203,859.8037695911256,0.836028059986351,953.9737804800001,715.059712,83.90907639332923,71.03509059803685,412.42198910933513,560.4312113589552,558.8302206116254,175.0,396.2847099405085,511.53006611096146,0.774704628710028,935.5325181123596,715.059712,83.90907639332923,72.42414416991535,409.431465068062,527.3004896148757,525.824349721564,178.0,372.8577519296653,515.5160497875283,0.7232708895937185,898.9128258064517,715.059712,83.90907639332923,75.23085069458384,444.6235924760573,615.0609905931402,613.3964532496111,186.0,434.9137972917248,548.4571746593132,0.7929767671685242,deceptive
1783771498635041656,1783771508635041656,1478.509722053097,1598.3687679999998,35.661357467164926,56.25891137779097,786.7380033975984,1086.37127822787,1081.5580666379972,113.0,768.1804977212245,971.0111912024829,0.7911139487176492,1717.6176587216494,1724.555776,31.009876058404284,45.70623022419817,709.6183386235456,1004.4654706160288,999.2479458927392,97.0,710.2643457403308,868.8375294649236,0.8174881052591609,939.3921706666666,715.059712,83.90907639332923,72.03917629132724,410.4793707215009,556.4703919854471,554.8946693787229,177.0,393.48398770244586,509.481896917574,0.7723218235683559,944.0126545454546,715.059712,101.88959276332838,72.62282793993796,469.26436546150444,609.3719364762511,607.6390754347614,176.0,430.8910285471352,589.5630162610039,0.7308650927255188,893.7115692043012,715.059712,89.15339366791231,75.56861826253173,438.2239634816992,598.4939685176532,596.8815438164844,186.0,423.19914363808067,542.7077728863084,0.7797919336724453,deceptive
1783771499635041656,1783771509635041656,1431.2167023304346,1472.18176,89.15339366791231,58.2134003061973,783.4049706634219,1072.7588009683295,1068.047433686209,115.0,758.5550227422557,969.4038553959655,0.7824963956146163,1705.042321154639,1682.49344,83.90907639332923,46.185844056776745,715.3189941303493,983.59074586114,978.4579982825131,97.0,695.5036863107462,884.0247948397098,0.7867468088797825,916.0758481325967,715.059712,83.90907639332923,72.81072778729796,367.8038056436344,488.13534833364946,486.7856051378802,181.0,345.16381494358103,459.336749366603,0.7514395820050118,930.3060794636873,715.059712,83.90907639332923,72.85623801504487,441.76744849310785,574.2562785746686,572.6479481162875,179.0,406.0605087190993,554.8642975769973,0.7318194926080123,876.4462538105264,715.059712,83.90907639332923,76.25266478446561,417.65228047464626,571.550069894737,570.0360273148602,190.0,404.1469302102138,516.9134203831194,0.7818464645601061,deceptive
1783771500635041656,1783771510635041656,1454.471302736842,1472.18176,12.850939627807183,57.38369660824303,781.9221483959168,1028.933835627109,1025.033545951374,114.0,727.5660925642131,978.840274395978,0.743293989423534,1736.8239573333333,1682.49344,25.472398190832095,45.25005452151564,707.7142497913763,986.6865883372296,981.575731476839,96.0,697.6927775190745,870.8222050535924,0.8011885474097861,890.5068888983958,715.059712,83.90907639332923,73.98679082049561,334.9761950319217,448.6471923719944,447.44775528861214,187.0,317.24147208654273,417.249357902813,0.7603162619136626,914.971363868132,715.059712,83.90907639332923,73.6363993259567,432.5147692405073,558.505926317098,556.9679366466021,182.0,394.9233278316942,544.2020156058857,0.7256925121675772,862.8227369119172,715.059712,83.90907639332923,76.5906088119014,363.1838947314957,485.7949311326811,484.53532033330515,193.0,343.5088900699706,452.5548629792024,0.759043639059861,deceptive
1783771501635041656,1783771511635041656,1471.806203428571,1514.244096,29.11131221809382,56.71863451094185,786.438019429618,1098.207288964904,1093.2781789211022,112.0,776.5498211755778,967.1890737724706,0.802893500592067,1711.9804384329896,1682.49344,19.019390649154627,44.8443874314813,649.5069426402221,895.7817167726935,891.1194846585931,97.0,633.4133263928989,801.9428383928863,0.7898484730685733,872.7384165863875,715.059712,83.90907639332923,75.08021218345434,324.7533665551074,432.0952072588083,430.9566713444831,191.0,305.53745117091006,405.2812987836273,0.7538898342655362,891.4066180106952,715.059712,83.90907639332923,75.04163044155331,417.0015951217086,536.089065950506,534.6460719505757,187.0,379.0722138535651,525.2930506014499,0.7216394989797316,854.8360900923078,715.059712,83.90907639332923,77.03599371180265,354.53476407739896,471.0113183953873,469.7958533208627,195.0,333.0552972529944,442.6362867690511,0.7524355937559376,deceptive
1783771502635041656,1783771512635041656,1384.1360227796615,1472.18176,31.009876058404284,59.894636089755586,677.9445992283519,926.4611051225909,922.5564182070746,118.0,655.1069299377668,839.4255264283653,0.7804229312934435,1699.1431146666666,1682.49344,43.225887838987795,47.17491701933006,779.2916960891095,1137.7959988305256,1131.8063925507672,96.0,804.5432663799858,943.8994445639819,0.8523612033182525,868.3339834973824,715.059712,41.954538196664615,75.14206243170962,314.9400538436226,414.21684499428903,413.14054708199865,191.0,292.8955399771588,394.3102539381801,0.7428047763198138,891.4501532903225,715.059712,83.90907639332923,75.39482721742186,419.67910633246277,539.106807388269,537.6477876429757,186.0,381.2060792880749,528.7741173137507,0.7209242411951953,863.592336,715.059712,79.24746103814428,76.45169214423846,358.56550287098764,470.1622435699387,468.9298888529638,192.0,332.4549106861849,449.3053592809337,0.739930881791048,deceptive
1783771503635041656,1783771513635041656,1372.0664478677684,1472.18176,44.576696833956156,60.96132482350715,675.4739755037406,916.8051357085415,913.012716991919,121.0,648.2791284861627,838.0914442650435,0.7735183707246469,1732.0043146666667,1682.49344,35.661357467164926,44.33653665244983,761.561118735288,1124.702785272431,1118.7732440296784,96.0,795.2849662855333,918.5377435570058,0.8658163171453572,873.8395248586388,715.059712,49.188079265055066,74.84373189915915,318.02252384281746,417.32745299662463,416.2393130128573,191.0,295.09507198922347,398.41699334560053,0.7406688894247236,887.7837725957447,715.059712,49.188079265055066,75.60612431971269,416.8940089984916,532.2205262800671,530.8049102789415,188.0,376.3367432193086,526.1050820218437,0.7153261887777833,864.7841929948187,715.059712,49.188079265055066,76.3654235538153,360.22034051160796,461.50278646031444,460.3096052987164,193.0,326.33174984257556,454.17087308516267,0.7185219686718755,deceptive
1783771504635041656,1783771514635041656,1385.9539711999998,1472.18176,46.014654796341844,60.44574446312901,716.5209403590135,1044.8045807065441,1040.4075455207976,120.0,738.7884040323648,868.2743592779793,0.8508697696045181,1752.746490553191,1682.49344,33.96319758777612,43.56828368314592,765.2046327129171,1123.9126029121978,1117.8538222222705,94.0,794.7262229802385,924.8142381605091,0.8593360592728106,888.007508425532,715.059712,83.90907639332923,73.91404637974703,324.16357356658574,418.8100769267188,417.6890050536471,188.0,296.1434454241425,407.8156136308141,0.7261699540818323,912.2700086557377,715.059712,83.90907639332923,74.3045256130747,431.49809876703046,552.1734985354494,550.6546428907578,183.0,390.4456252059165,544.2033860220868,0.7174626899327489,878.6600609684212,715.059712,83.90907639332923,75.2899452538088,369.268923527571,463.0108004833893,461.7844941652072,190.0,327.39807678441616,468.10717301207313,0.6994083741074656,deceptive
1783771505635041656,1783771515635041656,1356.6827226229507,1430.119424,31.698984415257716,61.263943615554645,708.7967831796609,1044.1318693896733,1039.819712430967,122.0,738.3127252984245,855.7060941251248,0.862811110458757,1717.1840263917525,1640.431104,64.83883175848167,45.19720980578333,763.3283191466763,1126.432130157745,1120.5718668363927,97.0,796.5077977809492,920.9386025461479,0.8648869702918512,902.2828271304348,715.059712,64.83883175848167,73.10323322291728,339.58120445867087,424.2232750609845,423.064168241326,184.0,299.97115453278815,430.85895843922793,0.6962165893438158,916.3580342857143,715.059712,71.32271493432985,74.18948540917387,441.0498246318063,571.5593931873085,569.9785024953818,182.0,404.153522773614,554.41848871618,0.7289683352903293,887.112565106383,715.059712,64.83883175848167,75.03893327980794,413.585539321143,532.0324986430888,530.6088077679896,188.0,376.2037876021508,520.9043595210347,0.7222127838362989,deceptive
1783771506635041656,1783771516635041656,1356.5958285528452,1430.119424,29.11131221809382,62.58615437051042,720.5266603150438,1075.7701915421237,1071.3957177488135,123.0,760.6843974377867,865.4461047326153,0.878950628211337,1656.8354150399996,1640.431104,22.288348416978078,47.62666321406564,744.3362601068832,1078.702319188598,1073.3161863698967,100.0,762.7577247799134,903.97636189454,0.8437806085784558,886.4413576170213,715.059712,83.90907639332923,73.77143138013278,309.93374786047906,412.95485735329135,411.8494655686697,188.0,292.00317995843574,386.63280716044613,0.7552467730377037,919.5935985934067,715.059712,83.90907639332923,73.46224872502525,413.65871508826257,576.1838771347,574.5901924106429,182.0,407.42352673230283,509.14644265618807,0.8002089234028572,886.4413576170213,715.059712,83.90907639332923,74.60033081436151,356.68479823322684,466.41208570059297,465.1635403898381,188.0,329.80314862625045,447.28406204498407,0.7373460773862351,deceptive
1783771507635041656,1783771517635041656,1398.9231914666666,1472.18176,47.54847662288657,59.77102247389942,714.1858248786161,1055.2362718147092,1050.7946382163393,120.0,746.1647235541917,861.2443831902458,0.8663797850155228,1655.1529216,1640.431104,118.87119155721642,48.19639527185418,749.1819229763223,1097.6175350943943,1092.0999438404288,100.0,776.1328022145095,906.2869546078256,0.8563874811045501,895.0684187526882,715.059712,83.90907639332923,73.3824478422425,319.821242384044,430.6533521210922,429.48808772692854,186.0,304.51790562554237,397.75077213861385,0.765599784981485,908.6836173913043,715.059712,41.954538196664615,73.93160765525948,398.699478653641,503.4937764661257,502.33844481946977,184.0,356.02386362442127,504.52557202022973,0.7056606906936839,895.2945603440861,715.059712,83.90907639332923,74.3951007019839,373.8952823183883,457.73868401159683,456.74644781632196,186.0,323.6701274760064,476.66989475917967,0.679023640961276,deceptive
1783771508635041656,1783771518635041656,1401.8422233277308,1472.18176,30.35009146141696,60.85260093012765,724.2085428459152,1078.5160844070342,1073.941169380919,119.0,762.6260369029768,870.721994083552,0.8758547987588762,1651.7879347199996,1640.431104,36.57575124837428,48.78826709823478,745.1991401637296,1106.5525670882857,1100.9497332790236,100.0,782.450823927509,896.9553339320219,0.872340900741897,908.6836173913046,715.059712,83.90907639332923,72.69244712286435,332.9175214692924,439.2296776058039,438.04152096746105,184.0,310.582283533445,416.45825094490436,0.7457705131997341,913.6491016393443,715.059712,83.90907639332923,73.37166583266786,361.52193726682987,496.6242309380022,495.2701321412498,183.0,351.16636139781536,446.9198088713822,0.7857480344955499,899.9066264216217,715.059712,83.90907639332923,73.55011217628773,340.4219415697762,467.1253258306236,465.85445850506403,185.0,330.30748555880945,420.97824064455006,0.7846189034689377,deceptive
1783771509635041656,1783771519635041656,1438.5318911999998,1514.244096,36.57575124837428,59.796022158700154,786.6223088492818,1170.4695784637756,1165.3260926257003,115.0,827.6469761042955,946.0705867066462,0.8748258192714843,1654.7322982399999,1682.49344,34.79156826064871,49.38464701620182,749.0828023469451,1115.1822135458826,1109.535685043415,100.0,788.5529054569181,900.7453842188874,0.8754448474257119,926.3113324692738,715.059712,44.576696833956156,71.96718178311717,359.84939113784975,497.1028314710063,495.7171812501526,179.0,351.50478308018205,444.07810387412644,0.7915382001806957,921.1651584,715.059712,44.576696833956156,72.98398375643056,368.2268373775,504.8439531395716,503.44413866310913,180.0,356.9785827060147,455.48342810103867,0.7837356107428504,904.5688236521739,715.059712,83.90907639332923,73.26579135392599,343.94379677956186,476.51361967698057,475.2101087460934,184.0,336.94601180134043,424.06174462201443,0.794568281799802,deceptive
1783771510635041656,1783771520635041656,1430.838438290598,1556.3064319999999,37.53827101806834,57.7338703285909,710.8235017232723,1078.2558664940686,1073.5987031055467,117.0,762.4420350521325,848.45811493382,0.8986207116559941,1656.6729961188116,1682.49344,31.009876058404284,48.19640916210767,734.1768457333019,1092.0063378078312,1086.5443113154324,101.0,772.1650865626051,883.1261637890044,0.8743542182576418,928.8765866666666,715.059712,83.90907639332923,71.82620960443374,360.7361574350131,500.8137501366609,499.41309090145404,180.0,354.12879883309813,444.47446212405805,0.7967359860019508,918.6691516483517,715.059712,83.90907639332923,73.13623648838929,367.1222521287964,499.24582902888847,497.86500368977477,182.0,353.02011118542674,455.2426787610687,0.7754547797367372,923.7446718232044,715.059712,41.954538196664615,72.29145648339527,361.32731708253976,511.10154361856917,509.6991778463991,181.0,361.40336736760224,442.5027267348885,0.8167257409560001,deceptive
1783771511635041656,1783771521635041656,1398.661038252101,1514.244096,118.87119155721642,58.66914471045964,683.8316378744305,1020.8521906463297,1016.6223988062144,119.0,721.8515065951619,821.411358047355,0.8787941626606369,1662.72414208,1682.49344,109.72725374512285,50.08575660974494,803.8433903051679,1201.1336830003193,1195.0531628118367,100.0,849.3297723610987,965.2190741821956,0.8799347164587615,940.4277963636364,715.059712,95.09695324577314,71.747797190379,407.9885384588717,581.1833974444695,579.5276719476622,176.0,410.9587214460208,498.4633985172215,0.8244511486068972,932.6559306368714,715.059712,83.90907639332923,72.38964895846642,379.3954603114121,528.1993502552114,526.7188552680669,179.0,373.49334238378833,467.0473126004577,0.7996905930241345,917.2824812307693,715.059712,83.90907639332923,72.9008371811848,362.24252099864214,509.93484803634976,508.5295470712757,182.0,360.57838900983455,444.33197131023513,0.8115067388614191,deceptive
1783771512635041656,1783771522635041656,1391.23827307563,1472.18176,62.01975211680857,58.469382500459055,674.8475286791464,1009.5750839291684,1005.3063855409557,119.0,713.8773879632928,809.9554996455397,0.8813785303954433,1649.5931969900992,1682.49344,29.717797889304105,49.4848480269711,691.8609616954762,1041.9394035403293,1036.7235283759921,101.0,736.7624178288333,828.2111750476954,0.8895828020992403,956.6735955348836,715.059712,28.52908597373194,71.39747500217011,452.7138746167893,592.2548088339798,590.5832845817943,172.0,418.7873915168495,567.6339180267055,0.7377772508251468,954.9352053028573,715.059712,29.11131221809382,71.38488636250375,423.2086374964912,561.6857295316671,560.129669035456,175.0,397.17178824755484,528.5247269649668,0.751472481766934,932.5006014915255,715.059712,28.52908597373194,72.76969537114923,407.8946995445783,564.0928676461623,562.5502396548405,177.0,398.873891931567,503.1957680672662,0.7926813324833971,deceptive
1783771513635041656,1783771523635041656,1396.2556789152538,1493.212928,25.025514012045562,56.779979270293694,616.1848102407257,880.840562504272,877.245097399575,118.0,622.8483348909436,751.9291300412477,0.8283338282914731,1585.4265107692304,1640.431104,178.30678733582462,53.32906092406024,716.8010269098096,1093.1770108792532,1087.9358695954,104.0,772.9928774299601,853.7262032286408,0.9054341714083959,991.4693485714287,715.059712,83.90907639332923,70.07665130439612,489.5014958502045,659.6649802038138,657.6874038706118,168.0,466.4535808134064,608.6328592446772,0.7663956582828645,985.6026660355029,715.059712,83.90907639332923,69.90181485167616,446.76905481944857,610.2086560705404,608.3911362215167,169.0,431.48267864620885,553.27798230426,0.779865984995815,946.40256,715.059712,83.90907639332923,72.25899759463877,434.200674916364,624.1071571752667,622.3439040344764,176.0,441.3104030256896,528.8506559382372,0.8344707491054504,deceptive
1783771514635041656,1783771524635041656,1377.0996727394954,1472.18176,37.53827101806834,58.24375733216114,619.0470680998209,902.3070490180583,898.4894385060094,119.0,638.0274330730915,750.2659810820755,0.8504016564270883,1574.1020356923075,1640.431104,36.57575124837428,53.31197546545914,730.2764349935437,1100.7255385468575,1095.3863058798843,104.0,778.3304925316975,873.9039794001636,0.8906361692802148,964.0100494883721,715.059712,79.24746103814428,71.36227582152546,465.20415254045093,614.4133316353086,612.6142165946711,172.0,434.4558332507458,581.7678846060156,0.746785521763491,968.1673733953489,715.059712,79.24746103814428,71.07864862960294,446.896702106691,609.9422145135183,608.156192446065,172.0,431.2942760144486,553.5575385145246,0.7791317902956028,940.8180125649718,715.059712,67.92639517555224,72.50019093079906,432.0022920503252,623.008853202606,621.237155960856,177.0,440.53378483881704,525.563462277642,0.8382123500931161,deceptive
1783771515635041656,1783771525635041656,1371.3712026446278,1472.18176,109.72725374512285,59.17455472479906,633.8604546903755,911.1632802832319,907.408179058678,121.0,644.2897342564521,772.0126431648994,0.8345585269370179,1605.648787692308,1640.431104,43.225887838987795,51.933719159552226,734.5623849158903,1105.672604753129,1100.3070243076384,104.0,781.8285965931309,879.5088501210485,0.8889377252832946,942.3397207272727,715.059712,83.90907639332923,72.8871859506099,483.5350782739244,641.4674661501011,639.6320762190509,176.0,453.5859952252886,603.9389176982078,0.7510461437955361,962.8141650867053,715.059712,83.90907639332923,71.95537995373606,473.28999707078776,640.1412663346008,638.2776779077068,173.0,452.64823034254005,587.8449050884221,0.7700130194620873,937.0157675028247,715.059712,83.90907639332923,73.75375845686001,521.0684815531713,770.1756969153394,767.9845809621604,177.0,544.5964579939116,628.2770677865763,0.866809383816169,deceptive
1783771516635041656,1783771526635041656,1379.9951402666663,1472.18176,49.188079265055066,58.11406100635288,630.9537930036967,897.6929926561442,893.9166401277587,120.0,634.7648025308051,771.1953063559953,0.8230921496788626,1590.6843027692307,1640.431104,83.90907639332923,52.031093909726096,739.9518755997256,1082.7171075244084,1077.5047958352043,104.0,765.5966088371935,895.5380911360489,0.8549012224214649,925.1377123555557,715.059712,79.24746103814428,74.0116031220988,479.1823060843665,632.9875133280094,631.2169591561595,180.0,447.5897630806456,599.2187137609845,0.7469555819966923,940.8180125649718,715.059712,41.954538196664615,72.77979332003257,449.9875846298252,582.3066317884743,580.6642088338209,177.0,411.7529680675282,565.868712057628,0.7276475254662874,940.8180125649718,715.059712,41.954538196664615,73.68790087047108,526.935884131319,770.1583559170152,767.9780362061153,177.0,544.5841960564042,637.9944189985596,0.8535877114900494,deceptive
1783771517635041656,1783771527635041656,1423.3466749830504,1535.2752639999999,33.96319758777612,55.87483655700805,635.6264310212389,932.2102842880776,928.2185572593711,118.0,659.1722135119389,768.6272933564622,0.8575966781422086,1568.492716261682,1598.3687679999998,17.610546897365396,53.548176598171196,764.2970529881812,1105.906466300715,1100.816037147769,107.0,781.9939616792876,928.7317655606508,0.8420019543610835,897.4056226594596,715.059712,83.90907639332923,75.32151004464788,452.7409490727145,573.6874866453603,572.1264293663457,185.0,405.65831208880115,572.4241441895659,0.7086673687797173,906.1690212173913,715.059712,83.90907639332923,74.40871217527679,414.9265027223924,555.9605020482356,554.4394034329182,184.0,393.12344107018487,516.7736306773397,0.7607265884579183,912.198023032967,715.059712,83.90907639332923,74.98406895690967,499.8943859513797,729.3231176184551,727.3056224185146,182.0,515.7093221441236,605.6490252103426,0.8514986414202799,deceptive
1783771518635041656,1783771528635041656,1423.6482953846153,1430.119424,46.014654796341844,57.931604984146716,780.6407451812893,1061.7751936786228,1057.2215658751736,117.0,750.7884395458142,967.9660663456018,0.775635082312641,1544.6224497777775,1598.3687679999998,36.57575124837428,53.44014351581849,750.5600450641425,1063.376986699923,1058.485695798054,108.0,751.9210782532327,918.6882542694356,0.8184725065971151,895.6803312941177,715.059712,36.57575124837428,75.06205569816183,417.5231065207055,540.07385880938,538.6430672683061,187.0,381.88988790569863,525.1010814263167,0.7272692847411061,910.2838149565217,715.059712,36.57575124837428,74.69765277157849,468.94668893826736,638.556944646364,636.8299398327069,184.0,451.5279457332068,581.2772584948626,0.7767858438198257,905.3633619027028,715.059712,36.57575124837428,75.06406943978521,479.04418597766556,685.5885759302446,683.741521437587,185.0,484.7843311443042,584.3447102323194,0.8296204665762565,deceptive
1783771519635041656,1783771529635041656,1417.2868469152543,1472.18176,43.225887838987795,55.969735946305086,704.6643589212413,959.928266641725,955.828631926339,118.0,678.7717867950121,873.3488124416963,0.7772058278722697,1508.890707781818,1556.3064319999999,43.225887838987795,54.164261610172275,737.8855002944373,1044.2237210078215,1039.4410047959807,110.0,738.37767420048,903.5204636369278,0.8172229671791815,905.1359979243244,715.059712,25.472398190832095,74.40860374564247,421.0824094568131,535.0837465463542,533.7022037041827,185.0,378.36134568563085,532.0170459237088,0.7111827498472443,895.4553990160429,715.059712,36.57575124837428,75.51771367180882,450.43951410325707,600.160312573114,598.565480355677,187.0,424.37742681948686,561.9105013560364,0.7552402487502077,900.2696753548387,715.059712,36.57575124837428,75.37454044322412,477.17303639028546,685.0438043885332,683.208136850996,186.0,484.3991194929626,581.4352585052533,0.8331092970492536,deceptive
1783771520635041656,1783771530635041656,1372.0664478677684,1430.119424,59.43559577860821,58.72728197229691,709.9331568617155,964.922339519135,960.89655129458,121.0,682.3031295923685,880.4779350429584,0.7749235982376764,1494.5392178738737,1556.3064319999999,30.35009146141696,53.4505567804268,696.5054501326096,971.947070825693,967.5251635399234,111.0,687.2703647352491,856.7785052201046,0.8021564039572757,935.7107371620111,715.059712,54.863626872561426,72.93006183779497,448.9831510010428,559.5274659636156,557.9575991618754,179.0,395.6456654429977,570.003503036371,0.6941109367493699,925.371392,715.059712,83.90907639332923,74.53106071396897,500.6223034000964,650.1083154017687,648.29994384484,181.0,459.6959983263535,628.9556231441173,0.7308878105395679,911.3506133333335,715.059712,64.83883175848167,74.72659241569916,488.22929098700166,698.3362837020283,696.4160935586336,183.0,493.7983217543169,595.6654177234487,0.8289860499901877,deceptive
1783771521635041656,1783771531635041656,1391.2117632,1451.150592,33.96319758777612,59.06711508672834,730.2361813185312,1021.3823648554785,1017.0817884287471,120.0,722.2263963736613,897.5991740213998,0.8046201659678026,1479.626421238938,1598.3687679999998,40.755837105331345,54.32879401760264,691.6626038554405,970.3325564117093,966.0366284707993,113.0,686.1287306447979,849.35740276756,0.8078209813785161,930.2786645333334,715.059712,83.90907639332923,72.5863607097207,388.60460495228534,495.6670515887696,494.2805676096987,180.0,350.48953338916124,490.5156689368521,0.7145327980017749,940.7312337977529,715.059712,41.954538196664615,73.50235206979166,504.28505520437784,643.8779929611048,642.069261833711,178.0,455.2904950795814,636.3663381654153,0.7154534546754018,920.0558220659342,715.059712,83.90907639332923,74.05250052802982,486.56627944763466,700.2392928941831,698.3022510287931,182.0,495.14395245874994,592.3763345735471,0.8358604548495427,deceptive
1783771522635041656,1783771532635041656,1404.3164783865543,1472.18176,39.62373051907214,58.74304476772491,733.4045652957185,1050.8649318840307,1046.4056152700146,119.0,743.0737194463375,894.2512155581878,0.8309451600605474,1506.214013672727,1598.3687679999998,43.225887838987795,53.48724744777792,696.5467906287639,978.0015813532573,973.5050750236129,110.0,691.5515501860551,855.1216812758838,0.8087171280164783,924.9066148066299,715.059712,41.954538196664615,73.11680887845796,393.5317865914591,520.4457147395595,519.0150631968722,181.0,368.01069413182205,491.95385822050287,0.7480593717935083,920.9560086629834,715.059712,83.90907639332923,74.11132466743574,474.0496129956371,617.5680902812132,615.869785101529,181.0,436.6865844822719,595.0617485851619,0.7338508743345578,905.1359979243244,715.059712,40.755837105331345,73.97840491183935,389.4802635612067,545.2171220553179,543.7508827355641,185.0,385.52672422432886,478.6170952461302,0.8055013664442359,deceptive
1783771523635041656,1783771533635041656,1365.6468270163934,1430.119424,35.661357467164926,60.45068401762222,728.103060141266,1005.0429492446483,1000.9430772939843,122.0,710.6726847946179,898.743734285562,0.7907400715951056,1474.8343397477477,1598.3687679999998,36.57575124837428,54.29727707849576,650.942321674495,901.6313671047877,897.5249890573625,111.0,637.5496538102929,802.6313174535064,0.7943244176330359,895.5207019354838,715.059712,41.954538196664615,74.07998275940095,343.5069942798159,432.65215881670576,431.49855592910086,186.0,305.9312753942918,434.9679730809131,0.7033420718940661,900.3613543783785,715.059712,41.954538196664615,74.78659019771759,442.29191111843636,584.7326048158476,583.1544418564894,185.0,413.46839004615947,552.9613137443849,0.7477347506398825,901.400383311828,715.059712,83.90907639332923,73.95563953177681,367.3891227779528,510.07828411425123,508.70194177928624,186.0,360.67981363318546,452.6638610380474,0.7967939229919428,deceptive
1783771524635041656,1783771534635041656,1400.8896650847457,1472.18176,37.53827101806834,58.22597320261346,728.966583155348,999.4059095077661,995.1258438176764,118.0,706.6866957708504,901.7103280569677,0.7837180897036413,1530.9911371851852,1598.3687679999998,33.96319758777612,53.74180936575766,806.77131247198,1136.7333412419018,1131.4091023185763,108.0,803.7918539929905,989.3023951162647,0.8124834812499643,898.9128258064517,715.059712,83.90907639332923,73.97501626554143,350.4400758653532,453.6084762266362,452.3809033004114,186.0,320.74962954355124,440.6544350382353,0.7278937962254255,889.3499234042554,715.059712,83.90907639332923,75.25620597035801,431.34116928798977,568.5989791462715,567.0766676665526,188.0,402.0601939300769,539.7075216021314,0.7449594045614819,903.7718140540541,715.059712,41.954538196664615,73.9603137792179,372.44375386588945,516.4518461975749,515.0629690753764,185.0,365.1866026026171,459.07305761415535,0.7954868980996734,deceptive
1783771525635041656,1783771535635041656,1385.623729719008,1430.119424,178.30678733582462,59.78250326973388,736.5573741531447,1008.3798229305338,1004.2245080522734,121.0,713.0322108058705,911.4966066943955,0.7822653486245333,1518.0679447272726,1598.3687679999998,178.30678733582462,55.8352450141036,809.0560064247425,1136.530635151937,1131.337033212819,110.0,803.6485191421887,993.0849771818066,0.8092444630698131,912.4998574863389,715.059712,83.90907639332923,73.08625368301792,355.3940318011892,473.264955582478,471.9632125926893,183.0,334.6488593903204,443.41279428337225,0.7547117803201142,899.2245344864865,715.059712,83.90907639332923,74.80711390971945,437.624912572371,575.1853897219031,573.6202565085945,185.0,406.7174895117848,548.0160308518049,0.7421634890490453,918.6691516483517,715.059712,83.90907639332923,73.33649355458238,395.623456460473,564.2539528400814,562.7122760469001,182.0,398.98779636453594,483.1565044367605,0.8257941116401937,deceptive
1783771526635041656,1783771536635041656,1371.8527454426228,1451.150592,47.54847662288657,61.16190464243583,737.3079776115726,1023.6360432968705,1019.4125397983124,122.0,723.8199876821835,908.4538625682738,0.7967603171787776,1468.4920814035086,1598.3687679999998,44.576696833956156,58.58013588590727,807.4883031387147,1141.7938294191856,1136.7441298788979,114.0,807.3701594992622,989.0153852123584,0.8163373103906832,908.6836173913043,715.059712,64.83883175848167,73.17035614221788,350.4050482317674,465.2189237505219,463.9481422646074,184.0,328.95945572030143,437.56169153470915,0.7518013164418144,907.9978184347826,715.059712,75.07654203613669,74.1444843742343,439.4914836072568,585.3870519050739,583.7858499762463,184.0,413.93115402087926,548.3028617398298,0.7549315951177543,908.6836173913043,715.059712,64.83883175848167,73.74143664351949,385.7839195159918,552.8200555947247,551.3092740825533,184.0,390.90281008695405,470.3785301725663,0.8310388017572672,deceptive
1783771527635041656,1783771537635041656,1397.325060338983,1472.18176,57.05817194746388,60.05319153230424,773.9347823745572,1012.3021050064154,1008.814268133909,118.0,715.8056830594528,970.4438194909593,0.737606514341989,1527.0964764444445,1640.431104,34.79156826064871,56.32255649560949,817.713665596173,1184.3913125563083,1178.846993417599,108.0,837.4911286870014,993.2852472934177,0.8431526904975822,925.1364068826815,715.059712,83.90907639332923,72.3321382614095,364.8293769741791,499.5125964504967,498.10749494287205,179.0,353.2087442382456,451.4673189761981,0.7823572812296236,934.3509918202247,715.059712,83.90907639332923,72.54308093131515,453.443013487603,622.6917809467254,620.9302730868214,178.0,440.30958089655775,560.6111570837544,0.7854099500748541,929.1311538770948,715.059712,83.90907639332923,72.88082922843378,407.86516448707346,599.8878540777331,598.2004024815973,179.0,424.1847695698111,492.6881624685518,0.8609599375079094,deceptive
1783771528635041656,1783771538635041656,1365.4616182479338,1430.119424,71.32271493432985,59.817718339310204,653.5933315071044,912.7857295356473,908.9747693230051,121.0,645.4369791249661,803.7873095353834,0.8029947368764142,1513.0864170275233,1640.431104,57.05817194746388,57.392683794486565,820.1148581655672,1193.5684222941702,1188.0696901662495,109.0,843.9803252143365,994.4975447397586,0.8486499837816999,920.2588428729281,715.059712,83.90907639332923,72.65920531499384,365.68875964208206,497.0463283984034,495.67964018043534,181.0,351.4648293743866,453.5336533417841,0.774947629100242,910.201369180328,715.059712,83.90907639332923,73.46493426607911,383.03099883151236,513.9349126231375,512.5361176579188,183.0,363.40686180433636,476.8576501729778,0.7620866765428054,920.2588428729281,715.059712,83.90907639332923,72.88351643446215,377.64240482807656,563.7471722718478,562.1790268913271,181.0,398.6294483881644,453.6241321706106,0.8787659652953331,deceptive
1783771529635041656,1783771539635041656,1359.0961353442622,1430.119424,178.30678733582462,62.089675911994796,674.6483392286281,918.4385289666299,914.6355205997033,122.0,649.4341119353013,836.3123999889606,0.7765448795735588,1539.1699247407405,1640.431104,83.90907639332923,57.53380513326478,832.4747619636701,1209.8568962226425,1204.2211432099045,108.0,855.4980155843397,1009.9950649773328,0.8470318769364873,909.9715203497269,715.059712,83.90907639332923,73.50269752228182,376.6362334559006,520.0231439783739,518.6074237654152,183.0,367.71189148105657,464.86953775807586,0.791000187395412,905.0260229565218,715.059712,83.90907639332923,74.05033953894448,391.3314584622956,521.3408782538983,519.9291813349881,184.0,368.6436703230817,488.19211682473764,0.7551200800225659,909.9715203497269,715.059712,83.90907639332923,73.33200103282957,366.5645996731828,547.4624548592789,545.9563654724483,183.0,387.11441427603023,440.2390561921835,0.8793277398519543,deceptive
1783771530635041656,1783771540635041656,1446.5785989565213,1514.244096,33.173355783409235,58.63244893339462,741.8756121466332,1048.425014799947,1043.825921272807,115.0,741.348437530649,908.823467391394,0.8157232555388887,1556.3064319999999,1682.49344,37.53827101806834,57.5917933709018,823.3091830048097,1193.5672706646287,1187.9308108512325,106.0,843.9795108892783,999.7626289473125,0.8441798947595551,876.6676345263157,715.059712,83.90907639332923,75.27763210267987,346.52094371307953,497.2342450894481,495.91706596745627,190.0,351.59770654092256,422.3068259467139,0.8325645832333448,864.5902153717278,715.059712,83.90907639332923,75.60712287709806,303.0574106020691,427.8962667242539,426.7770066516068,191.0,302.5683518451276,371.36745209094966,0.8147411684614385,895.520701935484,715.059712,83.90907639332923,74.04544929239073,350.6163152313696,524.3691353466942,522.950001119843,186.0,370.784971448574,420.8596600849104,0.8810180842083236,deceptive
1783771531635041656,1783771541635041656,1428.321888273504,1472.18176,67.92639517555224,58.44954654865662,693.6744875374059,943.5557950874554,939.5202467640345,117.0,667.1947011342043,860.1129023039855,0.775705955982045,1600.4106289708739,1724.555776,35.661357467164926,55.8722852146799,822.8679922848842,1194.1141518542793,1188.2874494476016,103.0,844.3662142869836,998.8725211653617,0.8453192938993664,870.8218,715.059712,79.24746103814428,75.67050105687817,345.2230591925872,503.2791992888875,501.96003379652865,192.0,355.87213464730826,418.3723617632517,0.8506110039092136,844.4332606060608,715.059712,79.24746103814428,77.00975678658229,293.1044202465654,416.16814329884915,415.11059003699165,198.0,294.27531624043104,358.4988444360003,0.8208542950909441,884.6443682539683,715.059712,79.24746103814428,74.54460062612401,340.16766353896156,501.74934977643863,500.41318077661083,189.0,354.7903676828607,410.4753051461715,0.8643403469948546,deceptive
1783771532635041656,1783771542635041656,1420.7722382222223,1430.119424,36.57575124837428,59.52663805431477,728.7526766195616,977.383031222839,973.2259725248941,117.0,691.1141691943326,907.381689218911,0.7616576104695864,1601.1998867692305,1703.524608,178.30678733582462,55.389951200787905,839.0440255695278,1207.514791650518,1201.8336782617505,104.0,853.8418975591424,1021.502207865523,0.8358688713392849,853.9732729435898,715.059712,83.90907639332923,76.64766171978192,324.0895372500486,473.77665387990874,472.5540024122758,195.0,335.0106847263553,392.36714550213117,0.8538194101283021,848.9332382538072,715.059712,41.954538196664615,76.7559466596755,296.9916384492065,407.534233891252,406.5014336494528,197.0,288.1702203501688,367.2696947328434,0.7846283657021782,871.8575299685865,715.059712,83.90907639332923,75.26449248261957,331.6465008152345,486.2196507438022,484.9809325218478,191.0,343.80921218709733,401.09402365732456,0.8571785963104536,deceptive
1783771533635041656,1783771543635041656,1440.7264478608695,1430.119424,158.49492207628856,58.834565158693046,737.4935922300473,1015.3600023062703,1010.9324793464345,115.0,717.9679429763522,911.0733305228022,0.7880462734699522,1639.1817276831682,1724.555776,40.755837105331345,52.7612202511251,815.9107791634816,1182.2619389279025,1176.4227061187996,101.0,835.9854341546759,990.9515508090839,0.8436188766969661,866.2627408842105,715.059712,29.11131221809382,75.79693812387052,331.9585252707071,475.17431532864805,473.9690798435656,190.0,335.99898061456184,404.90155286537623,0.8298288268760395,861.7273338638744,715.059712,44.576696833956156,76.21406588109795,316.4432928040782,409.8680720600264,408.8015362660774,191.0,289.8204931455012,397.837600030244,0.7284894467578448,878.6354631111112,715.059712,40.755837105331345,74.83365428739518,335.8081272757292,487.123123580359,485.8425475695306,189.0,344.44806395644446,407.6910132774492,0.8448752921665077,deceptive
1783771534635041656,1783771544635041656,1411.9399397966101,1430.119424,46.014654796341844,60.171318676514765,735.7591098384526,1013.0496275446844,1008.739317409188,118.0,716.3342613153526,908.9089879924383,0.7881254017495888,1617.1538889320389,1724.555776,25.935532703392678,52.38066869933041,705.8978982210666,1055.056225699885,1049.8745584073395,103.0,746.0374117254734,847.5244985124718,0.8802546864838444,863.9124347357513,715.059712,83.90907639332923,76.27202268009167,346.5088179344501,507.2559984931068,505.933294811547,193.0,358.6841563320289,419.2965058414512,0.8554427507384436,864.6877093333334,715.059712,83.90907639332923,76.06034364569219,318.8208475813922,407.4668288554106,406.3987619361762,192.0,288.1225577922392,402.22650528112075,0.716319173424106,868.4119786666666,715.059712,83.90907639332923,75.28055241195091,314.2343152611994,451.3365918753773,450.1535319326178,192.0,319.1431647127045,382.8318560202762,0.8336379527825958,deceptive
1783771535635041656,1783771545635041656,1429.7599168547006,1472.18176,35.661357467164926,58.03127849828061,717.8165137924352,1001.8608650792147,997.5500234725238,117.0,708.4226115029335,882.9438242051034,0.8023416576255145,1668.1922457599992,1724.555776,23.007327398170922,49.26767470236202,724.7589900502753,1056.0465698649666,1050.7338248696587,100.0,746.737690800311,878.4888148898082,0.8500252685561818,874.3596228085106,715.059712,44.576696833956156,75.74910262140601,357.4073046158652,514.3783353480279,513.0122437253389,188.0,363.7204090200386,435.12491863452686,0.8358988268505421,872.1222645106383,715.059712,83.90907639332923,76.00410606216087,339.9492014051551,440.77456696801625,439.59588419604444,188.0,311.6746852776483,427.270832553013,0.7294546258057006,874.0110659368422,715.059712,62.01975211680857,75.08892965286549,336.73111604597835,466.8668816918363,465.6301992432576,190.0,330.12473795571503,415.0717019045933,0.7953438802040911,deceptive
1783771536635041656,1783771546635041656,1437.434612869565,1472.18176,27.96969213110975,57.41696847558589,714.6094483217117,997.5914854584466,993.2147393194009,115.0,705.4037042216287,878.9403474050584,0.8025615234347006,1666.7731730101004,1724.555776,36.57575124837428,49.11919786920157,715.7053994572924,1051.1051122693168,1045.7307823128726,99.0,743.2435526254812,865.021935192959,0.859219312698339,898.5424425513513,715.059712,83.90907639332923,74.92629756159086,400.20214932045633,582.2187481095569,580.6344764706026,185.0,411.6908249222101,485.3646597959731,0.8482093135813958,907.3120194782608,715.059712,83.90907639332923,74.62373766312885,396.08468689923825,514.8542913120156,513.4456586003035,184.0,364.0569607097204,497.4911286360147,0.7317858344687783,907.3120194782609,715.059712,83.90907639332923,73.85756778217485,392.45554842357666,509.6164188446458,508.2221168642141,184.0,360.35322556905294,493.06743087319234,0.7308396438411869,deceptive
1783771537635041656,1783771547635041656,1391.2117632,1409.088256,25.025514012045562,58.80745561243449,694.848259403487,1008.6532373015173,1004.4391579022165,120.0,713.2255439616667,843.3758764112259,0.8456793274626478,1720.6530850309277,1724.555776,118.87119155721642,48.357499725072316,894.4858972667527,1295.6998680355457,1288.9349565627658,97.0,916.1981630704491,1086.508400248881,0.8432499581784921,900.1339904000001,715.059712,83.90907639332923,74.70738329684482,396.6262333459902,578.2938172579169,576.7213583722014,185.0,408.9154797013271,480.6441544290043,0.850765531908134,920.0264542762432,715.059712,83.90907639332923,73.98459532956734,407.1591317272403,537.7240999448759,536.2283415538845,181.0,380.22835747845454,509.18593380255385,0.7467377479164518,914.1087993005465,715.059712,83.90907639332923,73.30692940027403,392.6765993536392,481.81100376394687,480.4855795202145,183.0,340.691828011784,500.35423703899164,0.6809012551346388,deceptive
1783771538635041656,1783771548635041656,1358.0618156065573,1345.994752,142.6454298686597,61.85669344312315,705.4659857708473,1028.3686469265097,1024.1634704348642,122.0,727.1664438013695,854.9730964561993,0.8505138311549463,1701.7720106666663,1682.49344,41.954538196664615,49.115504032307,904.2381085247124,1319.14312586276,1312.1830950118492,96.0,932.775049653177,1095.5630822499247,0.8514115387473309,889.7973950638299,715.059712,62.01975211680857,75.2062309808902,387.88738028713675,563.598574177224,562.0912262813854,188.0,398.5243736677846,470.64041620794285,0.8467704003807968,909.1408166956522,715.059712,62.01975211680857,74.40587239623873,401.37683302649623,520.0749563854499,518.6538735187695,184.0,367.7485283854496,504.56638226890203,0.7288407260344643,903.0897221189191,715.059712,79.24746103814428,74.12088539015134,390.8099373976925,479.39281401741584,478.0883960100813,185.0,338.98190964381615,498.0064726534109,0.6806777185800387,deceptive
1783771539635041656,1783771549635041656,1409.2649885042017,1430.119424,41.954538196664615,58.98720750346504,705.4519629335141,1023.6787833588389,1019.3324933147993,119.0,723.8502094698297,856.3558729516241,0.8452679923533616,1724.993925333333,1682.49344,27.96969213110975,48.71417889106635,952.3976453755196,1411.118623875255,1403.680485063487,96.0,997.8115480008221,1147.3049320785515,0.8697003909789746,907.7692187826088,715.059712,83.90907639332923,74.3516485230907,402.5694640350162,570.7827334337119,569.2210814417547,184.0,403.6043413951712,492.62167486862114,0.8192987884725327,929.1102663111111,715.059712,64.83883175848167,73.57883364047794,425.7683546821624,536.89434297899,535.3938268720849,180.0,379.6416307011399,538.974489022255,0.7043777366714362,934.3008264581005,715.059712,64.83883175848167,72.4989304381154,410.89238247958104,505.03370918650137,503.6144630789936,179.0,357.1127604935699,523.3548873430186,0.6823529676135615,deceptive
1783771540635041656,1783771550635041656,1364.6125072786883,1430.119424,59.43559577860821,59.44540480649721,651.1790781302836,942.2541841311519,938.3556488477172,122.0,666.2743232005353,791.2696422276331,0.8420319542713619,1760.8622133894735,1682.49344,34.79156826064871,47.89345958790301,1042.4732548923519,1482.9773158004346,1475.6934204939798,95.0,1048.6233163483114,1274.2431261486338,0.8229381778324735,933.3608859888269,715.059712,83.90907639332923,73.00307021238991,420.45249903793245,596.9312835246899,595.2521485991866,179.0,422.0941584826979,514.2750903766162,0.8207555963357822,960.6650762298852,715.059712,75.07654203613669,71.75218658493364,441.70366459788744,566.8350687159307,565.1946519726152,174.0,400.8129209033772,556.667545180117,0.7200220748879638,945.8084592090395,715.059712,57.05817194746388,72.02147095142422,420.7215102020042,508.2574146742086,506.81505101724173,177.0,359.392264504476,537.9886415162337,0.6680294652533689,deceptive
1783771541635041656,1783771551635041656,1394.7729231596638,1472.18176,59.43559577860821,58.14677948664782,662.0356858292282,965.4725321467653,961.3781954233202,119.0,682.6921745303248,802.2145573599879,0.8510094565935079,1740.9379489684204,1640.431104,25.025514012045562,46.83986028671842,940.0479054933625,1385.1334143282784,1377.7951048604534,95.0,979.4372301196014,1134.7825718492231,0.8631056331113074,942.1963264,715.059712,83.90907639332923,72.5927919579669,443.63578546231787,610.1951451181534,608.4391842254273,175.0,431.4731249601557,548.2160992748155,0.7870493506683071,979.878206106509,715.059712,83.90907639332923,70.44895467947107,445.3967089288479,570.8026197863514,569.1012669116703,169.0,403.61840316997564,561.5180753640592,0.7187985941650951,961.3553557456647,715.059712,83.90907639332923,71.17220556152847,431.9569554101524,526.1849081169075,524.6530710728942,173.0,372.06891668748574,551.3220322750734,0.6748667655310533,deceptive
1783771542635041656,1783771552635041656,1420.053223931624,1514.244096,101.88959276332838,57.15820426608689,647.0147799363679,919.4674428391764,915.5786511797813,117.0,650.161663911836,791.1391510359663,0.8218044361228669,1722.8031786666663,1682.49344,38.552818883421544,48.03681134199286,931.8875663238001,1376.373222622704,1369.1512257011573,96.0,973.2428391600956,1123.9341887092803,0.8659251128197837,962.8141650867053,715.059712,49.188079265055066,71.6378168219319,457.599064839406,632.354351225772,630.5191705528812,173.0,447.1420498645632,564.6466168368106,0.7918971557280975,997.4062907784435,715.059712,49.188079265055066,70.21872731388997,494.3815316201552,646.3752135335043,644.4313869721118,167.0,457.0562966804435,619.980619412059,0.7372106197672434,979.8050032941176,715.059712,49.188079265055066,70.50442570239609,462.28157308536936,577.8815292323582,576.1757884346707,170.0,408.62394804265256,586.4484121997307,0.6967773115966502,deceptive
1783771543635041656,1783771553635041656,1408.7317955254232,1514.244096,22.64213172518408,58.07532358265522,661.1586144811967,884.0265982011055,880.4626514388556,118.0,625.1012023372771,823.9451865407289,0.7586684315272438,1734.6332106666666,1640.431104,129.67766351696335,48.97458127212506,976.5205014765263,1369.9622024253938,1363.2282229067694,96.0,968.7095633042537,1199.1603189688083,0.8078232309565366,957.0390127816091,715.059712,31.009876058404284,72.0925739169663,458.10282294595027,640.1133437814123,638.2995687758469,174.0,452.62848611583235,563.2762373474867,0.8035639640104408,973.8291709005849,715.059712,83.90907639332923,71.68923046258176,494.68941362982287,651.3858764624687,649.4672099192835,171.0,460.5993704157543,619.1601908239429,0.7439098592608402,979.5575777882352,715.059712,31.009876058404284,70.95865227307593,480.9019183783206,628.5318393912204,626.6979867669055,170.0,444.43912582518595,603.1336849470191,0.7368832763240983,deceptive
1783771544635041656,1783771554635041656,1440.9976143448275,1556.3064319999999,109.72725374512285,56.61416861955416,682.0151250200438,924.9851347493096,921.0386370269733,116.0,654.0632612779892,846.3981844471385,0.7727607091988493,1734.6332106666666,1640.431104,79.24746103814428,49.41707268974506,995.3904775763077,1441.674037946464,1434.0662746276969,96.0,1019.4174884925368,1209.131257464203,0.843099111200272,968.1673733953489,715.059712,83.90907639332923,72.13152379196775,544.6675529374758,789.4890014304423,787.177169230367,172.0,558.2530265836616,661.4395403972209,0.8439970586705602,1003.1613748433734,715.059712,83.90907639332923,71.01327204175408,543.1135929217292,722.2053827006475,720.0135555436623,166.0,510.6763235170536,677.900874709756,0.7533200539617245,985.3537764733729,715.059712,83.90907639332923,71.00865655253148,525.8125027390956,677.3594852814164,675.3405255437975,169.0,478.96548534351894,662.0072567565453,0.7235048867744657,deceptive
1783771545635041656,1783771555635041656,1438.8219762758617,1556.3064319999999,35.661357467164926,56.19661653983287,670.6275914485374,906.4532581760108,902.5202279421088,116.0,640.9592456848975,833.1076494125211,0.7693594532913963,1714.5822324123708,1640.431104,50.94479638166419,49.20857945259015,966.6099078715539,1435.7459675517805,1428.2496236316,97.0,1015.2257097171048,1163.326182614149,0.8726922207112688,974.0751494736843,715.059712,79.24746103814428,71.98209735254929,553.1565190583517,812.8224027825388,810.4282603802761,171.0,574.7522329078764,668.4266635444836,0.8598583274044196,985.602666035503,715.059712,79.24746103814428,71.49162030194628,522.4786389274551,698.617591703679,696.5353143600585,169.0,493.9972365498861,651.1153672057741,0.7586938681386806,979.8050032941176,715.059712,79.24746103814428,71.1216056331287,500.11499167287957,633.5584326570777,631.6812673926864,170.0,447.9934640097402,632.3613981689629,0.708445305654219,deceptive
1783771546635041656,1783771556635041656,1474.4350994285712,1556.3064319999999,75.07654203613669,54.145311279213615,699.9278941612915,916.4903923207108,912.3527957428581,112.0,648.056571302294,877.3878585016308,0.7386204003426945,1694.0820427755104,1682.49344,101.88959276332838,49.722493564598395,819.2065830864382,1245.7914544054443,1239.5428504147367,98.0,880.9075853543412,976.8314924166332,0.9018009679182426,935.5325181123596,715.059712,83.90907639332923,72.6731853112973,407.7189296940896,575.0143579943499,573.4446472454557,178.0,406.59655181743386,499.80903681993817,0.8135038021809815,951.5702184228572,715.059712,83.90907639332923,73.07459496569678,494.74891606919186,650.3964045834632,648.5377767997245,175.0,459.8997081403162,619.5152210636204,0.742354170654166,931.5153287191011,715.059712,36.57575124837428,72.91923743056404,430.60699412687455,560.2223354881161,558.6375954877559,178.0,396.1370123958119,540.7240520700226,0.7326047563064811,deceptive
1783771547635041656,1783771557635041656,1515.0088657454548,1598.3687679999998,57.05817194746388,52.74868458861194,708.1823002736941,918.0518925818976,913.8544886887711,110.0,649.1607187258037,890.1345524546164,0.7292838110100228,1729.8135679999998,1682.49344,89.15339366791231,47.61342355626522,799.5513256837869,1221.1604536054947,1214.7589758690594,96.0,863.4908376612857,951.7123680203529,0.9073023180915722,906.2939390601094,715.059712,83.90907639332923,74.23773279683654,386.657784255921,539.6397475955002,538.1551787646123,183.0,381.5829249225751,475.6108913336225,0.8023006450769219,925.3713920000001,715.059712,83.90907639332923,74.45543797122458,478.24292079051446,622.3220003502421,620.5812361002415,180.0,440.0481065292332,600.5092959667676,0.7327914979580693,911.2735760879121,715.059712,83.90907639332923,74.42729545470296,432.0476171280424,573.533828866623,571.9472868816106,182.0,405.549659631474,539.5322267654054,0.7516690190367655,deceptive
1783771548635041656,1783771558635041656,1532.766959559633,1598.3687679999998,67.92639517555224,50.82733040689387,699.8562456147811,901.129661898485,896.9646359072219,109.0,637.1948946567595,881.2427941059797,0.7230639489122783,1729.4779642553187,1682.49344,33.96319758777612,46.90588947561042,739.8348279228645,1110.650326068218,1104.6633195136012,94.0,785.3483770898871,886.7497440182599,0.8856482704253426,905.0260229565218,715.059712,83.90907639332923,74.6585805813435,396.9973760127495,548.440680344617,546.9959836286517,184.0,387.80612415024234,489.91533774500283,0.7915778386021718,930.3060794636873,715.059712,83.90907639332923,74.27159579284357,491.01841523026286,656.3145260202798,654.4806781245728,179.0,464.08445194017463,611.9730214022278,0.7583413577232658,908.9122170434784,715.059712,83.90907639332923,74.58277752438872,430.862909073549,574.3940166593594,572.8358111016921,184.0,406.1579042528118,537.4044763835938,0.7557769279965962,deceptive
1783771549635041656,1783771559635041656,1470.692827752212,1556.3064319999999,118.87119155721642,54.457340503169895,711.1371826325297,943.799934405106,939.6854700619859,113.0,667.3673337012692,888.1118206618429,0.751445165096362,1720.653085030928,1682.49344,54.863626872561426,48.70254895887634,812.5646641337694,1262.9540724396238,1256.366607034993,97.0,893.0433889492242,960.0830274120532,0.930173082380659,875.8215197486911,715.059712,83.90907639332923,76.18507384558264,373.63333486611384,520.7639063222416,519.4494588707158,191.0,368.235689557653,459.7879688664624,0.8008815247286316,896.2688027675675,715.059712,41.954538196664615,75.36774099478876,434.0943412762425,588.8680195622658,587.2785128176607,185.0,416.3925698563707,538.6876721629274,0.7729758659307722,871.8575299685865,715.059712,83.90907639332923,76.54055019172947,402.7066835196013,549.7510947944844,548.315388614439,191.0,388.7327270939084,498.7873087256522,0.7793556898772718,deceptive
1783771550635041656,1783771560635041656,1467.3851778245617,1556.3064319999999,52.83164069209618,55.49248262098158,770.8276702446882,1051.650656576229,1046.9923540465543,114.0,743.6293107043366,954.9127282429553,0.7787405997536745,1727.5912023092783,1682.49344,37.53827101806834,49.24765908910593,834.6540678742499,1274.0913020756589,1267.4441727050507,97.0,900.9185995484963,993.7140758446837,0.9066175285709738,875.3393502315789,715.059712,83.90907639332923,76.53676702122817,401.5077439100443,565.4749484170193,563.9769989024392,190.0,399.8511706167875,492.41898574045643,0.8120141225170805,879.3242031157896,715.059712,79.24746103814428,76.31847609911279,424.81201753969657,574.3177601372819,572.796429149488,190.0,406.10398274894106,527.7028312317633,0.7695694597677516,883.9767121269842,715.059712,79.24746103814428,76.53013856858875,445.97970967230316,629.1630445192969,627.487547358662,189.0,444.8854552515686,546.6573595329947,0.8138287128003379,deceptive
1783771551635041656,1783771561635041656,1460.374788491228,1514.244096,27.431813436280713,55.90291586360907,778.4224603610023,1058.669399583125,1053.9825653407677,114.0,748.5923114799184,965.2397780787574,0.7755506232554354,1657.2560384000003,1661.462272,38.552818883421544,50.64154108905996,795.1828044965073,1211.900303245624,1205.7647334497344,100.0,856.942922547014,947.3414373298322,0.9045766275804269,867.3166053333333,715.059712,27.96969213110975,76.95543063409137,397.3313616143565,564.4900070263383,563.0601318041893,192.0,399.15471188036565,485.88288695578507,0.8215039520761891,872.1362480000001,715.059712,64.83883175848167,76.68427553275,411.98401470010043,563.9250624509225,562.4593410283107,192.0,398.75523574009463,509.8615377940916,0.782085343141009,888.5384275027027,715.059712,21.612943919493897,76.43114935682782,449.489576683046,625.5623077784871,623.9237944876066,185.0,442.33934988487437,553.39832748674,0.7993145767060045,deceptive
1783771552635041656,1783771562635041656,1423.2887882393159,1472.18176,158.49492207628856,57.55516696121068,762.8808426624753,1048.659038567001,1044.2153657505155,117.0,741.5139173232916,942.8960257688809,0.7864217231360445,1665.6685056,1661.462272,129.67766351696335,49.15232087869194,746.9033666134737,1064.336696037992,1059.009748474551,100.0,752.5996952341494,912.4286972053295,0.8248312416512994,910.2838149565217,715.059712,83.90907639332923,75.65058977817357,515.7595560993348,712.9961925260692,711.0463756396543,184.0,504.16444269537277,636.3371329542209,0.7922914074725907,900.4958169462366,715.059712,13.457116025345254,76.09019615589654,489.0130923165017,623.4833359061907,622.089201400049,186.0,440.8692947760775,617.3206147341241,0.7141658390364252,910.2838149565217,715.059712,13.457116025345254,76.2317975511239,523.8686831361114,714.6751652572848,712.9812916562007,184.0,505.35165569904257,648.9889416489661,0.7786752951676393,deceptive
1783771553635041656,1783771563635041656,1386.6550101333332,1388.0570879999998,37.53827101806834,58.30671868022171,749.2247740616234,1040.0371471141898,1035.6595318343198,120.0,735.4173194103546,923.1772350372519,0.79661552679067,1638.3488101386138,1640.431104,178.30678733582462,49.730599089880386,718.8692261861896,1038.3760317443455,1033.2533858849301,101.0,734.2427334680045,874.0650621605799,0.8400321271886191,944.8578979435028,715.059712,31.009876058404284,74.66897831949485,567.5583173335208,751.7856643520438,749.6767335803005,177.0,531.5927412621639,709.1893018564253,0.7495780602874694,917.2377911160222,715.059712,79.24746103814428,75.74508476269025,523.3172952983464,686.7071685986542,684.7969919677563,181.0,485.57529560552223,655.6144440641605,0.7406415462652655,922.3335566222221,715.059712,44.576696833956156,75.76431928031084,529.2764709921967,716.8883319002795,714.8869079452579,180.0,506.9166008402,657.1034510548669,0.7714410874367381,deceptive
1783771554635041656,1783771564635041656,1413.7222421694914,1472.18176,129.67766351696335,56.87110532289677,730.5109055300713,1004.458270786199,1000.218593299637,118.0,710.2592546918347,902.8057718906263,0.7867243174624737,1611.4366782135921,1640.431104,109.72725374512285,49.48036411272781,673.4876444213367,955.5625599194253,950.9141946135018,103.0,675.6847659670024,823.951614414621,0.8200539378116818,945.095538259887,715.059712,83.90907639332923,74.64578095757881,559.2982295004583,776.0340738071001,773.8264386504828,177.0,548.7389560208221,689.2545234652318,0.7961339930886971,955.8966301257143,715.059712,83.90907639332923,74.28590268694626,578.9717674744542,767.6579073291842,765.4497695393094,175.0,542.8161119039404,723.2509587921272,0.75052249195836,966.9474582196532,715.059712,83.90907639332923,74.0278308148459,574.6568418741243,754.6778219911065,752.4817865480617,173.0,533.6378055410056,719.7751857866278,0.741395113472554,truth
1783771555635041656,1783771565635041656,1391.9128021333331,1472.18176,118.87119155721642,58.93485942144629,735.6690417082884,1013.979805092844,1009.7905752131975,120.0,716.9919961673637,908.5037790631101,0.7892008956823031,1574.5598985660376,1619.3999359999998,25.935532703392678,51.34952198052567,678.9305259838517,969.8520196193516,965.2366765765345,106.0,685.7889398203121,828.6978238389945,0.8275500672167231,913.5846934505495,715.059712,89.15339366791231,76.1408363392019,532.5351029162581,736.9316097111953,734.8931042096018,182.0,521.0893384975044,656.8258691070076,0.7933447249968324,929.1102663111113,715.059712,64.83883175848167,75.41150580780189,556.3220629107769,727.9053966471154,725.8702445409422,180.0,514.7068420314589,697.5148089794268,0.7379152892603893,940.9057774545455,715.059712,83.90907639332923,74.95228363398422,543.5837201175636,722.120559352952,720.0544018725185,176.0,510.61634435269514,678.6766505440161,0.7523705787482057,truth
1783771556635041656,1783771566635041656,1309.562807433071,1388.0570879999998,62.01975211680857,61.87788109334735,657.448354622079,924.5790912583869,920.9146770807477,127.0,653.7761451721012,806.7001016440446,0.8104327045945745,1564.6395363018867,1598.3687679999998,25.472398190832095,50.65348593917109,662.9175597458475,934.392948819224,929.9577493438903,106.0,660.7155904029679,812.8018432176488,0.8128864321805483,913.8158051868133,715.059712,83.90907639332923,76.086131611294,532.0903069633837,736.3378713286793,734.3009715169868,182.0,520.6695020609766,656.2711515376576,0.793375574777341,944.9686167272729,715.059712,83.90907639332923,74.58996235792515,564.3773661990374,747.4988275563018,745.3600568563585,176.0,528.5614898940547,705.2340027650491,0.7494838419896022,939.629810983051,715.059712,83.90907639332923,74.96585602856715,541.8579431831232,719.1974197331973,717.1513347344444,177.0,508.5493725052115,676.6896105627509,0.7515253146598334,truth
1783771557635041656,1783771567635041656,1289.473488,1324.963584,17.830678733582463,63.241427010275146,669.1035738526678,932.765285552312,929.1948690105922,128.0,659.5646586694462,823.3385789588347,0.8010855746654174,1545.2994655700934,1598.3687679999998,52.83164069209618,52.313922267339436,735.8660547599899,1086.731456721203,1081.5967845202115,107.0,768.4351823762976,887.5535963192409,0.8657901737574639,922.5515705921789,715.059712,83.90907639332923,75.51052615856163,535.6556425149015,744.2997139618565,742.2060397329302,179.0,526.2993749776364,659.8169584552815,0.7976445106985014,962.8141650867053,715.059712,41.954538196664615,72.95850842055724,541.8490470893433,721.7445464736483,719.6554015765839,173.0,510.35046309592593,675.9970281533386,0.7549596253256922,952.0509308342859,715.059712,40.755837105331345,73.81359885987851,534.8016994290721,707.9241263213831,705.9003414557851,175.0,500.5779502874121,668.3835525111863,0.7489381634342869,truth
1783771558635041656,1783771568635041656,1307.2444109606297,1388.0570879999998,83.90907639332923,62.664711052753034,706.1997397011875,987.950553320828,984.0406513833029,127.0,698.5865357301593,868.0003287766182,0.8048228929990903,1537.6120604444443,1598.3687679999998,109.72725374512285,52.006697080598805,727.0491333250677,1097.2517938502756,1092.1531637437888,108.0,775.8741841006336,869.6036509586148,0.8922158770209189,926.5463175865924,715.059712,40.755837105331345,75.283731062916,536.0791499574773,741.2191494115098,739.1463793313433,179.0,524.1210868942034,661.3699820635061,0.7924778884867445,975.3513441882353,715.059712,41.954538196664615,72.57579049128891,564.1025796785518,737.1866176785137,735.0145345945929,170.0,521.2696563604518,707.5043558020842,0.7367723634287712,978.4500540952382,715.059712,83.90907639332923,73.16887675830802,580.9619006573026,757.9662026250048,755.6934352819444,168.0,535.9630417863576,728.9754926952268,0.7352277918215769,truth
1783771559635041656,1783771569635041656,1359.6650111999998,1430.119424,142.6454298686597,60.84175492262589,744.2917873050673,1016.7529571967722,1012.5474518607953,120.0,718.9529108253131,921.679925628983,0.7800461861363394,1526.3175442962963,1598.3687679999998,30.35009146141696,50.75476968520681,648.4485884693753,922.78815503016,918.4662750059703,108.0,652.5097620204492,792.51917895396,0.8233362413786526,953.1712117701152,715.059712,83.90907639332923,74.35513523187187,580.2741052831698,820.6543315330522,818.2790968793756,174.0,580.2902428371344,710.6811461959408,0.8165268572879004,1025.6939822111801,715.059712,83.90907639332923,70.65122446380245,631.7067993886124,832.1568123494457,829.5522879532126,161.0,588.4237250228744,790.5603839699479,0.7443121827936707,1005.1623687757576,715.059712,83.90907639332923,71.72694981964943,602.0730273243847,796.8040107920502,794.3710571707717,165.0,563.4255193076976,752.5022940559877,0.7487359490571568,truth
1783771560635041656,1783771570635041656,1342.6026281290322,1409.088256,31.698984415257716,60.9340515401255,700.7980787417641,929.6307384159512,925.8531337203934,124.0,657.3481991333766,875.3185516623928,0.7509816830512162,1568.6076812075469,1598.3687679999998,17.395784130324355,49.31869193211487,691.2270367578061,943.9192161535553,939.6910736176784,106.0,667.4516786344695,856.0629422150975,0.7796759393735831,968.4292862485207,715.059712,83.90907639332923,74.30272790524013,610.3173217425241,841.8509916354415,839.3417431579061,169.0,595.2785449340402,753.5225234911969,0.7899943616496217,989.85018251497,715.059712,64.83883175848167,71.7319840641432,568.1799315113225,786.2929866374018,783.9220804714964,167.0,555.9931028507302,700.7800681637791,0.7933917188991586,1010.274996148148,715.059712,83.90907639332923,71.30510568728532,586.7877713657314,766.2246504309885,763.8413642518987,162.0,541.8026462320439,736.1146130302678,0.7360302820258859,truth
1783771561635041656,1783771571635041656,1337.853654709677,1409.088256,83.90907639332923,62.892302628902826,734.7863763190032,974.4456398436994,970.4769369256373,124.0,689.0371198311441,917.8431028206423,0.7507134037545743,1581.1432399238095,1640.431104,29.717797889304105,49.15532167935733,665.2607376491858,970.4997703219434,965.823397912753,105.0,686.246968734633,806.0249667760555,0.8513966651423821,995.4752853333335,715.059712,83.90907639332923,73.55293147102854,655.9157851077318,909.7081170699363,906.9853864760865,168.0,643.2607784805977,808.4298483735322,0.7956915244714978,1004.4283126746988,715.059712,83.90907639332923,71.1272517491647,579.2489220830818,799.4947966710934,797.0684032251469,166.0,565.3281922494901,715.0249261338978,0.7906412372309731,1038.756819478261,715.059712,41.954538196664615,70.29577376375083,626.8036721501157,814.77842705404,812.2293171781884,161.0,576.1353509344204,787.2735963714113,0.7318108388111337,truth
1783771562635041656,1783771572635041656,1382.1475036033055,1472.18176,35.661357467164926,59.62888440776243,724.976743580667,988.5329544724432,984.4144365028033,121.0,698.9983555338373,898.2667793846947,0.7781634271420406,1581.143239923809,1640.431104,44.576696833956156,47.69300871196574,630.144399266798,884.7386976062111,880.5120274097309,105.0,625.604732655506,773.610552600043,0.8086817463294661,973.7919880930232,715.059712,83.90907639332923,73.7433196733443,583.8621491368086,830.0755128933935,827.644832674006,172.0,586.95202406382,713.8162782628303,0.8222732402408195,1002.9474368383233,715.059712,20.977269098332307,70.8091891442954,550.8491865595512,746.5060593199346,744.3663335184713,167.0,527.8594967419729,683.7776162732252,0.7719753969411156,1027.5596438773005,715.059712,36.57575124837428,70.438659928017,594.7956157618124,760.3591553209508,758.0302574492998,163.0,537.6551148647196,750.3513428980118,0.7165378191877215,truth
1783771563635041656,1783771573635041656,1381.2843389830507,1493.212928,34.79156826064871,60.94769031445034,764.1392713485692,1056.3185338047513,1051.7956479524807,118.0,746.929998346371,942.7966062833434,0.7922493498262471,1587.1521450666664,1640.431104,36.57575124837428,47.91866430310411,631.050071800222,894.6046877991128,890.3300606385135,105.0,632.5810412240269,772.2493116734347,0.8191409583172667,940.7312337977529,715.059712,83.90907639332923,74.54934706892953,534.4248971645895,759.0216875604391,756.8909735414295,178.0,536.7093823416434,653.5988531752408,0.821160226543027,973.5474396279071,715.059712,83.90907639332923,71.48045849054648,508.86538312823507,693.7548224177588,691.7233251650839,172.0,490.55873941246625,630.5267780875901,0.7780141247931582,996.7271405714285,715.059712,83.90907639332923,71.3248948192146,546.4083695103543,722.8234017365495,720.6604117826068,168.0,511.11332896824223,683.0122949240581,0.748322296343247,truth
1783771564635041656,1783771574635041656,1396.893713210084,1472.18176,37.53827101806834,60.58189241823538,777.0179562612132,1067.8497363019876,1063.3270327747034,119.0,755.083789827402,960.4363820028108,0.7861882410710179,1645.845068039604,1640.431104,31.009876058404284,44.811262458501915,627.6924889878196,871.1852828714414,866.9434185887352,101.0,616.0210211883168,773.4693091458121,0.7964388682320508,915.2024756043958,715.059712,83.90907639332923,75.45417601202652,506.1149754141968,703.7537079098616,701.8069442692346,182.0,497.62901914824005,623.2875871761015,0.7983939186127923,924.2094490165746,715.059712,36.57575124837428,73.19433279896448,424.1008815955789,589.9234182634156,588.3049225692785,181.0,417.1388494348091,522.226680366291,0.7987697011999214,957.2807503448275,715.059712,64.83883175848167,72.50632107323965,497.2345770651686,658.3082590408252,656.4040023100216,174.0,465.4942340788778,621.4032573764106,0.7491016961259797,truth
1783771565635041656,1783771575635041656,1403.3848884067795,1430.119424,12.850939627807183,61.38375104468752,839.5312948837827,1122.0724748711111,1117.833749053511,118.0,793.4250559641346,1046.357458263015,0.7582734272102807,1701.8077779591833,1661.462272,12.191917082791427,44.32659222341324,709.9569970867154,926.897291724948,922.7758131247173,98.0,655.4153604421564,890.6701005832699,0.7358677023209232,919.9967601777779,715.059712,83.90907639332923,75.11972661131345,506.37133374905784,706.7406354689688,704.7637347141269,180.0,499.7410958801977,622.8589517939266,0.8023342916415809,929.1102663111113,715.059712,62.01975211680857,72.93149460235274,426.3019550798463,591.0275692402967,589.376028435031,180.0,417.9196020780155,525.4886458423962,0.7952971113354128,966.9446310697675,715.059712,83.90907639332923,72.01641019378526,501.6842613066225,665.4237469487695,663.4752105637107,172.0,470.52564383003613,626.639454020179,0.7508713995127481,truth
1783771566635041656,1783771576635041656,1430.119424,1493.212928,118.87119155721642,60.347214900514,842.8910305015555,1157.9323592416456,1152.9390947560494,116.0,818.781823375105,1041.98308117513,0.7857918599327902,1652.9248671683165,1640.431104,50.94479638166419,45.16197687932174,650.799482506005,873.3300024310203,868.9818014514901,101.0,617.5375669326385,810.1873916407403,0.7622157210840327,944.9686167272729,715.059712,83.90907639332923,74.3382239411842,536.2887322164681,767.512613696246,765.3165788270319,176.0,542.7133737908266,654.1729936025963,0.8296175157003189,939.6298109830509,715.059712,83.90907639332923,72.59523300498515,441.4002259422287,606.3149057883911,604.5899665725161,177.0,428.7293814174541,545.677448387236,0.7856827924345691,1000.1768638083834,715.059712,83.90907639332923,70.69858852744728,529.0458842726623,710.9918626109029,708.8470858913355,167.0,502.74716742062355,658.3325437474257,0.7636674993443835,truth
1783771567635041656,1783771577635041656,1438.459369931034,1514.244096,158.49492207628856,60.351465169709854,831.8716351296675,1163.4412491611217,1158.4237334502711,116.0,822.6771967939768,1022.5565752584137,0.8045297606991333,1673.146254222222,1682.49344,178.30678733582462,45.92379380846493,659.5182111880347,904.3094040911543,899.7821319230611,99.0,639.443311923621,815.7724359129852,0.783850107913952,954.6948490971429,715.059712,83.90907639332923,73.60789245964882,536.835563352478,766.0118192033995,763.8074640743093,175.0,541.6521518277674,655.5084418755561,0.8263084305641887,944.1449769943503,715.059712,79.24746103814428,72.53033016933013,448.3158317041887,616.0003663623938,614.2479189305786,177.0,435.57803626824636,554.1751140872225,0.7859934977153992,1012.5551429818181,715.059712,83.90907639332923,70.05327855817704,533.0956384009479,714.4446786053736,712.2631630437411,165.0,505.18867702450314,663.9082162975124,0.7609315032156744,truth
1783771568635041656,1783771578635041656,1426.1307542068969,1472.18176,59.43559577860821,60.760867830799874,830.8308517492815,1174.0444141867354,1168.9539631291843,116.0,830.1747666856284,1017.8235293095283,0.8156372325650624,1720.6530850309277,1682.49344,33.173355783409235,43.384338486845735,638.8908176868497,894.1550222151184,889.4945144155373,97.0,632.2630796403182,785.1653666018472,0.8052610399471876,971.1019549767442,715.059712,83.90907639332923,72.47617221455363,528.3012388752987,740.7946091014293,738.6253669361047,172.0,523.8208915620584,648.8530147698444,0.8073028554053395,954.4544928914286,715.059712,83.90907639332923,71.77447041588778,448.84622703869206,609.6585917981976,607.9041749470036,175.0,431.09372446914676,556.7809007279236,0.7742609775327134,1000.1768638083831,715.059712,83.90907639332923,69.84489539494403,488.2707524956213,665.2896077119493,663.2826963288135,167.0,470.4307930660574,605.1149394560514,0.7774238618020834,truth
1783771569635041656,1783771579635041656,1368.2425991404957,1472.18176,95.09695324577314,62.07695917184975,776.1626444579102,1082.576741622621,1078.1012429813497,121.0,765.4973551561923,954.9155988506158,0.8016387585223063,1688.931552653061,1682.49344,67.92639517555224,44.961385504767286,651.3847986468504,912.5162277045476,907.8302804748822,98.0,645.2464125526533,800.2704826246944,0.806285407949073,988.5893407810651,715.059712,83.90907639332923,71.70455431589819,544.902761901357,761.5804513738783,759.358175771785,169.0,538.5187015855811,669.9528669068773,0.8038158028517469,945.2076072727273,715.059712,83.90907639332923,72.34861862156309,437.1692298850924,587.1724624205775,585.5066811009552,176.0,415.19362990359366,544.096495081882,0.7630882272842254,990.2174933333333,715.059712,83.90907639332923,70.32012953821732,468.3604329123188,632.5300231275892,630.6915184044616,168.0,447.2662686576021,581.9788936861734,0.7685266141262955,deceptive
1783771570635041656,1783771580635041656,1371.1631989508198,1451.150592,43.225887838987795,63.78080763032157,796.5299908237604,1124.4741137868216,1119.819828685139,122.0,795.1232711273949,976.1196363249923,0.8145756334960811,1689.2913932929287,1682.49344,29.11131221809382,44.796454188992286,635.26112973604,923.3486476946787,918.6356325674307,99.0,652.9060901843358,770.6946377178976,0.8471657362475684,946.0460995254239,715.059712,64.83883175848167,72.97430011713291,484.28010994754584,694.502597279234,692.5277989060419,177.0,491.08749608781625,590.3143106640002,0.831908505716944,926.3061105777778,715.059712,64.83883175848167,73.18629328359253,415.42046446416913,573.9855066873254,572.4205142509072,180.0,405.8690440814042,512.6241158192576,0.7917478549224294,963.7867046473989,715.059712,64.83883175848167,70.75897799767665,409.1906270397331,568.6904385696176,567.0348588163049,173.0,402.1248655085284,504.00568923794293,0.7978577902891167,deceptive
1783771571635041656,1783771581635041656,1403.7413488813559,1472.18176,50.94479638166419,60.639372289553144,772.2068209633399,1098.8205128639795,1094.1184018896947,118.0,776.9834359529998,943.7982405217497,0.82325162581726,1659.3591551999996,1682.49344,79.24746103814428,47.463511152066005,712.7786343062154,1048.9379228757102,1043.6686685951097,100.0,741.7111183091464,860.8362629066952,0.8616169535013413,909.9715203497267,715.059712,64.83883175848167,74.09124479306001,407.5050798670816,612.076542806343,610.393791498656,183.0,432.8034740235833,488.3250522669422,0.8863020072682897,914.971363868132,715.059712,64.83883175848167,73.60639374566139,395.76543037159973,542.5594062585186,541.05979514379,182.0,383.6474353619455,489.55885695648084,0.7836594720132899,935.5325181123596,715.059712,64.83883175848167,71.99428489704731,375.42720644434223,504.63595054307655,503.2407260635496,178.0,356.83150265952867,467.14752919401906,0.7638518462790089,deceptive
1783771572635041656,1783771582635041656,1397.2471782184873,1472.18176,59.43559577860821,62.390248996198935,787.0316061026507,1103.9447475859681,1099.2683907843525,119.0,780.6068170733096,966.5215965400743,0.8076454989393956,1688.5642926185567,1682.49344,95.09695324577314,47.34507548984815,728.1865314438909,1072.6261024305531,1067.1288698297446,97.0,758.4611907063404,879.1356893271536,0.8627350702675131,881.3060876190476,715.059712,83.90907639332923,75.3417818144249,371.9474382912589,547.9252416094095,546.4660506256408,189.0,387.4416539252909,449.0370542668803,0.8628278006095664,895.520701935484,715.059712,41.954538196664615,73.93692176015068,332.7594108045465,456.7396200831095,455.51991478600024,186.0,322.9636825973341,411.4667432728459,0.7849083501340839,925.3713920000002,715.059712,41.954538196664615,72.38795280195902,359.8617356948375,496.3422281115795,494.9699759589279,180.0,350.9669552869381,444.3107423672202,0.7899132787495514,deceptive
1783771573635041656,1783771583635041656,1381.7998809917353,1472.18176,64.83883175848167,61.74060764771922,745.9922821007902,1048.4985967908406,1044.1291853235994,121.0,741.400467855383,915.5171451369984,0.8098160387203229,1690.7324542680412,1682.49344,83.90907639332923,47.37807069682279,779.0677990137947,1132.23105086444,1126.3461884415888,97.0,800.6082539362163,945.2018211921718,0.8470236048915126,881.0835355767197,715.059712,83.90907639332923,75.40459005556107,372.6665658881947,548.8568825431214,547.3952104872149,189.0,388.10042354714955,449.94418463078495,0.8625523716138633,890.5068888983957,715.059712,83.90907639332923,74.24055524779118,330.1999828518263,453.72132537231255,452.50000061223466,187.0,320.8294259397101,408.1645465695064,0.7860296261303921,914.971363868132,715.059712,83.90907639332923,72.82008596221151,349.995212835734,486.38160008435034,485.0361435647301,182.0,343.9237276640076,431.10501364598883,0.7977725073418607,deceptive
1783771574635041656,1783771584635041656,1398.3075732436973,1472.18176,50.94479638166419,61.45409700581202,790.8478768991847,1138.2165994293985,1133.390168750282,119.0,804.8406759156198,962.8065600045214,0.8359318572900462,1704.175056494845,1682.49344,14.408629279662593,48.0166013554615,824.3420520244617,1173.7534603615502,1167.7191855376166,97.0,829.9690312628276,1007.3010180894897,0.823953333073165,876.6676345263157,715.059712,83.90907639332923,75.38923034023243,359.14967964925285,527.0574152198867,525.661234183937,190.0,372.68587237663576,434.19995975328567,0.858327745097898,901.3684285217391,715.059712,83.90907639332923,73.63716169355015,338.7191932577257,482.1056506060241,480.8024955205333,184.0,340.900174791872,413.9503825046724,0.8235290730478408,901.3684285217391,715.059712,83.90907639332923,73.4382399798015,331.0397667810425,465.27761085104584,464.0210712478195,184.0,329.0009537670501,406.2681880126473,0.8098122458872122,deceptive
1783771575635041656,1783771585635041656,1433.0202747586204,1493.212928,15.015308407227337,58.70890031111327,757.461805732719,1018.6053674969436,1014.2018686785555,116.0,720.2627627101041,942.3945832900074,0.7642900070537166,1713.7149677525774,1682.49344,34.79156826064871,48.20257768132943,860.1653086331739,1250.9021185453655,1244.3761960632312,97.0,884.5213706240464,1043.350223466064,0.847770337064404,867.3166053333334,715.059712,83.90907639332923,76.03310839641375,357.3937433637354,519.063901026518,517.7033117898125,192.0,367.0336042849938,433.7092831077868,0.8462664244928727,905.0260229565218,715.059712,83.90907639332923,73.34345837708425,338.4460654880804,481.263874385669,479.9471444916686,184.0,340.30494911821734,413.74841303810194,0.8224924577218349,895.2945603440861,715.059712,83.90907639332923,73.96268290187646,338.33953348671145,469.2887511178023,468.018684509959,186.0,331.837258249964,417.0003559453929,0.7957721222986649,deceptive
1783771576635041656,1783771586635041656,1419.6937167863246,1472.18176,43.225887838987795,57.833184376593124,727.7640495717061,1030.51519867571,1026.070115477762,117.0,728.6842850993969,890.9492858870295,0.8178740323854893,1730.2517173333333,1682.49344,44.576696833956156,49.08087956694126,886.0692570549857,1308.998680186998,1302.095805004051,96.0,925.601843324467,1068.5822712421925,0.8661961444002666,876.4462538105264,715.059712,83.90907639332923,75.474036241035,363.6653633692432,529.1021031244011,527.7140681300775,190.0,374.131685059328,441.0416467254553,0.848291057856089,889.5736592340428,715.059712,83.90907639332923,73.87485677848647,313.5283387760415,452.8304843557731,451.6342725983659,188.0,320.199506215956,381.2298211589139,0.8399120122412519,889.5736592340426,715.059712,41.954538196664615,74.17099100125468,326.1882689138221,462.1714520640114,460.9340430106563,188.0,326.80456782529586,399.24548936494284,0.8185554415282822,deceptive
