window_start_ns,window_end_ns,red_Mean_NN,red_Median_NN,red_Heart_Rate,red_Mean_HR,red_SDNN,red_SDSD,red_RMSSD,red_NN_Count,red_SD1,red_SD2,red_SD1_SD2,infrared_Mean_NN,infrared_Median_NN,infrared_Heart_Rate,infrared_Mean_HR,infrared_SDNN,infrared_SDSD,infrared_RMSSD,infrared_NN_Count,infrared_SD1,infrared_SD2,infrared_SD1_SD2,ppg0_Mean_NN,ppg0_Median_NN,ppg0_Heart_Rate,ppg0_Mean_HR,ppg0_SDNN,ppg0_SDSD,ppg0_RMSSD,ppg0_NN_Count,ppg0_SD1,ppg0_SD2,ppg0_SD1_SD2,ppg1_Mean_NN,ppg1_Median_NN,ppg1_Heart_Rate,ppg1_Mean_HR,ppg1_SDNN,ppg1_SDSD,ppg1_RMSSD,ppg1_NN_Count,ppg1_SD1,ppg1_SD2,ppg1_SD1_SD2,ppg2_Mean_NN,ppg2_Median_NN,ppg2_Heart_Rate,ppg2_Mean_HR,ppg2_SDNN,ppg2_SDSD,ppg2_RMSSD,ppg2_NN_Count,ppg2_SD1,ppg2_SD2,ppg2_SD1_SD2,label
1783334989040830000,1783334999040830000,1156.8740705103448,970.365952,56.885755200116506,68.81202841113105,664.1579484311604,924.4501346756263,921.4195422837116,145.0,653.6849590979524,817.6549076799638,0.7994631389821114,1133.4239204324324,907.081216,29.62799750006068,67.55511448104642,680.9780435508153,903.068732031916,900.0204291878388,148.0,638.5660242973049,850.634414953427,0.7506938504625009,1055.8136968101264,717.227008,83.6555223531125,70.43044673311708,684.1782721257052,957.1389107816602,954.0943432219017,158.0,676.7994143512178,840.9346540990896,0.8048180807535953,1145.5264626758621,801.606656,83.6555223531125,64.11947931142355,669.6934318944003,972.4352174445381,969.0530009943259,145.0,687.6155365196478,812.7552044825046,0.8460303086677428,958.55280128,717.227008,83.6555223531125,73.28192342543512,561.8026194212105,765.4975367015512,763.3133010470992,175.0,541.2884991832649,696.2382829915568,0.7774471935922389,deceptive
1783334990040830000,1783335000040830000,1137.3794621793104,970.365952,88.88399250018203,67.70799347995253,605.6374147960821,877.9995660978653,874.9868992220207,145.0,620.8394470666469,735.4403761589061,0.8441737320830786,1136.5421975510203,843.79648,88.88399250018203,67.85772299042021,694.3605398315777,907.0864299837624,903.9879800894312,147.0,641.4069657638149,870.9602004025376,0.7364365966061038,1057.9702999235667,717.227008,83.6555223531125,70.52570974343135,698.929972496801,980.660422922307,977.5123768935736,157.0,693.4316350896308,858.2438445087845,0.80796575416922,1121.2865975838927,717.227008,83.6555223531125,65.47744291524995,669.38670252341,961.5331271572643,958.2807250264685,149.0,679.9065945484085,815.4879682589568,0.8337420305537915,971.3528484678362,717.227008,83.6555223531125,72.76678042006488,573.2586159938401,734.8596320682836,732.6952604896079,171.0,519.6242290557346,722.6660445264207,0.7190378363442496,deceptive
1783334991040830000,1783335001040830000,1091.6961648104575,928.176128,43.09526909099735,69.67786021359049,554.2304306775932,812.5528029224064,809.8835594757926,153.0,574.56159701857,670.2851827348386,0.857189763130813,1098.0456825263157,822.701568,67.72113714299583,68.920454586513,646.7476824525835,836.0211990113778,833.2530028279554,152.0,591.1562590366534,813.5307420229859,0.7266550954996985,1048.604043341772,717.227008,83.6555223531125,70.72460287654884,681.070407118431,944.078446158491,941.0708607452563,158.0,667.5642712507279,839.5789246876515,0.7951179473675829,1118.6082787945206,717.227008,64.64290363649603,65.64435751004626,668.2791026887902,942.2640112665007,939.0108264368573,146.0,666.2812720345801,819.2853907211212,0.8132468607161791,953.3930342988506,717.227008,83.6555223531125,73.35960197928904,551.6181086020715,697.3512897119123,695.3390608875422,174.0,493.1018258244779,697.8469532495909,0.7066045406206937,deceptive
1783334992040830000,1783335002040830000,1129.1479247567568,949.27104,44.441996250091016,67.77949435401818,607.1427230531478,901.3673838067315,898.2966891091289,148.0,637.3629894301173,730.8411470115341,0.872095108542183,1114.8946058378378,801.606656,79.00799333349514,67.6786621163765,649.6083134836547,846.2654408410377,843.5883752737186,148.0,598.4000319025208,815.4389142073655,0.7338379631835281,1045.9892214339625,717.227008,83.6555223531125,70.9125153764961,683.612198775395,955.4894200813303,952.4610695693216,159.0,675.6330482915105,840.4827592861266,0.8038630665849315,1123.8349762147652,717.227008,83.6555223531125,66.29447642701453,704.3371002690621,986.4566232235478,983.1224838691159,149.0,697.5301676277537,865.3943229854589,0.8060258186365226,938.3680517752808,717.227008,83.6555223531125,74.10688711346624,540.3735135236404,680.6917477021362,678.7661660573519,178.0,481.3217506979031,684.2307756804869,0.7034494322755579,deceptive
1783334993040830000,1783335003040830000,1142.0149619726026,970.365952,25.395426428623438,66.99837420674031,628.4512849468449,922.4061377991937,919.2254960406057,146.0,652.2396350459029,759.7326926888658,0.8585120020799413,1096.380294736842,801.606656,34.68643609763201,68.83708297224156,649.9483484468274,851.1151764602376,848.2968341207426,152.0,601.8293128458191,814.7186326562573,0.7386958990782532,1077.8819550967742,717.227008,79.00799333349514,69.5337566262966,710.787332914983,996.4980772979814,993.2574623438921,155.0,704.630547896759,873.0321647855515,0.8071072021382419,1106.4351194701987,717.227008,79.00799333349514,66.78974661226,678.2845322491073,931.9824824217204,928.8790255850237,151.0,659.0111332674708,838.4461679151158,0.7859909896256917,928.176128,717.227008,79.00799333349514,74.44775372884708,527.8180799910513,672.4911049257365,670.618125497947,180.0,475.52302058062236,666.4253743517124,0.7135427894581644,deceptive
1783334994040830000,1783335004040830000,1095.270036210526,928.176128,52.67199555566342,68.76367139248045,603.1363928988407,883.0852560691678,880.1662535343057,152.0,624.4355729323673,729.7856702528233,0.855642414458537,1037.5472004076435,801.606656,88.88399250018203,70.41659613135117,528.0529247119575,727.7015191501076,725.3658464301313,157.0,514.5626788707934,652.1444681589816,0.7890317314557852,1072.982491664516,717.227008,44.441996250091016,69.93943217204644,712.0842204619237,996.9798095655735,993.7460869683973,155.0,704.9711840498899,875.0061079166129,0.8056757291996787,1079.9499104415584,717.227008,94.80959200019417,67.63028365676358,647.045848822072,884.7768240017989,881.8931155390891,154.0,625.6316920883685,801.0175740163718,0.7810461497759615,934.3386865617978,717.227008,44.441996250091016,74.09151168503931,528.8766394675949,675.0201701214895,673.1201283830752,178.0,477.3113397306022,667.4638132748183,0.7151119360145392,deceptive
1783334995040830000,1783335005040830000,1089.4411789473686,885.986304,129.28580727299206,69.26708919337513,613.9303597651423,902.1708603848607,899.1796625534727,152.0,637.931133167037,741.8510011793635,0.8599181401020973,1042.9965350886075,801.606656,28.442877600058253,69.93206964379355,528.5806452876325,731.336029413335,729.0638832674413,158.0,517.1326657242137,651.9830520541652,0.7931688777720736,1057.970299923567,717.227008,83.6555223531125,70.66799894928113,707.5939032590204,990.3323606407059,987.1531153234964,157.0,700.2707278375248,869.5911210020624,0.8052873481856353,1048.908014289308,717.227008,88.88399250018203,68.97506084950825,630.144250739213,860.7242671592663,857.9961742182952,159.0,608.6239660401388,780.3537578945554,0.7799334082560778,955.9775149132947,717.227008,94.80959200019417,73.57402213862852,569.9974257898157,728.1375888125624,726.017989976095,173.0,514.8710266861849,719.199585479295,0.7158944986641785,deceptive
1783334996040830000,1783335006040830000,1120.842990933333,928.176128,35.55359700007281,68.84021609120052,699.3302438064229,1025.3709048466033,1021.9330964259128,150.0,725.0467200484194,845.7418085197257,0.8572908572622713,1037.8175841975308,801.606656,30.916171304411144,69.93912973716118,505.28243223663435,730.6236972105419,728.3700011122372,162.0,516.628970793161,614.1399888645402,0.8412234672233873,1067.9131246878978,717.227008,26.33599777783171,69.53579521682074,648.2354150591791,861.6687000397679,858.9607895063034,157.0,609.291780934317,809.1971759199587,0.7529583630116188,1041.381121590062,717.227008,64.64290363649603,68.51027370216926,606.261722031496,837.0753527525328,834.4564337250055,161.0,591.9016582954373,748.2865525016106,0.7910093483794944,947.2449750056497,717.227008,64.64290363649603,72.94231228701526,475.4960282494992,622.5402922044668,620.7703495749145,177.0,440.2024621796333,596.0736883201533,0.7385034280244878,deceptive
1783334997040830000,1783335007040830000,1136.2745842162162,928.176128,56.885755200116506,67.96215806913615,702.8019356237955,1032.821613782473,1029.3027802547847,148.0,730.31516686162,849.223763185563,0.8599796643962253,1048.1534399999998,801.606656,101.58170571449375,69.2915812741405,513.1860388175279,728.7495589705791,726.4547152071528,160.0,515.3037549348023,627.6550333977233,0.8209983629785889,1007.4726646746988,717.227008,83.6555223531125,70.58790801688151,538.0082669651741,748.6064641833375,746.3346873672999,166.0,529.3447072641222,662.4219811354923,0.7991049849474269,1032.3485329382715,717.227008,83.6555223531125,68.94658058195083,592.7161370339995,822.2009196463614,819.6436909027586,162.0,581.3838457797578,730.4938399015991,0.7958778213079427,944.8613691299435,717.227008,83.6555223531125,73.05309797199193,471.24949618231125,600.460465527603,598.7523738798253,177.0,424.5896670089992,594.9907416412108,0.7136071829249299,deceptive
1783334998040830000,1783335008040830000,1136.5421975510203,928.176128,118.51199000024272,69.40647200696388,729.3501566097347,1049.186806389019,1045.7083139890779,147.0,741.8871055291327,888.0906841185149,0.8353731424009944,1061.6882292658229,801.606656,83.6555223531125,68.05107380489522,519.1881124479021,712.9323843290256,710.7802496790861,158.0,504.1193234865479,641.9068827004143,0.7853464997380726,1001.6925279041916,717.227008,79.00799333349514,71.06461008167548,540.9670075957808,750.4927855604393,748.2292389184075,167.0,530.678537901368,666.6938962670202,0.7959852953098341,1013.8342555151515,717.227008,79.00799333349514,68.77576052311466,496.0871599901901,645.9970453046767,644.0249930591078,165.0,456.78889136141026,622.7976356559744,0.7334467332720169,934.5399562011173,717.227008,43.09526909099735,73.56699144982684,462.4359642320634,582.8608896618837,581.2369922251955,179.0,412.14488756834197,585.4590829905329,0.70396873076612,deceptive
1783334999040830000,1783335009040830000,1144.8653601088433,928.176128,142.21438800029125,70.19813636527492,749.5052819249887,1071.8394246776452,1068.1724411397995,147.0,757.9049255326506,914.4978934877801,0.8287661797033741,1078.544987897436,801.606656,158.01598666699027,68.4308303255687,586.0938936791167,823.6359227324813,820.9776213018904,156.0,582.3985461929768,719.3177817293613,0.8096540374586493,1000.4293595209581,717.227008,79.00799333349514,70.54631435379768,525.0978120705958,728.7012960884008,726.5034972301935,167.0,515.2696279235344,647.0734345902516,0.7963078073971932,1017.9253899636365,717.227008,64.64290363649603,68.36966958007454,490.07221730472304,636.7338653856702,634.7909384930249,165.0,450.23883402532977,615.616806557205,0.7313621545572476,934.3042588603352,717.227008,64.64290363649603,73.39053117543263,449.71113415145544,577.2484346824909,575.6270576491794,179.0,408.1762825933092,566.7241564674389,0.720238016917426,deceptive
1783335000040830000,1783335010040830000,1139.4162123034484,928.176128,43.09526909099735,70.2782924524862,753.2963990256476,1072.1796252679794,1068.473431431127,145.0,758.1454836770397,920.6077570605568,0.8235271513437503,1074.8878385548387,801.606656,44.441996250091016,67.88913421960244,569.1380406597467,830.9097432009789,828.2079983386469,155.0,587.541913971385,689.371792515078,0.8522859802949281,1017.991274797546,717.227008,64.64290363649603,69.29049910683743,512.2573882751477,695.0015897716575,692.8690608038169,163.0,491.44033706297006,635.6559299170174,0.7731231849392577,1032.6089639506172,738.32192,37.42483894744507,67.47935311687024,492.8937380526318,643.4835197789348,641.5056146651208,162.0,455.0115604174727,618.3613134456434,0.7358344555581098,930.5331014078213,717.227008,37.42483894744507,72.97379043353475,418.2494119737344,576.3880840424528,574.7925883400629,179.0,407.56792282154004,516.5358994070178,0.7890408455432182,deceptive
1783335001040830000,1783335011040830000,1177.6988013714285,928.176128,59.25599500012136,69.36114854944003,790.4744691007459,1077.0037149542786,1073.1247111676682,140.0,761.5566302072739,979.6507143333704,0.7773756697819544,1068.71929966879,801.606656,101.58170571449375,68.75909484916937,567.191543352574,832.1770903875165,829.5452458885243,157.0,588.4380637611034,685.7716939768594,0.8580670052866889,1018.4726415609756,717.227008,94.80959200019417,69.09434020031647,505.4551476463695,687.1942334733552,685.0971632749258,164.0,485.91970248130104,626.82599972773,0.775206680470125,995.8819533413176,717.227008,94.80959200019417,68.54853540372453,420.52249156224275,539.6666471791924,538.0560376704808,167.0,381.60194580061494,529.9701022699538,0.7200442896045411,931.9263345777779,717.227008,83.6555223531125,73.08783261239057,427.0122564282021,578.8233501049432,577.2042606394234,180.0,409.28991596832043,530.0186945977772,0.7722178861614005,deceptive
1783335002040830000,1783335012040830000,1138.555115243243,928.176128,158.01598666699027,70.92222276635643,730.5169426065636,982.5503552277497,979.2041583047362,148.0,694.768019038793,908.8227036836934,0.7644703595351642,1072.7501745732484,801.606656,177.76798500036406,68.94144050982895,571.2569885291523,809.0905767356531,806.4953904356299,157.0,572.113433403915,699.2940751544976,0.8181299595274218,1004.7241320239522,717.227008,83.6555223531125,69.98135216129447,501.9092252666427,678.1145014886118,676.0689025549574,167.0,479.4993624235326,623.5911493384394,0.7689322770732521,1006.4560424096385,717.227008,43.09526909099735,68.19225511702966,436.5821267772142,591.0616556489564,589.2678376861775,166.0,417.9437048087251,542.0972575544076,0.7709755011383325,927.0106632486188,717.227008,83.6555223531125,73.2364690818238,419.9349140200556,564.1353689612137,562.5661437547087,181.0,398.90394489964916,522.6169585822985,0.7632816699667664,deceptive
1783335003040830000,1783335013040830000,1127.0710125714288,843.79648,94.80959200019417,71.48925193074626,717.3629816507786,964.1406799056651,960.8333287775691,147.0,681.7504127791043,892.6519378926766,0.7637359914196153,1101.931587368421,885.986304,54.697841538573556,67.33381960962487,592.7082693678861,843.8806691795043,841.081906241564,152.0,596.713743689069,724.273801266094,0.8238786804740986,989.5885345325444,717.227008,83.6555223531125,70.63773501345408,481.7413961678568,659.8502445202863,657.8836651203967,169.0,466.584582467896,596.0695926359115,0.7827686368039463,978.014399625731,717.227008,83.6555223531125,69.7217358660654,423.0058834787654,548.7266705629307,547.1106133494186,171.0,388.008349772965,531.5945025755364,0.7298953391976272,923.9804548950276,717.227008,44.441996250091016,73.63283793343157,422.0413089143723,551.7791842816639,550.2587566457244,181.0,390.16680292314624,529.2661578154026,0.7371844905663297,deceptive
1783335004040830000,1783335014040830000,1181.9092948732393,949.27104,34.68643609763201,69.4861194883782,745.5085576079559,1028.6767076055603,1025.0643960850193,142.0,727.384275596543,920.338023087624,0.7903446965673065,1133.4239204324322,928.176128,24.519722069015735,66.48557546630853,617.6281077039577,879.5514593103522,876.6089969661705,148.0,621.9368012808737,754.6696406098503,0.8241179554782212,983.5192500705882,717.227008,64.64290363649603,70.77724910648766,471.6460668461976,647.6563907764626,645.7391418925395,170.0,457.9622257968412,583.1254793049068,0.7853579410433895,982.2783728941176,717.227008,52.67199555566342,70.04016086329985,460.527727831817,624.6262457487793,622.7815515464913,170.0,441.6774540760568,571.5173571155286,0.7728154684666462,908.915556173913,717.227008,61.83234260882229,74.27229742864786,410.8209527924616,531.9082428807027,530.455405730061,184.0,376.11592550996596,516.542462722575,0.7281413487819501,deceptive
1783335005040830000,1783335015040830000,1167.8377671111111,970.365952,56.885755200116506,69.3183746625304,684.2977028448009,938.777783620046,935.4896316568485,144.0,663.8161368250119,846.2864529712747,0.7843870529823354,1124.5868627027025,970.365952,41.82776117655625,66.60477827231426,600.6532668923031,876.2244155550795,873.2390216197821,148.0,619.5842260802161,727.7543455405007,0.8513645158931383,962.0743102890173,717.227008,79.00799333349514,71.83604391699848,461.39676820597055,629.3671569728632,627.5349822267027,173.0,445.0297845516099,571.618929753732,0.778542769294467,1012.5557759999999,717.227008,10.613014029872483,69.50447262914702,585.0633102896595,735.4307190619497,733.6545263763672,165.0,520.0280485416033,741.2041341352561,0.701598958495161,878.4760735497383,717.227008,79.00799333349514,75.22769608941603,341.57370541741443,430.242181351893,429.1197319931239,191.0,304.2271639864159,432.5137093914555,0.7033931118957175,deceptive
1783335006040830000,1783335016040830000,1166.459500169014,928.176128,83.6555223531125,69.94168252765999,699.5253463894801,956.3428761315197,952.9459777863899,142.0,676.2365328520441,866.0389692737663,0.7808384574416037,1111.9425426040268,928.176128,94.80959200019417,67.10245592554348,597.1594181043633,858.5626749245281,855.6573990897244,149.0,607.0954895127952,727.2663023735483,0.834763672579691,961.8304384739884,717.227008,21.547634545498674,72.05112516971823,470.0253312208208,627.9104035948321,626.1977802188733,173.0,443.9997043594877,585.9008066582844,0.7578069518146988,998.660923784431,717.227008,29.02334448985536,69.82588032333359,499.05586741603133,677.2534118856049,675.2357138421246,167.0,478.8904801260372,619.2297405866918,0.773364792964095,867.4316170052354,717.227008,44.441996250091016,76.11098772347117,344.86430947151825,441.0176115344024,439.868118625016,191.0,311.8465437386705,435.01568991664766,0.7168627499353476,deceptive
1783335007040830000,1783335017040830000,1168.6286214265733,928.176128,44.441996250091016,70.17120543831817,699.2633600927987,956.7985247014452,953.4313871011985,143.0,676.5587250456763,865.4898262364651,0.781706155909024,1124.8719290810811,970.365952,83.6555223531125,66.73432741332005,611.3996075301831,871.6044811633224,868.6440741847521,148.0,616.3174391431677,746.7900423011328,0.8252887749334051,982.7747237647059,717.227008,64.64290363649603,71.7808628800582,565.9176627276823,776.849015007713,774.5498098882133,170.0,549.3152064700439,699.7513872402913,0.7850148159569303,990.7074742857142,717.227008,64.64290363649603,70.14578604521657,487.22387865728155,657.7223980398271,655.7509911313458,168.0,465.07996779223936,605.4952746693202,0.7680984266082571,893.4315670588235,717.227008,11.753255206635641,75.45156993702214,459.6871310768213,557.3994986053515,556.4188169466635,187.0,394.1409652938256,587.3252648183143,0.6710778318309717,deceptive
1783335008040830000,1783335018040830000,1151.927677351724,885.986304,74.84967789489014,70.32569644739348,694.4133337666443,923.4253630330048,920.2449680630536,145.0,652.9603361202873,866.7416892896352,0.7533505589830817,1107.5527307019868,928.176128,59.25599500012136,67.40891338744835,604.050999248372,844.7697768385361,841.9521754501301,151.0,597.3424377439753,742.5269189874236,0.8044724338863904,983.7674255058823,717.227008,44.441996250091016,71.68462128729013,565.8948908613793,766.2039123226906,763.9454618096469,170.0,541.7879821750374,702.6428297445121,0.7710716728896769,991.7119939047619,717.227008,83.6555223531125,69.66333536123652,458.1591656964789,614.2058262780592,612.3641255016292,168.0,434.3091048055023,570.5325958829249,0.7612345165544651,930.7687987486032,717.227008,44.441996250091016,73.48817588575379,457.73467540369046,626.4807913279637,624.728651986602,179.0,442.98881583111756,566.5002388861949,0.7819746320003058,deceptive
1783335009040830000,1783335019040830000,1131.4284557837839,885.986304,79.00799333349514,69.20113586690005,645.6810289801318,859.6688891391998,856.7415860766627,148.0,607.8777010854345,805.636600851294,0.7545308895389148,1085.1551484675324,970.365952,129.28580727299206,66.63075101169723,503.3856616704623,685.659016030309,683.4213583173571,154.0,484.83413981672714,623.9087891550378,0.7770913765669819,984.5956559526626,717.227008,43.09526909099735,71.32101520408467,550.0473157043868,738.3597711163404,736.159034775157,169.0,522.0992011117114,684.6972404840399,0.762525639423665,1024.9797732515337,717.227008,43.09526909099735,69.02032139320461,524.7135014766005,722.4171820732842,720.1852250866853,163.0,510.826088289696,648.2105144356984,0.7880558505509543,930.7833643146067,717.227008,88.88399250018203,73.95568036371954,486.4464062345611,650.7032763090914,648.8767127571246,178.0,460.11669921846226,606.140679897986,0.759092261050521,deceptive
1783335010040830000,1783335020040830000,1160.2201599999999,928.176128,28.442877600058253,68.04666453795856,654.363273344442,862.6013420181032,859.6168721146123,144.0,609.9512584016171,818.7565683347203,0.7449726597518539,1097.2111744836602,970.365952,28.442877600058253,66.63026277328906,523.5283226548531,705.6424161296818,703.3700261152566,153.0,498.9645375381576,650.9078309432713,0.7665671141413014,987.9864079058824,717.227008,83.6555223531125,71.53793810810615,571.3636577886396,788.4492259875502,786.1170389271709,170.0,557.5177943170814,705.3366667011828,0.7904279199386566,1055.0109448050314,717.227008,83.6555223531125,68.96737370171415,607.6643092304122,808.9687388248017,806.4057528675372,159.0,572.0272809909463,758.2243865281573,0.7544300752580761,942.4777632542372,717.227008,83.6555223531125,73.58587849005521,500.9729811228274,652.8232046178094,650.9661278867196,177.0,461.6157149011861,628.8110379981564,0.7341087974071783,deceptive
1783335011040830000,1783335021040830000,1106.1557166622515,843.79648,88.88399250018203,69.50501002266797,624.4643923397075,894.2401557618718,891.2544149938976,151.0,632.3232781485341,761.5741530252626,0.830284583105539,1091.6961648104575,928.176128,43.09526909099735,67.49117676183097,555.5178120002753,755.9307969035103,753.4566440410568,153.0,534.523792598223,688.7250804728635,0.7761061819198318,967.177186232558,717.227008,67.72113714299583,72.41266544098099,552.2034636401856,749.0387369413518,746.8463726246924,172.0,529.6503702626363,685.2682490475987,0.7729095445451564,1039.9791616,717.227008,83.6555223531125,68.9780917265315,562.1301732176722,767.5558944518054,765.151686309284,160.0,542.7439779065776,696.2005102745419,0.7795799771714477,961.0988230289017,717.227008,74.84967789489014,72.64666309541236,515.0492300143408,654.0393441645829,652.13571063129,173.0,462.4756554215787,650.852942490023,0.7105685865876962,deceptive
1783335012040830000,1783335022040830000,1110.8099298791944,843.79648,22.93780451617601,68.966477608669,631.9619506990923,884.2997875324141,881.4134409301961,149.0,625.2943763659932,776.6951047260023,0.8050705773233638,1091.6961648104575,928.176128,79.00799333349514,66.55610150737478,538.3678797214394,747.9797657025524,745.5822075874878,153.0,528.9015645185998,663.1828672066289,0.7975199461143636,983.8467241656805,717.227008,43.09526909099735,71.2710897723626,552.9767170737376,750.6594572622805,748.434193521329,169.0,530.7963925919719,686.0714934006306,0.7736750436328272,1019.6310880993788,717.227008,64.64290363649603,69.5170792855058,528.6629903632293,699.1650938714948,696.9785740314517,161.0,494.3843790454631,660.8790794370022,0.7480708565727717,979.7966185411764,717.227008,35.55359700007281,72.16004443469421,541.8652736748312,698.8253280770247,696.7804900022045,170.0,494.14412834817796,682.0166712323894,0.7245337968869151,deceptive
1783335013040830000,1783335023040830000,1082.1415896103895,864.891392,83.6555223531125,70.27363800818138,604.4327906127223,827.8735876963517,825.1637293228109,154.0,585.3950278253262,747.8865739097465,0.7827323664403294,1068.71929966879,928.176128,94.80959200019417,67.37935158211931,511.80069692172856,723.374818978916,721.058719380934,157.0,511.50323983958276,626.9466680316111,0.8158640374396127,1015.3855812682925,717.227008,37.42483894744507,69.64032414721783,568.2526885423002,771.8431931689171,769.4735006976292,164.0,545.7755559024196,704.9019487565681,0.7742574082326711,1114.0394067027028,717.227008,41.82776117655625,66.26008461283644,671.1484987153691,863.9219770522845,860.9922769975749,148.0,610.8850883897593,845.1569789378217,0.7228066544010662,1023.8749970731707,717.227008,13.416451698140687,70.55905631479416,620.1862320294084,792.7192158158804,790.6194926145911,164.0,560.5371330802913,782.4071740575583,0.7164263719277387,deceptive
1783335014040830000,1783335024040830000,1087.5599075555554,843.79648,109.39568307714711,69.57006070375037,600.9609236497034,816.9735240863738,814.2817237981542,153.0,577.6875189313462,745.282918590841,0.7751251296938628,1066.9157415384616,907.081216,94.80959200019417,67.82726482638408,519.6211607628746,733.4397709095513,731.0712745656665,156.0,518.6202356020516,636.8114532867249,0.8144015515508362,1029.3799389447854,717.227008,41.82776117655625,68.92581917100755,572.2241810518951,780.8710490998295,778.4572660251217,163.0,552.1592140507429,708.8308175654167,0.7789717946338939,1118.5928669866666,717.227008,83.6555223531125,65.85353317100044,667.1466031499139,860.6346925297419,857.7537590860466,150.0,608.5606272121798,839.640495505366,0.7247871326714621,1035.7341360987652,717.227008,83.6555223531125,70.10462130295554,625.8301444425896,842.2128755763972,839.5932335365807,162.0,595.5344355226925,778.4575180698039,0.7650185420513741,deceptive
1783335015040830000,1783335025040830000,1086.7989078441558,843.79648,34.68643609763201,69.77883861447073,584.938659590425,788.1827061604375,785.6354373840119,154.0,557.3293363400094,727.3228144326895,0.7662750642226523,1098.5899269019608,885.986304,33.860568571497915,66.1595902642317,557.2345012328967,804.8784632565166,802.2564781954035,153.0,569.1350193996903,677.5420603733819,0.8399995405245392,1030.41527204908,717.227008,21.547634545498674,69.01847987959283,579.898537459289,784.466445214844,782.1254519735855,163.0,554.7015430247216,720.2206096591802,0.7701828239644726,1076.6518547692308,717.227008,83.6555223531125,67.62581413983915,638.3394383332437,815.507387280308,812.8736008352257,156.0,576.6508036536297,805.4138081669655,0.715968360371204,1053.6842207798743,717.227008,83.6555223531125,69.7803316668361,659.3328874589728,902.474633892012,899.614168268847,159.0,638.1459334738885,815.9807575950199,0.7820600271931991,deceptive
1783335016040830000,1783335026040830000,1108.7485747199999,885.986304,109.39568307714711,68.93214395756608,623.4643258760647,840.1737169456653,837.3727666557364,150.0,594.0925326269869,775.2048520350074,0.7663684393453181,1137.9693624109586,970.365952,33.07311348843982,64.31609191351613,567.680535988169,819.4003542257564,816.5816109841447,146.0,579.4035469796914,690.4115777949454,0.8392147026708412,1035.7341360987655,717.227008,83.6555223531125,68.61771405599234,574.3934809559693,713.784658126334,712.1375394050233,162.0,504.72197206805225,729.7147438453597,0.6916702400835858,1091.9719152941177,717.227008,83.6555223531125,67.95094815762603,695.3736988993352,910.4942305652788,907.4942414192802,153.0,643.8166446639366,871.6875737721181,0.7385864661095273,1063.2903744810128,717.227008,83.6555223531125,68.79079321567804,637.9195422957015,862.6920334609176,859.9402177307663,158.0,610.0153869358269,792.3530139630196,0.7698782943788957,deceptive
1783335017040830000,1783335027040830000,1080.6038792258064,843.79648,142.21438800029125,69.63138583578078,612.491449568961,845.1764317897997,842.6587794437576,155.0,597.6299862176169,756.1155674742715,0.7903950294449565,1110.3467587814569,885.986304,41.82776117655625,65.65964660591372,562.9956744405491,833.4515853247262,830.671815161804,151.0,589.3392677737924,678.4304478776455,0.8686804515001356,1004.1178112000001,717.227008,83.6555223531125,69.93581999126407,475.91606594854557,646.1854389771346,644.2271934229688,165.0,456.92210580473784,590.4263698966729,0.7738849907477898,1098.8783764210525,717.227008,83.6555223531125,67.92361114888779,718.1769863717539,944.2324532480259,941.1099940462674,152.0,667.6731707080888,899.2567131060697,0.7424722673483506,1037.4503926459627,717.227008,83.6555223531125,69.53560691140275,600.3804676603171,799.3592033530756,796.8671067071368,161.0,565.2323132948361,749.1125602335915,0.7545358912665714,deceptive
1783335018040830000,1783335028040830000,1076.9223023589743,864.891392,45.87560903235202,69.26125659504052,579.9339688870328,827.7730478603874,825.1006913857683,156.0,585.3239354255364,708.057032905622,0.8266621306246599,1150.684103890411,970.365952,44.441996250091016,64.84572502087511,625.1780223244127,945.4088040058266,942.1431334393714,146.0,668.5049763059836,747.1583952027815,0.8947299268778863,992.8339056094675,717.227008,83.6555223531125,70.26367571249078,460.8356187869571,615.760404757119,613.965316621103,169.0,435.4083577899321,574.4116259868463,0.7580075647701161,1091.9719152941177,717.227008,43.09526909099735,68.25126699008689,715.2804536731664,932.5060880604127,929.4684272178562,153.0,659.3813783652577,897.6972506064325,0.7345253401631983,1035.7341360987652,717.227008,83.6555223531125,69.50538557159388,593.5713012479728,788.410871290557,785.9585764812814,162.0,557.4906734507472,741.117975654443,0.7522293234872033,deceptive
1783335019040830000,1783335029040830000,1072.0542457435897,843.79648,22.220998125045508,71.65423452373503,644.8082720858955,898.4459726119527,895.5457174915512,156.0,635.2972397636549,793.5704909301612,0.800555523453259,1157.1650348137932,928.176128,40.6326822857975,64.9166274425808,642.3612347714039,991.0619999918922,987.6259426386798,145.0,700.786660770569,761.3835695082362,0.9204121139929436,991.2097340952381,717.227008,79.00799333349514,70.3995747705986,460.71108798206393,588.3014085479272,586.5378720274007,168.0,415.99191536583686,581.3645812692456,0.7155439611708643,1072.0542457435897,717.227008,83.6555223531125,68.84866463142916,704.8779913656878,918.675729979809,915.7076264288938,156.0,649.6018383802246,884.7116429718608,0.7342526161384382,1013.5785596121212,717.227008,44.441996250091016,70.34254147205189,573.3886190938354,763.3583265208415,761.0372390749365,165.0,539.7758491581018,715.450930075219,0.7544554440670758,deceptive
1783335020040830000,1783335030040830000,1094.1779191633987,843.79648,29.02334448985536,71.03417404712019,699.0475387636609,989.2286432030098,985.9711462839045,153.0,699.490281752816,855.9740625566565,0.8171863054629849,1157.290311111111,970.365952,59.25599500012136,64.991528219698,644.7174137626478,992.887065010701,989.4390769688838,144.0,702.0771766214751,764.7646083934607,0.9180304225849665,984.5956559526626,717.227008,49.03944413803147,70.55123833196588,456.3733275154213,577.8956642952862,576.1745378729782,169.0,408.6339430415015,577.1155676570971,0.7080625890935907,1090.317412392157,717.227008,22.93780451617601,68.08899320506767,715.0868554374133,944.5977990530586,941.5355617776531,153.0,667.9315092043055,894.2215447777835,0.7469418659223742,1003.6603311807228,717.227008,31.603197333398057,70.41496918682066,549.240357586044,743.776028073689,741.5203230596286,166.0,525.9290731349014,681.9305285864702,0.771235560057805,deceptive
1783335021040830000,1783335031040830000,1098.8783764210525,864.891392,39.50399666674757,71.26173990034425,650.0998085167723,873.0463762422133,870.1652258343905,152.0,617.337012931211,809.1396840469963,0.7629548087958505,1135.9681863401363,885.986304,88.88399250018203,65.93858716286185,619.5909189525803,944.6999326656228,941.4591443660452,147.0,668.0037285743367,738.01851128708,0.9051314003077785,981.037495717647,717.227008,88.88399250018203,71.23866650125971,477.01571548605887,622.1805863372839,620.3499436230541,170.0,439.94811172171563,598.5906908210331,0.7349731936497013,1109.2291475496688,717.227008,83.6555223531125,67.18791263503347,715.9119517877074,949.5368521597097,946.3758407020258,151.0,671.4239471486591,894.2341902559009,0.7508368103846703,979.8524213017753,717.227008,30.916171304411144,71.32294214758637,517.2449769583095,726.2426878334973,724.1074639808368,169.0,513.5311293542109,635.0020645393986,0.8087078106221636,deceptive
1783335022040830000,1783335032040830000,1114.65515008,864.891392,79.00799333349514,70.98189692274094,704.4338119488805,969.9510322360003,966.7026679232982,150.0,685.8589523129673,870.2027002944434,0.7881599908629321,1112.96755712,843.79648,83.6555223531125,66.98298846159773,610.6783545153937,915.3631899235505,912.2865059280025,150.0,647.2595188434922,732.3821836858835,0.883772889703581,947.721696180791,717.227008,83.6555223531125,72.76226105832532,446.7443472929751,570.9917135264893,569.3672672376078,177.0,403.7521126359071,563.607256382912,0.7163713881667979,1116.1898403221476,717.227008,33.860568571497915,66.70692663317585,700.9697635994969,930.4649434822348,927.320534521497,149.0,657.9380711926459,875.3719016504468,0.7516097671768467,971.1018210232558,717.227008,38.4363210811598,71.2997421561798,493.16479309189657,693.7603176748053,691.746404296077,172.0,490.56262514598825,605.0596513532237,0.8107673748345946,deceptive
1783335023040830000,1783335033040830000,1072.1659144258062,801.606656,88.88399250018203,72.77004368136103,648.5029704049754,863.4619988912268,860.6546826006345,155.0,610.5598347128777,809.1480392152257,0.7545712343380895,1119.4556678918918,843.79648,88.88399250018203,66.53717061884159,612.6433088347825,911.729808305896,908.6233944768079,148.0,644.6903300630102,736.7841182338859,0.8750057365627941,928.176128,717.227008,83.6555223531125,73.82264849957285,440.1472245817702,552.4189799576745,550.8737994377018,180.0,390.6192067842272,557.8238756630099,0.7002554458967015,1084.8811885714285,717.227008,43.09526909099735,67.26109001984938,607.661260319865,839.4265833950116,836.6935847806786,154.0,593.5642294268677,749.896771135533,0.7915279172732823,938.605073258427,717.227008,43.09526909099735,72.31651509247814,408.6165765746864,581.8714221804744,580.2395386921905,178.0,411.4452284024739,499.2909225247853,0.8240591002974811,deceptive
1783335024040830000,1783335034040830000,1087.0084065882354,801.606656,129.28580727299206,72.15093787844995,664.3842398835714,904.9675865370737,902.0192887678595,153.0,639.9087171943885,823.4508201712218,0.7771061750370605,1146.690319889655,843.79648,52.67199555566342,66.15842459263335,658.2692173413948,996.9834685409309,993.5158622486092,145.0,704.9737713361772,786.2205262281879,0.8966616207773362,912.7295804153005,717.227008,83.6555223531125,74.55864262649138,429.87221596949183,533.7556793463252,532.2874997133782,183.0,377.42226036261906,546.2201596576499,0.6909709458529927,1080.4978302337663,717.227008,83.6555223531125,67.84329310043961,614.0338173884545,834.5164250812079,831.7847764260737,154.0,590.0922231864776,761.5580357797402,0.7748486595408279,939.6174362033898,717.227008,29.02334448985536,72.5778984008622,424.5624461139383,598.1136496980947,596.4677293651781,177.0,422.93021762175795,520.6453272734786,0.8123192420386517,deceptive
1783335025040830000,1783335035040830000,1073.136036102564,822.701568,118.51199000024272,72.56090251627656,643.5480418541025,841.4282641367997,838.9579971096729,156.0,594.9796314531566,807.0364201363111,0.7372401252382916,1079.2429171612903,843.79648,118.51199000024272,70.18984335264531,597.8322357096094,891.7347966515179,888.8517264355402,155.0,630.5517217322953,718.3376832780799,0.8777929049396657,923.0480830939226,717.227008,83.6555223531125,73.43472257890046,411.6640950093939,509.61526338607,508.25655251594554,181.0,360.3524085364586,523.4574720746598,0.6884081854983287,1106.4351194701987,717.227008,43.09526909099735,66.61783032426632,626.4238869466355,843.3934095602299,840.5909963856575,151.0,596.3691991080817,779.0928452066898,0.7654661479401311,954.6954459428571,717.227008,44.441996250091016,71.51239831293019,424.1816726673865,607.6326511184484,605.8841128418486,175.0,429.66116807621444,517.2579851268564,0.8306515905614119,deceptive
1783335026040830000,1783335036040830000,1072.7102992516127,801.606656,118.51199000024272,73.01511867236688,630.7975303589562,851.3852442066766,848.618096341909,155.0,602.0202795807057,783.9622695644869,0.7679199662442237,1098.611840847682,801.606656,54.697841538573556,70.17150190752363,650.1045444304613,981.0647817834093,977.7910794672006,151.0,693.7175599823491,777.5923166186399,0.8921353068391672,917.7445781098901,717.227008,44.441996250091016,73.92540107086958,416.8315356366202,544.5975645794531,543.1072744224447,182.0,385.08863093181003,522.8292564173298,0.7365475940857196,1109.311105706667,717.227008,45.87560903235202,65.85861194617597,591.517426079298,794.9223714481116,792.2602734530384,150.0,562.0949993678513,736.0776701909815,0.7636354451861188,943.6695661920903,717.227008,44.441996250091016,72.04271352906584,413.68146242199816,581.1385601579949,579.4995753491766,177.0,410.9270166967046,507.7737667284312,0.8092718521956995,deceptive
1783335027040830000,1783335037040830000,1080.8760716387096,801.606656,47.404796000097086,72.9832285196301,636.0404522139229,870.1510162956862,867.3368689052028,155.0,615.2896842790458,787.2764545665513,0.7815420881827391,1131.3760966530613,843.79648,52.67199555566342,68.3134894102439,659.5442782294635,996.8757501470452,993.4601288914628,147.0,704.8976029294022,788.3888600066844,0.8940988878551959,900.2801241530054,717.227008,83.6555223531125,74.2881977792383,392.43782319663427,530.234359483738,528.7757160346973,183.0,374.9323112090567,487.57334951404295,0.7689762198502976,1076.520993032258,717.227008,50.790852857246875,66.98259310153226,552.2344721885519,728.1487497695181,725.7895182974826,155.0,514.8789186745328,690.923783133139,0.7452036407542757,943.907926779661,717.227008,19.751998333373784,72.42449865968798,432.5437906039066,591.8117363110821,590.2807209466556,177.0,418.47409193135104,535.3764832070119,0.7816445156959599,deceptive
1783335028040830000,1783335038040830000,1059.8841042051283,822.701568,54.697841538573556,73.66435683262767,584.370316248006,815.8682202112551,813.233768472846,156.0,576.905951065978,718.726022094594,0.802678535813539,1107.5527307019868,843.79648,32.321451818248015,69.2140717709378,620.0462913634896,925.7840908867804,922.7137319309248,151.0,654.6282085806655,744.7454337775218,0.8789959345708763,893.2059530267379,717.227008,83.6555223531125,74.42726931343589,360.6362209663662,507.52553403001565,506.16446178865164,187.0,358.87474673794793,442.40414308942707,0.8111921019360919,1108.7485747200003,717.227008,26.33599777783171,66.12702378527518,588.6745621079288,752.1453511792823,749.6561086482386,150.0,531.8470782568078,742.7279601716714,0.7160725148059306,921.6853858461538,717.227008,41.82776117655625,73.20896853663558,404.253494617905,557.3452406333815,555.8058754258526,182.0,394.1025991139122,499.18267849296075,0.7894957419270101,deceptive
1783335029040830000,1783335039040830000,1066.838224713376,885.986304,47.404796000097086,71.59357419669543,565.956276203299,804.3513850282403,801.7703312522794,157.0,568.7623188102604,692.0026918290114,0.8219076681724776,1108.9497447417218,843.79648,49.03944413803147,69.1020577362092,632.310430475928,910.1245728707754,907.091027533913,151.0,643.5552572014354,769.7735228244109,0.8360319472149909,911.4856481758239,717.227008,52.67199555566342,73.70712318135408,393.6518631459394,554.0238390307744,552.4961837004585,182.0,391.7540135176648,482.895408098834,0.8112605896585471,1100.5437642105262,717.227008,28.442877600058253,66.59999996668303,577.7425236812629,709.1601526345257,706.8718758967932,152.0,501.4519528751602,736.1017706934506,0.6812263912947301,920.2509676906078,717.227008,44.441996250091016,73.48373528286608,410.39244256768745,566.9888230410073,565.4240973967685,181.0,400.92164162927565,506.43344327758274,0.7916571208934267,deceptive
1783335030040830000,1783335040040830000,1083.8701881806453,885.986304,59.25599500012136,71.47863525926232,628.9922848407697,913.285185862595,910.3913652247438,155.0,645.7901480806573,763.3741750278203,0.8459680314141125,1105.5969110463575,843.79648,83.6555223531125,68.8841756894752,626.0666221373185,901.6041039539616,898.5937312628264,151.0,637.5303758514672,762.0343434794835,0.8366163300993423,910.1935800655739,717.227008,64.64290363649603,73.6957383633142,387.0395888895515,537.8750078975028,536.3965461983099,183.0,380.335065515092,476.7304329549367,0.7977990059448197,1074.8753853071894,717.227008,83.6555223531125,67.37631608947088,552.0236369002524,673.9711189932237,671.7504502906435,153.0,476.5695485639941,704.2023317796661,0.6767508811843941,914.8898298342542,717.227008,83.6555223531125,73.57492789272445,401.4695428275329,555.5023825608722,553.9573696175801,181.0,392.7995016740765,495.18669547817535,0.7932351681920109,deceptive
1783335031040830000,1783335041040830000,1072.0542457435897,864.891392,33.07311348843982,71.76144560980148,608.4112529959939,916.7796485781921,913.8371296908825,156.0,648.2611063634596,728.153331745809,0.8902810412323444,1113.6995924768212,843.79648,30.258380425593884,68.65104274888989,627.1415652667637,893.4850962118912,890.5418082765046,151.0,631.7893704205432,766.1815590852469,0.824594853437668,911.6670664347827,717.227008,41.82776117655625,73.52837107246931,385.0354084746626,530.446741178943,528.9956487372233,184.0,375.082487745936,475.5639759818445,0.7887108920972085,1053.14345478481,717.227008,83.6555223531125,68.43484143874065,541.3391613956551,668.0638404021378,665.9485190936678,158.0,472.392471813879,688.8532874334629,0.6857664475608791,926.7775702983425,717.227008,41.82776117655625,72.87213839361111,414.97148123760246,555.9318397415274,554.3856320469251,181.0,393.103173758747,516.853565211134,0.7605697246146786,deceptive
1783335032040830000,1783335042040830000,1055.0109448050314,843.79648,36.46522769238238,73.25258110096964,603.721172537827,922.7180121807878,919.8121430771292,159.0,652.4601635360065,718.4054397345424,0.9082060455682194,1135.9681863401363,885.986304,29.02334448985536,68.37353891143862,674.5148184366504,987.3959706200214,984.0521155648702,147.0,698.1943865416903,816.2124600139914,0.8554076551707162,921.8122997988827,717.227008,64.64290363649603,73.1196297114428,398.4565236486152,546.537808876939,545.0017165395678,179.0,386.4605908317208,492.8075774004266,0.7842018032074729,1028.0857725644173,717.227008,49.03944413803147,69.6459506583769,530.5034112475006,675.3806815405238,673.3014585356054,163.0,477.5662597996965,669.9499775661866,0.7128386831724555,947.9600567683615,717.227008,41.82776117655625,72.50065486570684,462.07969182786155,608.7223156997668,607.0058637066466,177.0,430.4316772908835,578.2729189506814,0.7443400221333784,deceptive
1783335033040830000,1783335043040830000,1045.049801937888,885.986304,101.58170571449375,73.66015862393121,592.7679364426527,907.5947519496993,904.7541112568166,161.0,641.7664036729549,704.8514698199207,0.9104987804550041,1125.5338953020134,885.986304,88.88399250018203,69.16494502737875,671.7557278182212,989.0394434024164,985.7247474982329,149.0,699.3564972908172,811.1484207971657,0.8621806803291514,946.5298932429379,717.227008,32.321451818248015,71.79319171584368,412.02024639834787,557.911312021038,556.3675110439588,177.0,394.5028720307598,511.57121582830626,0.7711592439617694,1034.1715500246914,717.227008,11.110499062522754,70.52644991515703,631.4436275072953,751.3142476383996,749.5624690676583,162.0,531.2593993071814,810.1381578243493,0.6557639510943353,974.0452971162791,717.227008,49.03944413803147,71.59650525274465,494.4374269918542,652.1975432227374,650.2969102716205,172.0,461.17330548600404,618.5437167850035,0.7455791611351876,deceptive
1783335034040830000,1783335044040830000,1043.3357733836478,885.986304,71.10719400014563,72.84257549072169,569.8184258763014,868.3401708584261,865.5912332893436,159.0,614.0092231906783,678.8832107621176,0.9044401355888423,1101.654022736842,843.79648,39.50399666674757,70.44399136429168,640.1820092251926,929.3016082881776,926.2500602620644,152.0,657.115468988135,777.0235775569881,0.84568279260476,963.0918444137932,717.227008,83.6555223531125,71.82759938823962,467.37784721350243,629.7901599928664,627.9673665916891,174.0,445.32889285551653,581.14128465107,0.7663005617005885,1023.6856068711655,717.227008,83.6555223531125,70.45645338381796,576.7243647382204,748.351974800363,746.0387164999751,163.0,529.164756095681,724.7167144605587,0.7301677269711706,993.4699032380952,717.227008,83.6555223531125,70.95172699380302,512.1972181596287,685.268827846107,683.2140441265267,168.0,484.5582351057391,638.1956118436809,0.7592628750703888,deceptive
1783335035040830000,1783335045040830000,1039.546781416149,885.986304,49.03944413803147,71.91076120024277,555.1320143165376,850.7411220036873,848.0902358437384,161.0,601.5648164030592,659.8507349933391,0.9116680250558966,1116.6050041081082,843.79648,19.48142301373853,69.93747416378238,688.4367849019914,994.1563783671494,990.918763724023,148.0,702.9747167032705,837.1401838702761,0.8397335718054647,960.7225636571429,717.227008,41.82776117655625,71.97763359209179,468.1794278705153,632.7044779679334,630.8884013467268,175.0,447.38962685822025,581.6401071557543,0.7691863428159643,994.7255527619047,717.227008,41.82776117655625,71.75854390067512,555.2276712399896,733.7311735307266,731.5436821638885,168.0,518.8262883715402,694.2371173226549,0.7473329723026169,992.5842616804734,717.227008,41.82776117655625,71.4132780580679,528.8186339763685,698.2807686716658,696.2158009357922,169.0,493.75906669988973,661.3616917444581,0.7465794781634738,deceptive
1783335036040830000,1783335046040830000,1057.450075897436,907.081216,67.72113714299583,70.63973362838446,568.9837594056394,860.1370942643836,857.3583576308018,156.0,608.2087721044383,680.0927008153776,0.8943027492799788,1110.3467587814569,843.79648,49.03944413803147,69.60435153380192,659.1948302406665,923.4534740422822,920.4088271954232,151.0,652.9802136055732,809.8666981373245,0.806281101701568,965.9762593294797,717.227008,41.82776117655625,71.75194038041546,471.1491650820082,630.2458151569297,628.4248694657808,173.0,445.65108971190836,587.0780396457026,0.7591002551906993,971.592400372093,717.227008,41.82776117655625,72.54570015611404,525.7132355302765,675.8844036620059,673.9182880419156,172.0,477.92244512763017,662.2264569201668,0.7216903524971141,988.839602745562,717.227008,41.82776117655625,71.91760413734715,555.3174662187306,745.1299015490147,742.9212097396884,169.0,526.8864062501729,691.3395215301747,0.7621239490026407,deceptive
1783335037040830000,1783335047040830000,1106.0950568421054,928.176128,32.321451818248015,68.89144276982897,614.94362910063,903.1969326833295,900.2016366211459,152.0,638.6566758472719,743.2160918203821,0.8593149191414713,1110.7174331733333,822.701568,79.00799333349514,69.64376184086437,664.7564751700813,906.842123829179,903.7943055806311,150.0,641.2342152252232,823.5360849248489,0.7786352376820727,964.2691566242773,717.227008,44.441996250091016,71.63110770327118,464.3487480166758,620.940744183464,619.1342673340064,173.0,439.0714109271486,578.6602350451689,0.7587723923916695,971.0975674450866,717.227008,79.00799333349514,72.48968198220761,520.4389729981747,690.488026525264,688.4936418503622,173.0,488.2487658841308,650.0154002307186,0.751134151146004,1010.7766870361445,717.227008,40.6326822857975,70.66318630497389,558.9079808010517,737.0313987770181,734.812371361621,166.0,521.1599000226361,699.2513434455565,0.7453112602610443,deceptive
1783335038040830000,1783335048040830000,1118.4550657718119,928.176128,88.88399250018203,69.06493576164209,637.3848848449909,914.2342856332847,911.1426064145769,149.0,646.4612629645346,776.8931075771454,0.8321109515060809,1141.7259905753424,822.701568,36.46522769238238,68.61403163252697,693.6606419574896,950.5189415632701,947.2758377376896,146.0,672.118389225648,858.1716657138671,0.7831980663991611,965.7323875144508,717.227008,41.82776117655625,71.559474975546,463.6297402052571,605.246588839831,603.5007373775358,173.0,427.9739672586707,581.6564395586329,0.7357848003598515,935.8036668022598,717.227008,44.441996250091016,73.8673606607433,480.57750503288145,657.9061676217967,656.0344973330454,177.0,465.20991250982587,594.7262776593602,0.7822252521626141,971.3471106976743,717.227008,83.6555223531125,72.17028709210233,518.7474211781173,696.5718604779802,694.5321580171176,172.0,492.5506861277094,645.6738222628012,0.7628475387178267,deceptive
1783335039040830000,1783335049040830000,1109.2291475496686,928.176128,49.03944413803147,68.83626219278621,581.9869590137405,847.4123382601587,844.583656203708,151.0,599.2110108449066,705.6137209303935,0.8492054406975128,1127.7225928648647,801.606656,25.857161454598412,70.0007320478603,689.9859977189038,953.3474866205427,950.1523758676826,148.0,674.1184726165371,851.4361376726242,0.791742848100411,943.907926779661,717.227008,43.09526909099735,72.36682854623717,427.65278250341373,554.256075864479,552.6925500003478,177.0,391.9182297576187,537.5628850261627,0.7290648976603814,938.605073258427,717.227008,43.09526909099735,73.28421102617138,459.71328542287654,637.0408914098513,635.250240144879,178.0,450.4559342090289,566.7603861037976,0.7947907885829754,994.4744228571428,717.227008,43.09526909099735,70.90739606221665,527.5081221080305,695.5693920073452,693.4955021642878,168.0,491.84183387419773,659.9813959540941,0.7452359064806252,deceptive
1783335040040830000,1783335050040830000,1099.9886349473684,928.176128,30.916171304411144,69.76659384226967,602.6910141209871,866.6612901623088,863.7884105422771,152.0,612.8220752656506,733.9601276894532,0.8349528157542402,1106.7797162666666,759.416832,79.00799333349514,71.33116191923206,687.3381288224168,943.3591759869009,940.1903010672801,150.0,667.0556704348913,849.9328049537395,0.7848334204151564,950.2298996363636,717.227008,26.33599777783171,72.0899782414112,434.55704905938296,543.3172279725948,541.8442515111458,176.0,384.1832962348991,551.2542564202491,0.6969257683917395,959.9397311264369,717.227008,64.64290363649603,72.88202904404231,524.9198275574395,735.6238269549237,733.4966517623329,174.0,520.164596442226,644.8224926519795,0.80667874084685,976.1077623668639,717.227008,71.10719400014563,71.62477971392914,503.1276007988367,656.6195690068954,654.6628608417562,169.0,464.30014990456397,631.258624313749,0.7355149411373378,deceptive
1783335041040830000,1783335051040830000,1146.399355586207,928.176128,79.00799333349514,67.37723723480191,654.3456128993322,924.1587281240555,920.9498923608944,145.0,653.4789035492546,801.7599538198683,0.8150555542663982,1085.9054046535946,759.416832,88.88399250018203,71.0166870646495,644.0319207642575,873.9692215819705,871.0906842983043,153.0,617.9895631289396,799.1236949674618,0.7733340495605032,960.1822013793103,717.227008,41.82776117655625,71.75447200788865,444.4379089941917,573.3113432597692,571.6520246688547,174.0,405.39233855015124,559.3555540304204,0.7247489287075248,961.8304384739887,717.227008,83.6555223531125,72.0678228826068,474.97519633382956,643.8083081638351,641.9475877071501,173.0,455.2412204868863,589.5596575831194,0.7721715938860757,977.0275031578947,717.227008,83.6555223531125,70.9675292709108,470.70482068768024,607.2313396785952,605.4427818281451,171.0,429.3773980357265,592.4049134378251,0.7248039107980678,deceptive
1783335042040830000,1783335052040830000,1163.488385802817,928.176128,79.00799333349514,67.25308505389222,673.3955435947518,950.3034477217632,946.9525891917126,142.0,671.9660120690145,825.3205168772766,0.8141879407184717,1082.1415896103895,759.416832,43.09526909099735,70.96028598796207,618.6624762103262,827.7991604786556,825.0932320327163,154.0,585.3423998349886,770.8266059361814,0.7593697406488463,956.1391508837208,717.227008,83.6555223531125,72.10928543878721,449.08056313921736,596.1011227043199,594.3556324714244,172.0,421.5071461371389,560.8142002985797,0.7515985613643997,958.2424393563217,717.227008,83.6555223531125,71.93263622279675,466.92418691081514,625.6573856251339,623.8495572795026,174.0,442.40658007497893,581.5278167016883,0.7607659812117369,941.0270514022988,717.227008,71.10719400014563,72.17649135785966,397.7834241415007,480.9732120851617,479.58134948285596,174.0,340.0994198344934,508.5562873051464,0.6687547245491536,deceptive
1783335043040830000,1783335053040830000,1170.9888913006994,928.176128,47.404796000097086,67.93786551521085,693.0183691653862,989.5693960609229,986.0824661893083,143.0,699.731230409355,846.0124246110148,0.8270933263552035,1094.1597776842107,780.511744,142.21438800029125,70.2452067744374,639.2813580524901,855.3309283293698,852.496932361908,152.0,604.8102995802823,796.5322091840836,0.759304259899058,955.6597847771428,717.227008,83.6555223531125,71.87458997388254,438.81959711444176,574.5154155789775,572.8623356362275,175.0,406.2437462521024,550.098433863332,0.7384928246369644,961.1520823908046,717.227008,41.82776117655625,71.15328564645324,408.51319244027246,558.6833573077027,557.0855955762114,174.0,395.0487904883435,505.7017731453338,0.7811892531664316,923.9804548950276,717.227008,83.6555223531125,73.31215079571966,391.20443298429393,486.81196153316944,485.4580490501617,181.0,344.2280391628288,496.82526636653944,0.6928553406317101,deceptive
1783335044040830000,1783335054040830000,1159.634190222222,885.986304,74.84967789489014,68.18819465604724,675.3871897150628,966.6377153019434,963.2526564921817,144.0,683.5160834406755,823.8316538598042,0.8296793164456304,1130.0031238918918,801.606656,158.01598666699027,68.83046922422474,674.0416263826614,911.73608493807,908.6300576728339,148.0,644.6947683121833,837.1669821777593,0.7700910117538444,924.6603093333332,717.227008,79.00799333349514,73.16437363104265,392.5179032249858,507.077149435584,505.6588039679266,180.0,358.55769095064574,493.8206150358136,0.7260889481591243,950.4696145454545,717.227008,40.6326822857975,71.34790142647147,391.45840619379794,521.4643010166927,519.994623749293,176.0,368.7309433956065,488.3626861778754,0.755035046353448,886.8936120430108,717.227008,79.00799333349514,74.52785391667396,328.0632530995355,435.04528757073086,433.8832394991923,186.0,307.62347296451543,409.79860359586974,0.7506698906858253,deceptive
1783335045040830000,1783335055040830000,1149.3089986206896,928.176128,49.03944413803147,69.09062667903187,686.0852515575505,977.6449671620342,974.2497832326476,145.0,691.299385873174,838.1399193185234,0.8248018856269931,1141.1342872380953,843.79648,67.72113714299583,67.23708844647507,659.0692825270078,914.0721102688457,910.9605937297669,147.0,646.3465876645985,812.3193230795968,0.7956804292359113,937.1326269497207,717.227008,83.6555223531125,72.7943193332111,417.5134648090986,528.7961416543167,527.3206526955115,179.0,373.91533762904953,527.9475795348187,0.7082433031675438,964.0617254252874,717.227008,83.6555223531125,70.6732365681501,401.37877253886813,529.7413746625231,528.2086179935911,174.0,374.5837182989536,502.0491580336352,0.7461096434581772,892.2698948085107,717.227008,41.82776117655625,74.21045544893799,330.64967366737875,429.87364008033984,428.74644965776355,188.0,303.96656595415357,415.28373045871626,0.7319491317861082,truth
1783335046040830000,1783335056040830000,1111.4643700132451,885.986304,41.82776117655625,71.13466470214144,669.8498141338389,917.1708748606875,914.1085261616556,151.0,648.5377451207905,828.9131097811744,0.7823953288566019,1171.8075060281692,864.891392,39.50399666674757,66.31837864966825,694.1666170755875,928.2339297953081,924.9539349703302,142.0,656.3605062857,865.0607073601947,0.7587450229806867,942.63443847191,717.227008,41.82776117655625,72.41926260757829,418.23657137807334,544.6833919242424,543.1614398623541,178.0,385.14932002932176,525.0463407325567,0.733553003134833,992.8339056094675,717.227008,83.6555223531125,69.44200225513538,431.53295978709576,585.9010192880681,584.1551494588731,169.0,414.29458384270316,535.370329458519,0.7738467394368427,897.267005604278,717.227008,41.82776117655625,73.91267668120601,332.8739799922518,429.5939352815234,428.45923196274236,187.0,303.76878479418,418.89430147006976,0.7251681002298965,truth
1783335047040830000,1783335057040830000,1077.2103114805193,843.79648,27.348920769286778,73.7617622051426,658.0044261578704,953.6832753921989,950.5615941638944,154.0,674.3559111340215,799.100558281621,0.8438936803950565,1162.7279467412588,885.986304,33.860568571497915,66.58844613609647,712.5562797471429,972.2078431370493,968.7822182472797,143.0,687.4547586049548,882.7093978483964,0.7788007698576965,960.4246716321838,717.227008,41.82776117655625,71.7491166648142,434.9784311143122,559.8899314890438,558.2848009417811,174.0,395.9019672739743,547.7620717278947,0.7227626513553896,998.4925013333334,717.227008,41.82776117655625,69.0598365349639,427.9101926474093,580.5393361757478,578.8184879074689,168.0,410.5033013554081,530.9969733729575,0.7730803035426757,897.0413915721925,717.227008,83.6555223531125,73.78708713864921,329.10854940637006,431.2583678274527,430.0977479927465,187.0,304.9457163342342,412.4668830699389,0.7393216979374484,truth
1783335048040830000,1783335058040830000,1100.8213288421052,864.891392,79.00799333349514,72.44015835679174,680.4698814330771,949.3746617413545,946.2440066621878,152.0,671.3092612039966,837.1083902255217,0.80193827829529,1108.6703419337748,801.606656,20.610780869607428,68.86417190359224,677.1812224904268,929.3612255355922,926.3781227891392,151.0,657.1576247480576,837.3892430076967,0.7847696041421653,956.0602070804598,717.227008,37.42483894744507,72.21182002800087,446.137741729676,576.0503998553297,574.408158330879,174.0,407.32914404292586,561.3548373336947,0.725617945999441,1016.9026063515153,717.227008,52.67199555566342,68.00067158117264,446.80189732279496,593.0217039969137,591.2177188057897,165.0,419.3296682870192,557.9831409188347,0.7515095663938989,907.9983860869564,717.227008,83.6555223531125,73.65579441337778,363.4115117675991,491.42687101216876,490.0823895565624,184.0,347.49127294999136,451.3986723310348,0.7698101351418185,truth
1783335049040830000,1783335059040830000,1082.237033703226,801.606656,129.28580727299206,73.89522739606004,681.183463453547,945.8737671083157,942.7987418080907,155.0,668.8337548687552,839.2571274283112,0.7969354480410852,1090.5931628758171,801.606656,41.82776117655625,69.64824991674224,666.6190918608532,972.2948792388602,969.116106247953,153.0,687.5163024227534,807.72686857517,0.8511742386823555,965.7323875144508,717.227008,79.00799333349514,72.23308049138498,474.2228538016941,593.2687508160338,591.541669184055,173.0,419.5043567680896,601.4837300060091,0.6974492173942903,1023.8749970731707,717.227008,79.00799333349514,68.81766851904803,507.3357896013721,624.9415902629438,623.0216960499084,164.0,441.9004363204324,645.8646986875821,0.6841997050131218,916.4183081967213,717.227008,40.6326822857975,73.25236778090559,373.61681190308417,502.9238579275266,501.5617241531716,183.0,355.6208703610539,464.69984135468826,0.7652700489941024,truth
1783335050040830000,1783335060040830000,1047.8466350691822,801.606656,34.68643609763201,74.72691144796262,601.466088981228,828.6410302570952,826.0394460597421,159.0,585.9376916641991,742.873759889501,0.7887446337468624,1101.654022736842,801.606656,34.68643609763201,69.38844871192941,680.3173170882781,1003.7324431259988,1000.4221889508093,152.0,709.7460170313343,820.8493159615008,0.8646483626534722,969.6343365549134,717.227008,41.82776117655625,72.41453953635477,492.67522911907423,613.6565020178195,611.8877652683346,173.0,433.92067389601647,625.5511067513813,0.6936614278399377,1013.8342555151515,717.227008,83.6555223531125,69.31081070203868,502.3269897976425,609.8318573672502,607.9706418471892,165.0,431.21624172797004,641.6315810442346,0.6720620593926807,913.1906713879782,717.227008,41.82776117655625,73.43723774741824,373.63154503920026,516.7747984140995,515.3531319009629,183.0,365.41496430492083,460.9089007903586,0.7928138590474464,truth
1783335051040830000,1783335061040830000,1044.662497408805,801.606656,109.39568307714711,74.9669325353515,622.7165326415476,854.6258271157367,851.9546844202985,159.0,604.3117177306995,770.0359952345792,0.7847837263069832,1082.6895094025972,801.606656,177.76798500036406,71.706285368163,688.7917872505534,1008.4410918434894,1005.1523852905798,154.0,713.0755344696973,833.4445953019319,0.8555764096248911,969.8782083699423,717.227008,79.00799333349514,72.44535750777534,496.2648428549337,623.0501635912423,621.2367668544634,173.0,440.56299569475516,628.8956287969377,0.7005343582011242,1023.103232,717.227008,83.6555223531125,69.40859154961909,528.717019895346,627.7394473992913,625.8111179378857,164.0,443.8788200743349,678.6524668773698,0.6540590976066434,916.879399169399,717.227008,83.6555223531125,73.76773990364143,419.57231297196114,579.5305801880805,577.9364561681107,183.0,409.79000315596596,517.8010508699256,0.7914043481903003,truth
1783335052040830000,1783335062040830000,1111.184967205298,928.176128,79.00799333349514,71.60539812843301,680.1314983830868,917.6092795992491,914.6535885792822,151.0,648.8477440843318,845.3732978300073,0.767528079902526,1100.5437642105262,801.606656,36.46522769238238,70.51951069196987,702.1357047242517,1032.7548232811948,1029.3494846049744,152.0,730.2679388452474,848.1411819058193,0.8610216723639049,975.2717454883722,717.227008,41.82776117655625,72.49537216787446,511.8364399172946,623.1680293376937,621.3609121216307,172.0,440.64633936334064,653.3517308902339,0.6744396907970713,1022.8459769756098,717.227008,41.82776117655625,69.54064296397361,532.4986088706869,630.1224660314601,628.2058509632499,164.0,445.5638687088354,683.9926581104811,0.6514161569214771,931.9263345777779,717.227008,41.82776117655625,73.1836121929012,437.34334963919827,564.9836013433095,563.4210220942155,180.0,399.50373576905116,550.215224708072,0.7260862982863043,truth
1783335053040830000,1783335063040830000,1114.6551500799999,928.176128,64.64290363649603,70.4793677302491,669.49774652657,918.89577408714,915.8413576516168,150.0,649.7574330606785,827.8659941678422,0.7848582229951411,1051.7896250700637,801.606656,34.68643609763201,71.53568399556612,631.278887414239,928.2193906750989,925.2642488287099,157.0,656.3502255752077,762.6455651766461,0.8606228837417838,969.8782083699423,717.227008,83.6555223531125,72.73641806570757,509.3142267816835,644.1530599717852,642.2779797088886,173.0,455.48499682811416,644.2582339688757,0.7069913472772452,1024.9797732515337,717.227008,83.6555223531125,69.67189258262145,542.7268660551963,644.4371211078857,642.4452498318642,163.0,455.6858583837223,696.6204859970277,0.6541378950857707,937.3683242905029,717.227008,83.6555223531125,72.75663831036161,437.1990557811218,569.7544060214673,568.1519159213775,179.0,402.87720410869304,548.7540505149735,0.7341671623755969,truth
1783335054040830000,1783335064040830000,1072.8655885128205,885.986304,79.00799333349514,73.06254589293019,654.6397167740118,888.6559789235469,885.7853772928012,156.0,628.3746688388096,812.2062270980043,0.7736639388791429,1042.1672673788821,801.606656,101.58170571449375,72.56793832382617,622.9403720645969,918.3150331176123,915.4559910948796,161.0,649.3467871830127,751.8535690435382,0.8636612419211784,971.592400372093,717.227008,83.6555223531125,72.33404058727523,504.742319497974,637.216709106993,635.3507703746352,172.0,450.5802560949304,638.7631287050805,0.7053949043808462,1048.4171264000001,717.227008,83.6555223531125,69.21726158245853,589.921693468888,735.7650724564273,733.448128374066,160.0,520.2644720941512,748.7841133388838,0.6948123802657262,942.3974169887641,717.227008,83.6555223531125,72.76880837932354,450.171230053432,585.7916339437194,584.134705962698,178.0,414.2172367239517,565.2612786455719,0.7327889816130015,truth
1783335055040830000,1783335065040830000,1102.764281263158,928.176128,52.67199555566342,70.85879910567516,660.5277924258914,904.2735509060533,901.3401637540989,152.0,639.417959893309,817.4143780341659,0.7822445715122751,1069.171797883871,801.606656,94.80959200019417,71.4383954161493,645.3522453014565,955.4749096348921,952.367823543309,155.0,675.6227878564359,777.6412831735537,0.868810340288545,954.9365306514285,717.227008,83.6555223531125,73.0453685998609,487.23535513589326,628.3195338274547,626.5114163123225,175.0,444.2890031213636,613.2701064306922,0.7244589267642287,1031.8276709135803,717.227008,83.6555223531125,70.20722579183966,588.2586403515025,720.5618199681978,718.320612508659,162.0,509.51414916363296,749.8627353038864,0.6794765564088863,938.842094741573,717.227008,83.6555223531125,73.33821701637707,464.20315184197995,608.4869159505835,606.7655916648091,178.0,430.26522453194633,581.7259239876572,0.7396356373161659,truth
1783335056040830000,1783335066040830000,1057.4158420253164,885.986304,109.39568307714711,72.4682588295313,608.4084971913003,846.2807684701841,843.5814726121295,158.0,598.4108701730297,749.1822302607901,0.7987520872788495,1052.8764305822785,801.606656,43.09526909099735,71.621897539513,599.6743979708042,895.0446562712924,892.2027541745282,158.0,632.8921459142134,720.376660493206,0.8785572612539997,964.7569002543352,717.227008,83.6555223531125,72.92035781020446,539.4685681703834,702.7194895909802,700.6737225438826,173.0,496.89771636173157,677.1993811462436,0.7337539433669753,1026.2739396319018,717.227008,177.76798500036406,70.88886926670202,584.4467791918498,720.3762382370777,718.153237945919,163.0,509.3829230630936,743.9224383370238,0.6847258488422212,942.9544844293785,717.227008,83.6555223531125,73.54256532059557,489.62635539207486,632.0030002377196,630.2049795239732,177.0,446.89360719833473,616.1257888708142,0.7253285210108887,truth
1783335057040830000,1783335067040830000,1021.3561073865029,801.606656,79.00799333349514,72.92648843322071,569.605139950625,794.0450975367222,791.7108772073102,163.0,561.4746730361499,700.9087862809372,0.8010666780414711,1038.2365384347827,801.606656,83.6555223531125,73.27501677330407,609.2043663438675,911.9016554449005,909.0475344013358,161.0,644.8118443403276,731.0053095867901,0.8820891392769987,942.9544844293785,717.227008,83.6555223531125,73.48027718295252,510.5178944095896,690.028911341528,688.0658094650981,177.0,487.9241224243654,634.2097968361953,0.7693418248321181,1045.193187018868,717.227008,83.6555223531125,70.63409576944409,644.8899381969071,814.0558272612325,811.4819385254318,159.0,575.6243957208422,816.1460300097826,0.7052958350038688,927.2385763555556,717.227008,83.6555223531125,74.37148401505375,475.3601145074462,596.8745796390599,595.2442430417054,180.0,422.05406278064925,602.3866374466143,0.7006364958054921,truth
1783335058040830000,1783335068040830000,977.2742272748537,759.416832,40.6326822857975,76.20676395277366,544.4191090795158,764.188680633614,761.9426422818814,171.0,540.3629981820293,668.4222077098663,0.8084156868955765,1062.807349808917,801.606656,109.39568307714711,71.62836603706418,612.9940115069502,904.4492068429555,901.554797612371,157.0,639.5421673974482,739.6054518099858,0.864707210895134,925.5834572513966,717.227008,83.6555223531125,73.90927260148945,480.9997952185894,654.5419374338874,652.7369391262174,179.0,462.8310425304827,596.3349050958891,0.7761260301475404,1001.9451615808383,717.227008,83.6555223531125,72.01471338927546,590.6887339132556,789.4160747171597,787.0545853127078,167.0,558.2014596101699,736.2281752205819,0.7581908413691539,906.3857793406594,717.227008,83.6555223531125,75.16252081252311,452.72283169476975,582.0667269916161,580.4633201749854,182.0,411.5833297588306,570.2766924991574,0.7217256731204015,truth
1783335059040830000,1783335069040830000,1000.0266767515152,801.606656,28.442877600058253,74.79268343638223,570.9277599914006,791.4891357066859,789.072411280594,165.0,559.6673350936771,703.7778422713859,0.7952329577290984,1106.4351194701987,843.79648,28.442877600058253,70.30677654069456,673.2447636446736,960.9099184578506,957.7492732421168,151.0,679.4659194509586,821.9976007886378,0.8266032878916776,912.2684894426229,717.227008,49.03944413803147,74.45552336160108,466.1590434797333,632.2514116459026,630.5172209512941,183.0,447.0692605895851,578.5093307404995,0.7727952460461278,970.365952,717.227008,94.80959200019417,73.16783291107835,557.3163031530047,760.14782792107,757.9035916512375,170.0,537.5056838272134,690.4684956223444,0.7784651830388581,892.7547249625668,717.227008,49.03944413803147,75.81384512254395,439.98762104193185,561.0877876520868,559.5830170543421,187.0,396.7489794897482,555.4037603196425,0.7143433441311483,truth
1783335060040830000,1783335070040830000,974.7811661395349,759.416832,118.51199000024272,75.46363270600943,526.22048702218,725.1524933417788,723.0305708631495,172.0,512.7602454363046,649.8880421070778,0.7889978153372769,1054.4802551949685,801.606656,118.51199000024272,72.58824784878871,619.2703470259834,879.556905498981,876.7705432728967,159.0,621.9406523177848,757.3548956127687,0.8212010722061531,908.6862636521739,717.227008,41.82776117655625,74.46814105748412,452.93753106921355,623.5890641126715,621.8938747197033,184.0,440.9440559078427,559.5435495847667,0.7880424253573546,977.5209513918128,717.227008,64.64290363649603,72.694966967294,559.2254395411586,761.7288009532385,759.4857664922221,171.0,538.6236005791328,693.1150646967569,0.7771056034033609,902.4061273945946,717.227008,28.442877600058253,75.43081961262288,451.1933869163223,561.6753128350763,560.1949957597144,185.0,397.1644225307579,572.9582493794369,0.6931821349302871,truth
1783335061040830000,1783335071040830000,949.5107549090909,759.416832,118.51199000024272,76.79102683825403,502.7901797703834,682.2941064844902,680.3502740137932,176.0,482.4547894587993,623.8706739470944,0.7733250008473913,1034.431981037037,759.416832,49.03944413803147,72.94329688154826,595.1183943906542,848.116429840895,845.4980801521709,162.0,599.7088787762216,726.9844819820462,0.8249266575005547,904.3297057391303,717.227008,64.64290363649603,74.84853050149442,455.77920123267995,635.8450364629634,634.1064228595707,184.0,449.610337066769,560.7090448298054,0.8018603252659162,975.3004343391812,717.227008,64.64290363649603,72.47244469999578,546.0729440581105,755.5228459272322,753.2980965257586,171.0,534.235327696505,673.5633806740747,0.7931478210140583,887.9953432380952,717.227008,41.82776117655625,75.31003037759936,384.59625283341603,497.18542992754624,495.8760409495158,189.0,351.563189008917,483.76669733865515,0.7267205265326674,truth
1783335062040830000,1783335072040830000,934.7389895111111,759.416832,31.603197333398057,76.98933150472969,441.69935442447235,610.8234960616362,609.1481381875568,180.0,431.9174361732574,544.9039397570469,0.7926487673512396,1017.1583022545456,759.416832,79.00799333349514,73.28517654422151,554.9990802974997,794.4224490007238,791.9967677170675,165.0,561.741500815236,676.9573113521001,0.829803432794394,892.7187227234042,717.227008,25.395426428623438,75.06855035908637,426.3555333591211,602.6616161394767,601.1124633358122,188.0,426.14611553306804,522.2622193495522,0.8159619818255449,967.4394902196532,717.227008,41.82776117655625,72.60822111882104,533.1512468595062,734.3463353391523,732.2134671536638,173.0,519.261273457805,658.547165356576,0.7884951918009495,865.8750925595855,717.227008,83.6555223531125,76.29732697264232,359.6995023972894,470.10344936130167,468.87762341733776,193.0,332.4133369025632,451.12986021141046,0.7368462303665427,truth
1783335063040830000,1783335073040830000,904.3592918709678,759.416832,118.51199000024272,78.8041485680157,422.55595479382913,594.7372476547943,593.1283731152627,186.0,420.54274084092816,518.3425232666611,0.8113220929485272,1011.0308426024097,759.416832,43.09526909099735,74.11670889414714,562.458586179552,799.9425771390737,797.5253181121893,166.0,565.6448208548819,687.5625721737806,0.822681227494035,906.9671894486487,717.227008,41.82776117655625,74.52366101755719,442.53704707201695,619.0277532098282,617.3484731917455,185.0,437.71872203734216,543.947824934928,0.8047071832481472,963.0072617674418,717.227008,71.10719400014563,72.5660762911041,523.0126031227252,719.917911976168,717.8363028982311,172.0,509.0588374560084,646.1531676424615,0.7878299804879823,872.1462559153439,717.227008,79.00799333349514,75.89070736852868,362.9000831856522,465.89072981615175,464.68951169998417,189.0,329.43449434495056,457.30667797458403,0.7203798024643316,truth
1783335064040830000,1783335074040830000,899.7487599572192,759.416832,88.88399250018203,78.91188837166317,421.8880508561586,601.7761816865846,600.1564950729066,187.0,425.5200188271318,515.2139475005466,0.82590935453408,1003.4609636407185,759.416832,32.321451818248015,75.43352732144763,581.0692051564988,817.8026732705713,815.340484364325,167.0,578.2738159421075,712.7990875837927,0.811271824017492,925.5978609777777,717.227008,28.442877600058253,73.85417828219288,468.64388516315887,635.377768940838,633.6482242144342,180.0,449.2799290332459,581.6596555422947,0.7724103343808019,958.7938859885714,717.227008,83.6555223531125,72.1961976021358,482.38475192083337,653.8561606812291,651.9800118840932,175.0,462.34612513829796,598.7554826941032,0.7721785244587145,885.3166242539683,717.227008,83.6555223531125,75.96049558994983,448.87386397096424,600.9936890958704,599.3931704377874,189.0,424.96671301000964,559.175408909567,0.759988200909489,truth
1783335065040830000,1783335075040830000,888.2424443208556,759.416832,74.84967789489014,79.07273573050306,411.7907122760294,576.9335347978506,575.3841695340769,187.0,407.9536147494851,505.8953503838651,0.8063992176246265,973.5547177674418,759.416832,45.87560903235202,76.02003119464669,523.0648445196182,745.6233715578653,743.4518210523979,172.0,527.2353422397433,638.9093128851191,0.8252115466260928,948.9134991186439,717.227008,43.09526909099735,72.5875194888578,481.20866439358593,651.4208685345939,649.5819358225939,177.0,460.62411354724185,597.5251211324311,0.7708866075358738,951.5613447314284,717.227008,44.441996250091016,72.38811950481802,473.312042580108,654.6820366338131,652.811069368116,175.0,462.93010762478895,583.8633718858879,0.7928740351180403,894.1520763870966,717.227008,33.07311348843982,75.616915564366,472.41028030102296,636.0779639184192,634.3886424526395,186.0,449.7750416500463,587.5322559847516,0.7655325083321374,truth
1783335066040830000,1783335076040830000,920.758136967033,759.416832,79.00799333349514,77.16531557917112,443.84837283856893,623.9879882394039,622.2618770814245,182.0,441.2261378630341,544.6673331274109,0.8100837172105944,968.6489242790697,759.416832,32.321451818248015,76.60609655790246,536.3556617374348,771.1561156538446,768.9247255981002,172.0,545.289718732311,653.2108029403845,0.8347836812828662,959.9993095314287,717.227008,43.09526909099735,71.81724256907128,452.711609033341,611.0127250612097,609.2683552149498,175.0,432.05124128205296,562.6379514043039,0.7679027698072697,965.5165469425289,717.227008,64.64290363649603,71.32107591535839,465.6230392126311,613.8026108548711,612.0277929982076,174.0,434.0239884454869,582.5986766361135,0.7449793586067048,903.2251568172044,717.227008,27.885174117704167,74.82494408052086,446.11728212385435,586.9969892832485,585.462773765236,186.0,415.06955165827213,558.4799839405615,0.7432129415446473,truth
1783335067040830000,1783335077040830000,946.2915326553673,759.416832,40.6326822857975,75.84614123641913,480.9682751377491,679.7291780908657,677.8106810515908,177.0,480.64111119840953,589.1969318410798,0.8157563035783928,984.5119518117647,759.416832,35.55359700007281,75.60706323665815,543.693019456624,766.3194376035749,764.0764260561022,170.0,541.8696708845492,666.6279537339077,0.8128517081371041,1012.5557759999999,717.227008,83.6555223531125,70.429989485159,577.2380852002932,788.0839349095671,785.6883479096023,165.0,557.2594945187327,714.9395372307823,0.7794498212774732,984.2637763764706,717.227008,83.6555223531125,70.11349345073427,469.28506724568336,629.557377430856,627.6920181383181,170.0,445.164290727377,584.2699083558615,0.7619154852250933,927.9430350497238,717.227008,41.82776117655625,73.72283915691514,468.2774246923645,620.8705513501303,619.1595247943237,181.0,439.02177709870773,584.9764376191339,0.7504948043472236,truth
1783335068040830000,1783335078040830000,979.9881925614035,801.606656,94.80959200019417,73.54513376207922,500.91479856183395,708.5689884752611,706.4822805561862,171.0,501.0339366893498,613.4441848931912,0.8167555403212218,974.0452971162791,759.416832,36.46522769238238,76.00720078272353,532.215392296285,743.7352509472975,741.5873181933637,172.0,525.9002393523126,654.3859080991638,0.8036545910347128,1001.4398942275449,717.227008,83.6555223531125,70.63894315293363,558.2764988968461,767.2116653785187,764.9177325682955,167.0,542.500571194575,690.0665645920111,0.7861568709901461,1021.6149406625766,717.227008,41.82776117655625,68.05413316535817,483.85618696717165,662.2151515759955,660.1755108425251,163.0,468.25682428386386,598.8333596156918,0.7819484615626174,933.1817003389831,717.227008,41.82776117655625,73.0518621646268,437.85524300870503,550.727230909341,549.1679700903849,177.0,389.42295956008456,554.6253753157681,0.7021369322281227,truth
1783335069040830000,1783335079040830000,960.9636483657143,759.416832,177.76798500036406,74.71541185301365,473.2804245326289,682.7100957867669,680.7489560727845,175.0,482.74893831534035,575.7303637722061,0.8384983122174621,983.9357784327485,759.416832,50.790852857246875,75.44588962183754,537.1575241241853,746.3822661424047,744.300018222131,171.0,527.7719617466768,661.6681869664595,0.79763841173375,1018.285258271605,717.227008,83.6555223531125,69.61793996770207,564.6769052658555,776.3816073680285,773.9667287113591,162.0,548.9846993584447,697.8738529393452,0.786653199638014,1005.8671453658537,717.227008,83.6555223531125,68.62509530802981,468.87389855106557,650.4676282847073,648.4692591126784,164.0,459.950070902447,577.8481042829221,0.7959705457080627,924.4466407955802,717.227008,83.6555223531125,72.99714732678747,393.92969043864207,493.10384814115804,491.7322075199494,181.0,348.6770748497944,499.57316857019475,0.697949963661433,truth
1783335070040830000,1783335080040830000,965.9507378604653,759.416832,74.84967789489014,75.00765083002955,511.51543941086356,757.5491882350839,755.3349137731602,172.0,535.6681680833922,616.3001674204454,0.8691676497922394,987.8410270295857,759.416832,74.84967789489014,74.07019753430878,502.6760728213681,711.9489413264159,709.8397214540798,169.0,503.4239242704922,615.3443301195483,0.8181174338157754,1043.9344575999999,717.227008,83.6555223531125,68.6416847314957,588.3834533205576,805.3920956578725,802.8555967327655,160.0,569.4982123537262,728.1662374388177,0.7820991733382542,1025.4185272195123,738.32192,41.82776117655625,67.2755592500092,467.25100631118846,657.561514595426,655.5454905426377,164.0,464.9662060177227,573.1930036456995,0.8111861154277562,924.4259214222221,717.227008,41.82776117655625,72.93621991845075,392.30032280229955,498.9902121297693,497.6105648179939,180.0,352.8393627426737,495.5313093955303,0.7120425209318899,truth
1783335071040830000,1783335081040830000,984.0156009411764,801.606656,64.64290363649603,72.97635899253984,511.15579275207295,751.4293133540078,749.2028928276501,170.0,531.3407630549701,617.5750850593645,0.8603662549046889,1020.0161717073171,759.416832,29.02334448985536,72.6027922702183,528.3980458035221,725.5151677039014,723.3066607986334,164.0,513.0166949371239,653.3115068448259,0.7852558688499808,1083.7853489870129,717.227008,30.916171304411144,66.86577410800429,613.8482601277727,833.1690369051385,830.4830013436131,154.0,589.1394758702883,761.6276727571212,0.7735268779528203,1048.6040433417722,801.6066559999999,43.09526909099735,65.62813206877765,447.58124949179387,620.8554072732576,618.8899376406474,158.0,439.0110686192562,551.6272206918003,0.7958473624066064,953.7311071085713,717.227008,83.6555223531125,71.90279343261092,429.7752370816793,528.0137373326061,526.4943260233064,175.0,373.36209422753825,547.4613064995924,0.6819880963182121,truth
1783335072040830000,1783335082040830000,973.3266414035087,759.416832,83.6555223531125,73.97551398793492,510.9833280332482,743.2955916424689,741.1068685556585,171.0,525.5893532764567,619.7465925013919,0.848071388589807,1029.2724987169809,759.416832,50.790852857246875,71.96879926305436,530.3182652773369,745.7070187883036,743.3515459190843,159.0,527.2944897636137,650.7343432661233,0.8103068406026515,1076.7931854451613,717.227008,83.6555223531125,67.06729051961759,607.0312928289512,825.2209924934174,822.550524961212,155.0,583.5193597695884,752.8124330364242,0.7751191852876257,1083.7853489870129,801.6066559999999,83.6555223531125,65.03694211290609,523.6401461760817,724.0124782266472,721.6577711639568,154.0,511.9541330177399,646.0259191531277,0.7924668621482837,993.4699032380952,717.227008,83.6555223531125,71.03153462903215,527.0480055586399,694.395321185766,692.3187490295967,168.0,491.0116404346658,659.5551415958407,0.7444588169635493,truth
1783335073040830000,1783335083040830000,994.9766826666666,801.606656,61.83234260882229,72.46134670302948,514.2450900393711,738.6449899651403,736.430157423143,168.0,522.30088129382,626.4957461619762,0.83368623728657,1056.357949961783,801.606656,83.6555223531125,71.19197442611777,571.3105461638075,803.6740848701787,801.0940650986012,157.0,568.2833952755963,700.9411327943285,0.8107433972523668,1090.8689133594771,717.227008,83.6555223531125,67.2208081990016,641.0730677848715,877.8737474350626,874.9939627169227,153.0,620.7504798369793,793.2740871661526,0.7825170264347258,1083.7853489870129,759.416832,83.6555223531125,65.14065452509882,526.8738853695262,712.2717798514673,709.955754947756,154.0,503.6522055807842,654.4917188747058,0.7695318230255592,981.7820220235293,717.227008,83.6555223531125,71.43901348444443,503.26856690388314,652.2005940463544,650.2819924138807,170.0,461.1754627440718,632.6271391178,0.728984632855274,truth
1783335074040830000,1783335084040830000,1043.4070848,801.606656,43.09526909099735,70.16241372229317,543.1600741940251,766.6747463003364,764.2733287163106,160.0,542.1209120734438,665.6562106247086,0.8144157651059416,1091.144663843137,843.79648,36.46522769238238,69.57780218870407,596.5768553179221,849.7260067355583,846.9409794087976,153.0,600.8470215132793,728.9028172337876,0.8243170520228134,1059.851374878981,717.227008,64.64290363649603,68.78384554741903,631.0842960526508,857.064146820418,854.318894189503,157.0,606.0358701285804,782.8761329273532,0.7741146327484445,1095.817812768212,843.79648,88.88399250018203,64.61376945058956,531.322659721423,692.2146175574898,689.9036063269789,151.0,489.4696501113536,666.9462259259202,0.7338967237303484,987.5913831005917,717.227008,83.6555223531125,70.76035155460747,495.92625757486934,647.3530663231047,645.4376640595974,169.0,457.7477430189722,622.1890450537921,0.7357052437003243,truth
1783335075040830000,1783335085040830000,1087.0084065882352,843.79648,16.930284285748957,68.59147178531782,590.6330444953281,791.7438572492979,789.2993330814626,153.0,559.8474504237724,735.5135638631292,0.7611653651678323,1086.181155137255,843.79648,74.84967789489014,70.030438781064,589.0003195137917,841.3514256979735,838.5829761252846,153.0,594.9252984720067,718.9399817743442,0.8275034266472854,1044.0646318987342,717.227008,52.67199555566342,69.31981959937566,621.9223075054841,840.4319154436629,837.75541498341,158.0,594.2751065358132,772.6533906104444,0.7691354412698542,1085.2777094736841,843.79648,67.72113714299583,65.00742625195598,513.4955083741621,680.0626295727715,677.8167580702933,152.0,480.8768970024618,641.6650054393805,0.7494204809769563,977.8998491428571,717.227008,64.64290363649603,71.2713978628582,489.3052822462355,656.1958666503601,654.2294778695833,168.0,464.00054709505315,609.2545154661409,0.761587374924987,truth
1783335076040830000,1783335086040830000,1091.9719152941177,843.79648,38.4363210811598,69.75049151580913,621.889371428234,869.9541553330571,867.1225708807423,153.0,615.1504825574198,764.3871548472637,0.8047629773165619,1073.7990689032256,801.606656,41.82776117655625,70.81293772156813,590.9743355303093,836.492260309877,833.8270869372444,155.0,591.4893496751768,723.5824107324606,0.8174457268473814,1006.9643535421686,717.227008,79.00799333349514,70.07022709397008,534.6642857206427,699.3167110188027,697.2063521622647,166.0,494.4915885584686,670.4258581474847,0.7375783355445802,1057.9498904303798,759.416832,79.00799333349514,65.9088197399532,480.1071834705645,658.0124361894295,655.9135626481658,158.0,465.285055734626,593.9366327270019,0.7833917460155896,1006.9643535421686,717.227008,79.00799333349514,70.0857025389643,518.7501435062036,693.5661083768267,691.473301594061,166.0,490.4252984344181,646.4866093765357,0.7586008609016336,truth
1783335077040830000,1783335087040830000,1113.1407868609272,843.79648,29.02334448985536,69.16417439173485,633.7441663880974,814.6619986048875,812.0198605548312,151.0,576.0530235885016,798.3387713678708,0.721564634273611,1112.225695785235,801.606656,71.10719400014563,68.15307298162112,592.5322273190034,850.1716039638605,847.3026386859162,149.0,601.1621063350897,722.1432972593578,0.8324692739191655,981.4685372631579,717.227008,27.885174117704167,70.70872762280534,470.59827035545754,598.0929216814642,596.3909250584802,171.0,422.91556070063797,594.5558664934097,0.7113134097808549,1066.6452939487178,759.416832,83.6555223531125,65.95537267698928,504.11375313190206,694.275288752259,692.0475370388639,156.0,490.9267646869707,622.7012189248198,0.7883825336565488,1017.1583022545456,717.227008,41.82776117655625,69.5829188740536,531.9734074189569,718.8864766317497,716.7047414763518,165.0,508.3295025296148,660.9023913036389,0.769144595659471,truth
1783335078040830000,1783335088040830000,1124.4994423466667,928.176128,64.64290363649603,68.26460279309923,641.3692717399249,835.8165868020977,833.0101912820488,150.0,591.0115763559579,805.0228218945263,0.7341550578219408,1101.654022736842,801.606656,74.84967789489014,68.47535566180652,582.2464852095907,825.1102434401058,822.373741698403,152.0,583.4410483629819,712.6150507955866,0.8187324246261839,1004.9767657005989,717.227008,41.82776117655625,69.47545585545963,480.93334657263927,632.7472815416162,630.8533332604131,167.0,447.4198935554304,602.0809639214151,0.7431224708406968,1068.9880246624202,843.79648,41.82776117655625,65.72950507778563,497.14806244372926,680.0469021666072,677.8793518659973,157.0,480.86577604691263,615.383169006521,0.7814087226714792,1023.3604870243903,717.227008,83.6555223531125,70.08815506575408,585.6560748548792,823.9793587382952,821.4479261545818,164.0,582.6413921215915,718.5057968605088,0.8109070165716504,truth
1783335079040830000,1783335089040830000,1116.0614775466668,928.176128,177.76798500036406,69.46944260395404,642.3296574232263,817.4389950977093,814.6962138271851,150.0,578.0166566399072,811.2478967210272,0.7125031189309525,1117.18653952,843.79648,129.28580727299206,68.44861046330388,598.8070937037295,841.3604290029339,838.5346612669964,150.0,594.9316647699974,734.9612425610032,0.8094735209395982,998.9947611428572,717.227008,83.6555223531125,69.98858459899824,484.1812143281726,650.0318673959365,648.1241518638817,168.0,459.64194142302136,602.6836147258738,0.7626587652164496,1104.1521044210526,928.176128,83.6555223531125,63.78599964834794,507.3426043668064,702.7023065265994,700.3716125222069,152.0,496.8855661003863,625.5760573359062,0.7942848200048378,1035.994567111111,717.227008,83.6555223531125,69.64471699890515,587.6174357241085,816.9736723719756,814.4679890316075,162.0,577.6876237851008,723.6898549770582,0.7982530358994934,truth
1783335080040830000,1783335090040830000,1175.4143973146854,928.176128,39.50399666674757,65.93955222761676,718.1981042003556,907.7748233827616,904.5868871266346,143.0,641.8937334043712,908.6271244366793,0.7064435081687942,1136.8447169729732,885.986304,33.860568571497915,66.73908086635367,601.0778911490598,848.824639290442,845.9605971240843,148.0,600.2096584804966,736.5211778284212,0.8149251868767317,976.9887732093024,717.227008,83.6555223531125,70.69946486452213,457.2387189950077,622.9867180737625,621.1766090871915,172.0,440.5181329391093,566.6624917641116,0.7773906678871676,1077.1927499487178,801.6066559999999,83.6555223531125,65.54583054820381,507.96312689246844,675.5261578777983,673.3594144539221,156.0,477.6691271042854,634.0103935035,0.7534089850873217,1012.301620433735,717.227008,83.6555223531125,70.65833320254319,572.7898710783912,790.7967563406594,788.3967606500681,166.0,559.1777489488062,706.9912272159203,0.7909260078810415,truth
1783335081040830000,1783335091040830000,1213.7217484057971,970.365952,142.21438800029125,65.03139220037633,747.2629668329546,957.4735966418583,953.9728170880554,138.0,677.0360729925311,942.1331971294743,0.7186203342110746,1145.152365714286,885.986304,49.03944413803147,66.45164427327957,619.6875559713426,868.8613125082501,865.8810813943769,147.0,614.3777259852277,761.1145373451238,0.8072079770388632,959.2760554057144,717.227008,47.404796000097086,70.98124494243699,414.6332137064694,542.6308986059514,541.0785491739251,175.0,383.69798808561814,519.8358690843042,0.7381137218589894,1049.2081856,759.416832,79.00799333349514,66.58076486903606,484.88862797708356,673.2741383435581,671.153637061912,160.0,476.0767088202597,597.4189875978432,0.7968891493297064,1005.2293993772456,717.227008,30.258380425593884,70.7195322752366,560.4001736803029,783.3491531643775,781.0233220130609,167.0,553.9114982392708,688.9758597955305,0.8039635792227275,truth
1783335082040830000,1783335092040830000,1236.8443256470587,1012.5557759999999,54.697841538573556,63.74912301290857,774.131042598704,986.453376688969,982.7938497064222,136.0,697.5278719811378,977.3869121973374,0.7136660653793415,1167.2517973333333,885.986304,56.885755200116506,65.96496790078615,662.2104296973298,943.4916318210578,940.1880797127573,144.0,667.1493308534314,809.0124792429061,0.8246465264389571,964.5466659310346,717.227008,83.6555223531125,71.14192573158196,436.5055690608264,576.165343427264,574.4977123075587,174.0,407.4104214220944,545.9694111400084,0.7462147386085298,1052.357496754717,759.416832,64.64290363649603,66.57220917435168,521.1084900520501,736.6649236169633,734.3708336939997,159.0,520.9007629518248,638.3097323296572,0.8160626989826373,990.0878223905326,717.227008,64.64290363649603,70.71018045146764,524.3715045695818,730.2739085955975,728.0983131274118,169.0,516.3816328915519,645.450194992039,0.800033274291475,truth
1783335083040830000,1783335093040830000,1243.1934805333335,970.365952,101.58170571449375,64.638785868945,814.8338845683619,1077.4954362848387,1073.470356923231,135.0,761.904329694567,1018.6556901514217,0.7479507914802017,1165.493888,907.081216,83.6555223531125,66.10024491505143,659.0237574909628,932.9539736449613,929.7371530477145,144.0,659.6980812992877,806.8604877176933,0.8176110880894997,943.1084814382023,717.227008,41.82776117655625,71.66477117155387,398.56971544533536,523.0726874501452,521.6087278294983,178.0,369.8682443494692,499.3139063267434,0.7407529405107998,1049.2081856,738.32192,83.6555223531125,67.18744968051396,536.5950864325922,751.8879993558085,749.5198422944156,160.0,531.6651030372786,659.1924473728307,0.8065400402510616,993.3331934674557,717.227008,27.348920769286778,70.48485396195449,515.8960162195648,723.8150719904467,721.7111700900882,169.0,511.8145457294739,633.4984881531296,0.8079175488194026,truth
1783335084040830000,1783335094040830000,1224.428760759124,970.365952,45.87560903235202,65.28365991589301,807.6165396616332,1079.2177953320524,1075.2503251850985,137.0,763.1222214564898,1006.6335916457969,0.7580933398107867,1149.8171896986303,928.176128,44.441996250091016,65.29073583142927,625.6548102590668,885.582768542286,882.5295552924576,146.0,626.2015809382071,766.0441718438061,0.8174483978267086,971.3414392601157,717.227008,64.64290363649603,70.35446118717242,425.195630762273,564.9866995612153,563.3419021859733,173.0,399.505926539942,530.8296865929652,0.7526066017597826,1037.2967221728395,738.32192,83.6555223531125,67.52374870928423,519.5693305851235,720.0908190244434,717.8510287805442,162.0,509.1811012023589,640.5246924658902,0.794943750321498,982.7021578479531,717.227008,64.64290363649603,71.04085068481983,511.84549274898205,719.9554194319796,717.8471784643355,171.0,509.08535923235786,628.0029183073333,0.8106417094438098,truth
1783335085040830000,1783335095040830000,1180.1096484571428,928.176128,74.84967789489014,66.4353136362714,754.0685042295678,1073.206682707951,1069.3532153525214,140.0,758.8717229575117,921.5722826722732,0.8234532843772379,1183.0977406197185,970.3659519999999,79.00799333349514,64.16519811210306,647.135788180385,926.8599930745866,923.5676010869697,142.0,655.3889863135566,789.1781136075307,0.8304703019672068,970.3659520000001,717.227008,83.6555223531125,70.5889379308849,424.68533638806264,547.9455470369357,546.3503601090985,173.0,387.4560120307896,534.4662657798733,0.7249400698198009,1036.254998123457,759.416832,41.82776117655625,67.40952959143797,513.4323916104252,719.5800440531987,717.3426083587782,162.0,508.81992875653134,630.6954745039012,0.806760075703356,971.8376900465116,717.227008,41.82776117655625,71.49196832936155,498.9442596841973,705.2578281639686,703.1933396040916,172.0,498.6925927796391,611.1821311990263,0.815947599451732,truth
1783335086040830000,1783335096040830000,1197.286933942857,928.176128,33.860568571497915,65.78857870258936,779.8074617146217,1130.1894383693073,1126.140231209386,140.0,799.1646158963529,947.0307878000692,0.843863395141349,1220.7533857391306,1012.5557759999999,71.10719400014563,61.9113431361415,663.7056965893221,947.573455349544,944.1090250692339,138.0,670.0356159500308,810.2694860658804,0.8269293456961704,975.7623248372093,717.227008,41.82776117655625,70.05828854097864,415.39863420699925,532.8322948878308,531.2885777295509,172.0,376.7693289503753,523.5785394601488,0.7196042246858599,1048.9444992,759.416832,83.6555223531125,66.7876670430253,517.4427142140098,729.9253380700944,727.6403371465456,160.0,516.135156309247,634.2682202326847,0.8137490415646239,953.5859083636361,717.227008,83.6555223531125,72.56071177431124,495.57879823688154,710.0524737492974,708.0208869574636,176.0,502.08291918641123,604.2789601288873,0.8308793658467298,truth
1783335087040830000,1783335097040830000,1200.133554647482,928.176128,47.404796000097086,64.71691683804774,782.6723274358068,1076.0250809687727,1072.1204406509169,139.0,760.8646314798231,967.3130054688099,0.7865754178618416,1201.044126388489,928.176128,43.09526909099735,63.39155747962857,707.0716754825241,1039.7870857585276,1036.0157784696326,139.0,735.240499330053,854.1729406927938,0.8607630425914942,971.1018210232558,717.227008,41.82776117655625,70.50915218061698,420.40226135166625,541.4288651477173,539.8597120943203,172.0,382.8480220760876,529.3295936327414,0.7232696351787854,1039.4517887999998,759.416832,41.82776117655625,67.07041536003396,503.2057694261267,708.5351247971314,706.303711931676,160.0,501.00999145290837,617.1925040047544,0.8117564426042494,938.3680517752808,717.227008,41.82776117655625,72.91547606981052,466.11633144100335,653.6744109820917,651.8378526924467,178.0,462.2176086935592,572.4563825994453,0.807428518125159,truth
1783335088040830000,1783335098040830000,1208.6322242302158,928.176128,33.07311348843982,64.05992630215083,780.3400789605544,1090.621384855045,1086.6751022423794,139.0,771.1857769380657,959.4256231665612,0.8037994382438793,1217.3904287536234,1012.5557759999999,129.28580727299206,63.166291328610356,721.4903944155329,1051.0995427065977,1047.2665746818413,138.0,743.2396143499144,874.582309618859,0.8498223736926678,973.0799172865496,717.227008,83.6555223531125,70.66213004761345,436.61033296223025,579.6845613880257,578.0250435262943,171.0,409.89888430662245,545.2051155490676,0.7518250886069175,1039.9791615999998,759.416832,83.6555223531125,67.43956967506044,515.7678920386765,732.1045954427534,729.7987484697185,160.0,517.676123975405,630.9031242979704,0.8205318757161689,913.4212168743169,717.227008,79.00799333349514,73.46616354721957,387.3030980228462,523.2460984875341,521.8499314969254,183.0,369.99086446993954,481.20760548913,0.7688799184581825,truth
1783335089040830000,1783335099040830000,1190.2916302978724,885.986304,49.03944413803147,65.87584791674225,785.0159664045117,1089.2377234788025,1085.3590672399137,141.0,770.2073805960589,967.4143013506146,0.7961505008978743,1207.6072811594202,949.27104,50.790852857246875,63.78033751011129,722.6357305745232,1054.9127881558745,1051.0621865967291,138.0,745.9359860654268,875.3253969537553,0.8521813586825879,954.9365306514285,717.227008,83.6555223531125,71.45654106501892,419.74194925844245,553.0539624695209,551.4624369756962,175.0,391.0682072242886,525.2613031470567,0.7445212599543085,1025.2386065276073,717.227008,83.6555223531125,68.18530324808503,508.6192821465531,724.9924760677728,722.7513811352674,163.0,512.6470961367479,621.2758048997481,0.8251521982567324,888.9036854468085,717.227008,83.6555223531125,74.49420784722027,355.646362918137,501.85433839232775,500.51068313404886,188.0,354.8646058451033,435.89474265354266,0.8141061846372311,truth
1783335090040830000,1783335100040830000,1137.9772255782314,843.79648,24.949892631630046,67.63569297233931,679.984765723006,941.9021891981081,938.683809004346,147.0,666.0254251964367,838.429263400733,0.7943728281799073,1193.3693074285713,928.176128,79.00799333349514,66.10555426221609,737.782503427464,1067.5114543422385,1063.8364225516925,140.0,754.8445883597103,896.5215381904785,0.8419703891144364,991.9631238095238,717.227008,83.6555223531125,69.73040774725048,450.0139808431146,591.1746434058794,589.4020559468366,168.0,418.0235992178364,563.6073998423168,0.7416928864574683,1035.091955279503,717.227008,83.6555223531125,67.98542462535686,523.4988577436601,746.2041310519385,743.8686348724501,161.0,527.6460012162408,639.4505116254808,0.825155335125101,880.8791147789474,717.227008,83.6555223531125,74.99687235755839,353.86763129143515,498.3235096072598,497.0034450112778,190.0,352.3679328679731,434.00808851310364,0.8118925480747908,truth
1783335091040830000,1783335101040830000,1150.1818915310344,885.986304,45.87560903235202,66.44432794952422,670.3334163327314,933.9113803366328,930.6631675555373,145.0,660.3750700633219,825.0128250664068,0.8004421870777186,1151.927677351724,885.986304,83.6555223531125,67.54254185418877,697.4860410812722,1028.593978121615,1025.0164165871477,145.0,727.3257770174413,841.7078840366413,0.8641071217360479,984.2637763764706,717.227008,83.6555223531125,70.1915423638784,463.27661257250986,640.3700300604637,638.4726332082325,170.0,452.80999072438715,571.6047547592733,0.7921732402577448,1072.595140923077,759.416832,83.6555223531125,66.48922693241701,558.4796623124366,802.010284754681,799.4189684984796,156.0,567.1069109313889,680.4365820707726,0.8334456522098099,894.785251251337,717.227008,83.6555223531125,74.47862815862334,375.9963468443824,526.0918664668541,524.6757350516857,187.0,372.00312630580015,462.11832109319977,0.8049954077254053,truth
1783335092040830000,1783335102040830000,1130.858323027027,843.79648,158.01598666699027,67.20016246704203,639.7203446291643,869.1111225456903,866.152247593461,148.0,614.5543683567101,793.502175694406,0.7744835328509391,1130.2881902702702,864.891392,25.395426428623438,67.33562671240483,651.788560529925,942.8030642409904,939.611994165083,148.0,666.6624400482605,792.1093679472508,0.8416292838145751,968.6489242790697,717.227008,83.6555223531125,70.65961619848487,441.10893220865046,610.9603411228063,609.171287966882,172.0,432.01420024398266,543.9081223352779,0.7942778982397304,1020.8384408343557,717.227008,83.6555223531125,68.357594913501,480.09736871672084,659.7779146020839,657.7912047783378,163.0,466.53343749225235,593.4309081504513,0.786163024346506,881.5217723597884,717.227008,83.6555223531125,75.3232747037759,365.8651049728105,509.29588092596055,507.9395645873761,189.0,360.1265710331231,450.40978729540706,0.7995531651201209,truth
1783335093040830000,1783335103040830000,1126.5823273513513,885.986304,61.83234260882229,67.2734927255253,619.288607570299,828.014756452281,825.1943721851741,148.0,585.4948492099355,771.7737036897778,0.7586353958559866,1116.3199377297299,843.79648,36.46522769238238,68.79397644217231,659.2167795688188,931.4763652343563,928.3261415346584,148.0,658.6532543722107,807.6022970389678,0.8155663459441966,971.3471106976743,717.227008,41.82776117655625,70.28869245276373,416.80854755380255,578.1608313278858,576.4678765929091,172.0,408.82144444839975,513.7034591156487,0.7958315973814825,1025.2386065276073,759.416832,41.82776117655625,67.31202098115271,450.6380519936088,637.0523721064246,635.083117403794,163.0,450.4640522874286,551.9876598327025,0.816076309430461,866.6493013333333,717.227008,41.82776117655625,76.05060380020797,343.9143985721469,479.6287284827872,478.38624636260516,192.0,339.14872636206024,423.13508220659185,0.8015140805471525,truth
1783335094040830000,1783335104040830000,1118.5928669866664,928.176128,44.441996250091016,67.93420781921009,594.0805798513742,797.0739629527699,794.4060693453583,150.0,563.6164043111386,739.6159443310978,0.7620392835377127,1110.905564397351,843.79648,21.226028059744966,69.45252593516769,662.0213353455088,940.2854228367626,937.2600205284496,151.0,664.882198738735,809.6359229959313,0.821211336916033,988.4827587764706,717.227008,41.82776117655625,69.79151792944653,446.42026155898617,614.3177051600037,612.4987724345076,170.0,434.3882151215967,551.5755062931312,0.787540799338439,1030.932938601227,717.227008,83.6555223531125,67.28878081192845,460.35687562288194,664.2632725954793,662.2111838885428,163.0,469.7050645454316,559.9513211313187,0.8388319606005131,878.6969626806283,717.227008,83.6555223531125,75.51356464033019,357.48577754750306,506.12904840013493,504.7953727001745,191.0,357.88728227922974,437.6648362490173,0.8177199825932631,truth
1783335095040830000,1783335105040830000,1166.858419020979,970.365952,24.519722069015735,66.02450328481378,642.7743311671954,830.0303349980957,827.187907472479,143.0,586.9200784676952,808.7521822910948,0.7257106581215316,1091.9719152941177,801.606656,83.6555223531125,71.54667402065225,684.4938601132295,954.0056898873046,950.8672366571535,153.0,674.5838926098636,842.3372097806678,0.800847789670262,975.7623248372093,717.227008,83.6555223531125,70.23867038126515,437.3701750564907,611.713936806478,609.9226769234629,172.0,432.54707286217985,537.6214792370844,0.8045569040061213,1042.429315975155,717.227008,83.6555223531125,66.79973728773273,469.3710298582016,672.6547752420907,670.5644176244055,161.0,475.63875297119534,572.2780929550778,0.8311322044762102,874.1204159999999,717.227008,83.6555223531125,75.57932767346227,345.1201065606457,484.55019872597063,483.28007806505343,192.0,342.62873134442304,423.69629704957117,0.8086658621525232,truth
1783335096040830000,1783335106040830000,1128.2927256216215,970.365952,88.88399250018203,67.32866117096115,571.1495022156803,766.0078159286157,763.4084752916928,148.0,541.6493210850208,711.1480255519991,0.7616548195638848,1061.4212050632912,759.416832,41.82776117655625,73.18728959005617,666.9185878626836,946.1720073612651,943.1707897028077,158.0,669.0446425740384,815.9353153253023,0.8199726498016567,1000.1767258443114,717.227008,83.6555223531125,69.01052770640761,451.1136997550074,631.0293076258763,629.1257457997385,167.0,446.2051025497091,554.4886323835717,0.8047146081816215,1024.7209399754602,717.227008,83.6555223531125,68.21102251748563,486.50538459886474,683.4925685589993,681.3798078068351,163.0,483.3022301186797,597.1469297154043,0.8093522817726247,869.9453813333333,717.227008,83.6555223531125,75.67046602852851,328.92206978154155,457.91024355214523,456.70995251375456,192.0,323.79143839050545,404.91852043497636,0.7996459091144519,truth
1783335097040830000,1783335107040830000,1111.8424951466668,907.081216,118.51199000024272,68.49913684901998,586.0308274572284,794.4097271995596,791.7398905405416,150.0,561.7325051433639,727.3874880647094,0.7722603349116055,1021.3024468292683,759.416832,177.76798500036406,75.19680188807332,608.0838770502904,846.3639705963437,843.7641252201801,164.0,598.4697029606464,748.6314249189138,0.7994183560027127,986.2491798588236,717.227008,83.6555223531125,70.23337307947736,462.848468308885,634.6529196177281,632.7724623892282,170.0,448.76738316153643,572.5044341635576,0.7838670871033446,1016.1355186424242,717.227008,49.03944413803147,68.96461047187981,483.2756755053205,687.3101564006228,685.2184485144722,165.0,486.00167236926694,590.7723286490199,0.8226547669906226,891.8210668936171,717.227008,83.6555223531125,74.84681385873662,360.03939340190016,490.3966399442637,489.0836613098371,188.0,346.7627895756866,446.24490303560947,0.777068347933636,truth
1783335098040830000,1783335108040830000,1144.0716411586204,970.365952,28.442877600058253,67.65759020218206,621.5447057279068,862.4990296090482,859.5439652551951,145.0,609.8789126033748,765.9370068208241,0.7962520509810593,1039.7154752,759.416832,40.6326822857975,73.68173000575408,614.9551369754753,835.2751823929773,832.6580863837452,160.0,590.6287456269046,762.8358168076836,0.7742540827442641,986.0010044235295,717.227008,83.6555223531125,69.56708283891733,437.29075673442514,591.2057128237681,589.4616007462936,170.0,418.04556861391296,543.1991928674669,0.7695990238997102,1016.3912145454545,717.227008,74.84967789489014,68.7821548509507,477.796506898563,671.0177899752621,669.0049344090454,165.0,474.4812295883183,586.5260313005007,0.8089687486440352,912.1256514782609,717.227008,64.64290363649603,74.28856938830585,408.84774502376905,564.5889891146849,563.0465958917022,184.0,399.22470278625156,504.601600834417,0.7911681257572061,truth
1783335099040830000,1783335109040830000,1152.800570262069,970.365952,101.58170571449375,67.48133767060806,637.2634996210389,865.8780229157051,862.8667118169991,145.0,612.2682216840958,790.4260548947037,0.7746053130367253,1045.2528896,759.416832,43.09526909099735,73.63130310051308,619.5365437126209,851.6874308168115,849.0142736152342,160.0,602.2339577819159,765.7076387485795,0.7865063991867264,990.8292798083834,717.227008,31.603197333398057,69.2194856789925,435.40285232981796,581.1982804860467,579.4593077800838,167.0,410.9692453456447,542.8659386293251,0.757036343785531,1010.0142203373495,717.227008,83.6555223531125,69.13796577715401,473.7549397965812,661.9227994766541,659.9585062862091,166.0,468.05010013192543,582.539301546747,0.8034652750280847,921.2217614065935,717.227008,83.6555223531125,73.65573377641581,411.09660361258994,576.9548741198952,575.3668480981835,182.0,407.96870392880874,504.75895565203973,0.8082446073726441,truth
1783335100040830000,1783335110040830000,1184.6064767092198,970.365952,37.42483894744507,66.57530514057868,671.3935810100431,889.8092712000738,886.6461711637334,141.0,629.1901696282318,838.8078125915239,0.7501005119209947,1070.8690996178343,759.416832,13.674460384643389,71.96992981198443,663.8654311261803,859.3239991721546,856.6596353160132,157.0,607.6338270509737,834.7605569265909,0.7279139173611064,993.608250251497,717.227008,61.83234260882229,69.32955962475317,452.56954963252633,610.662857937479,608.8226432778077,167.0,431.80384786634875,562.5043226439092,0.7676453859710163,1000.6819931976048,717.227008,83.6555223531125,69.2149725613982,459.39448045813293,639.7391922674177,637.8093562196021,167.0,452.36392104309556,565.4821118479821,0.7999615046438534,909.2713981202185,717.227008,83.6555223531125,74.43507527231856,405.48249601880974,560.5890784749123,559.0468772628107,183.0,396.39633884872813,500.2670091350721,0.7923695378875186,truth
1783335101040830000,1783335111040830000,1175.1193635804198,928.176128,33.860568571497915,68.56329198422772,718.7974981657626,947.8379935743502,944.5152476077673,143.0,670.2226727226744,899.2999895601893,0.7452715228546292,1064.3584712911393,801.606656,54.697841538573556,71.32128301705391,631.8504781860117,903.5924188990517,900.7141477552866,158.0,638.936326832275,770.9411382815316,0.8287744616359398,997.7391116190477,717.227008,83.6555223531125,69.42373317112492,468.8553474654126,632.3145758215995,630.4258650843213,168.0,447.1139244065484,582.8338039224503,0.7671379412063747,977.5630396235294,717.227008,83.6555223531125,69.6969634611247,390.282730619306,563.0061867506929,561.3460102885361,170.0,398.1054925013947,474.76017952165546,0.8385401928664401,910.9791888695653,717.227008,83.6555223531125,74.27306190080189,399.8640206344437,553.7844394067826,552.2762238063827,184.0,391.5847324201267,493.065075485594,0.7941846865436077,truth
1783335102040830000,1783335112040830000,1146.9274757260273,949.27104,59.25599500012136,68.61955973923706,674.3822588894315,916.3923091619281,913.2298351222283,146.0,647.9872160355985,836.4443473040161,0.7746925639753047,1054.4802551949685,801.606656,29.02334448985536,71.91498950661932,623.1693312995743,900.2867590535902,897.4764880758903,159.0,636.598872339253,757.6615133507264,0.8402154011016358,1025.2386065276073,717.227008,83.6555223531125,69.24349825047095,553.0786923119539,723.9242229494808,721.6864301983484,163.0,511.89172711278,693.3797730217904,0.7382559270252799,997.9902415238093,717.227008,79.00799333349514,68.70610552905794,409.3056987775654,585.6647468777747,583.9152396199491,168.0,414.12751401917745,499.31103649902457,0.8293978777694943,936.4255349273743,717.227008,83.6555223531125,72.72153078650453,413.6662442351579,581.2455458143918,579.6175126195373,179.0,411.0026669798325,507.7183541167042,0.8095091769823224,truth
1783335103040830000,1783335113040830000,1109.2291475496688,801.606656,59.25599500012136,70.35181682444257,661.1759599998863,890.7446125903227,887.7792315889858,151.0,629.8515558680015,822.1622765299267,0.7660915294318723,1046.3076352,801.606656,61.83234260882229,72.04816541245833,611.934044990856,881.7148963227246,878.9392765332374,160.0,623.4665822629922,744.6954150781337,0.8372101796780607,1042.4293159751553,717.227008,64.64290363649603,68.58592053064295,570.5508787659396,743.1802720693734,740.8564928908369,161.0,525.5078100243172,716.2243931359046,0.7337195089425017,1018.9871516097561,717.227008,64.64290363649603,68.54681961301709,465.64069036774777,654.9157799580463,652.9332962617261,164.0,463.0953891144113,571.3263825019736,0.8105618842357794,932.4186801340782,717.227008,83.6555223531125,73.31626048527554,424.57037170435194,589.730530897251,588.0785294988359,179.0,417.002457470189,523.0434745699968,0.7972615618864455,truth
1783335104040830000,1783335114040830000,1197.4018394244604,801.606656,83.6555223531125,68.240381251394,791.3784442055045,1060.5683085553314,1056.7187273421255,139.0,749.9350428910217,985.5751618361079,0.7609110618148157,1106.9939250860928,801.606656,83.6555223531125,70.0405282101845,695.0566369026762,998.6745668528348,995.3401246068854,151.0,706.1695584201776,846.6816015393526,0.8340438213565643,1022.7125854814814,717.227008,83.6555223531125,69.43282747220864,554.248788084409,704.5511130194732,702.3596579035653,162.0,498.1928697085991,700.2038063819901,0.7114969458432425,1011.5267559024388,717.227008,64.64290363649603,69.38948382272655,488.9401072992512,686.1351034001833,684.0283807406847,164.0,485.1707844244026,600.3578199891391,0.8081360286656709,952.0435141485714,717.227008,88.88399250018203,73.10066341314788,490.7124099377517,694.1171950663623,692.1197738432171,175.0,490.8149755696104,600.9556293206126,0.8167241500416303,truth
1783335105040830000,1783335115040830000,1161.9780693333332,801.606656,33.07311348843982,69.56190845568734,754.7454389118708,1035.5068900654685,1031.9106317389767,144.0,732.2139439306856,933.3877679042513,0.7844691875218548,1146.349532931507,822.701568,24.1041335593714,68.78374518516343,750.8065506140204,1046.0742152498283,1042.535899716212,146.0,739.6861712275498,924.0417398241332,0.8004899988266001,1041.2975935999998,717.227008,67.72113714299583,68.81204886109693,570.2991552568865,736.3692935592796,734.0507817683216,160.0,520.6917209333141,717.5808796569127,0.7256209518601797,1003.0373400975611,717.227008,64.64290363649603,69.77390220661465,483.7166917468003,654.4322584575556,652.4229927087694,164.0,462.7534877825649,600.7439392299133,0.7703007180992342,945.3380903050847,717.227008,64.64290363649603,73.44318132181614,487.66457710234545,681.8798805160122,679.9410186755111,177.0,482.16188746754506,599.4943174523726,0.8042809972187116,truth
1783335106040830000,1783335116040830000,1192.1638838857143,843.79648,30.916171304411144,67.14543203915086,754.7717179372532,1020.1545844002143,1016.5191238650581,140.0,721.3582244879357,937.6469742806786,0.7693281632368407,1167.1534527552446,885.986304,79.00799333349514,68.07840118578122,756.4720973019911,1045.0359786257252,1041.3499427512177,143.0,738.9520270701703,933.5282635450249,0.7915689925273806,1056.6266749554143,717.227008,41.82776117655625,68.48964593409107,602.2189123476584,782.6744975242239,780.175439408436,157.0,553.4344446611524,756.4326767860404,0.7316374102353768,1022.1326072147239,717.227008,27.885174117704167,69.23904115031422,507.84457409460316,652.6613259203486,650.7040698554391,163.0,461.5012493764819,639.7816199975042,0.7213418375136851,941.2859603163843,717.227008,83.6555223531125,74.30523912690116,514.0677193741951,720.3189907720035,718.2697149530187,177.0,509.3424429923338,631.5191035023985,0.8065352895383937,truth
1783335107040830000,1783335117040830000,1190.958460342857,843.79648,118.51199000024272,67.39709463406375,748.142260336337,990.5498971534226,987.0029248821813,140.0,700.4245493808224,934.9526237808324,0.7491551246183924,1198.6159350791365,885.986304,118.51199000024272,65.88917372051588,768.3292429024822,1059.7032698732253,1055.8822784199283,139.0,749.3233681729156,948.6394973609318,0.7898926518002847,1059.0179872405063,717.227008,83.6555223531125,68.24367797221396,594.1824766404234,775.4297892953653,772.95632274062,158.0,548.3116623448085,745.508411462561,0.7354868891004382,1031.013824,717.227008,21.547634545498674,69.03347164591275,532.1867378986568,683.9396408598303,681.9094590575065,160.0,483.61835797427796,670.4491702624136,0.7213348594122204,912.4721379555555,717.227008,41.82776117655625,75.24626878581044,471.09601374139817,658.7045939609036,656.902696411387,180.0,465.77448518848627,579.1286323432572,0.8042677553411235,truth
1783335108040830000,1783335118040830000,1187.0002255886525,843.79648,79.00799333349514,67.68354612542915,751.2737293571143,994.0229763874949,990.466532154308,141.0,702.880387258833,939.0442020734326,0.7485061786302027,1203.4723176978416,928.176128,38.4363210811598,64.32858756915591,743.9793781262971,1044.8203321003252,1041.0458247674133,139.0,738.7995419497206,913.2897944036303,0.808943170587108,1059.8513748789808,717.227008,41.82776117655625,68.23870179372588,593.6893985639879,771.6426875283585,769.1654975481216,157.0,545.6337770043144,745.7050989704593,0.7317018185307185,1046.519911044025,717.227008,41.82776117655625,68.5811773833492,550.6913772011285,723.9922133616047,721.6975114621184,159.0,511.9398035942485,689.5511616952671,0.7424246843927292,920.4413269333335,717.227008,41.82776117655625,74.76003565439109,466.28929216391424,666.9851335413591,665.1315062707179,180.0,471.62971087771,568.8884916063536,0.8290371801088525,truth
1783335109040830000,1783335119040830000,1165.8652772957744,843.79648,33.07311348843982,67.8712654189713,723.2211627520737,952.9016928584768,949.5619024208679,142.0,673.8032488243697,905.0371768285462,0.744503392872244,1200.8813671884056,885.986304,21.879136615429427,65.54346860233753,776.188977541435,1076.9298793503633,1073.0940942554475,138.0,761.5044205510525,956.5532742373732,0.7960920118727036,1046.519911044025,717.227008,83.6555223531125,68.51139895122893,575.3431044578044,757.9374034893334,755.5350601926114,159.0,535.9426777222321,720.0153462199607,0.7443489649712335,1053.14345478481,717.227008,41.82776117655625,68.61845722412396,566.1737949349109,735.9177402400035,733.5829095427796,158.0,520.3724245191867,711.1341659926127,0.7317499979667582,940.0272021573033,717.227008,83.6555223531125,74.1020776171218,496.7932183452378,705.354511006591,703.3591618576626,178.0,498.7609578732818,607.6394959499435,0.8208172134919437,truth
1783335110040830000,1783335120040830000,1168.1494531631206,885.986304,71.10719400014563,66.0288042116015,695.9244902282226,953.0815302330849,949.6727628448972,141.0,673.9304130514658,861.121763388293,0.7826191854677123,1179.8295148169013,885.986304,88.88399250018203,65.83306340015307,714.5097427479925,996.1888407498711,992.6554272156603,142.0,704.4118846365996,879.1759171832232,0.8012183578611353,1012.8114719030302,717.227008,83.6555223531125,70.20847809505341,554.4606151446309,717.8375779338472,715.6590650266292,165.0,507.5878191475502,697.1588415989874,0.7280805877515066,1037.9744898385093,717.227008,83.6555223531125,69.52082985629609,568.0425334589224,739.3026180109832,737.0023087217758,161.0,522.765894544534,713.2338672464933,0.7329515865009624,953.5859083636365,717.227008,83.6555223531125,73.25221725405109,501.45490963991404,717.479051274674,715.4379134529107,176.0,507.33430251561265,611.7352413826158,0.8293363994674544,truth
1783335111040830000,1783335121040830000,1155.7102132965517,843.79648,94.80959200019417,68.04972641352032,728.5179525096894,1042.7451432608764,1039.119225250555,145.0,737.3321618491036,888.6210979991887,0.8297486561024424,1188.7955372482268,885.986304,142.21438800029125,65.86064248102285,720.6451673984321,992.0847829676609,988.5456084246521,141.0,701.5098775484173,890.2813378030738,0.7879642622628894,1019.847844345679,717.227008,83.6555223531125,70.12016163371725,555.0017808633411,731.1513291157992,728.9996492490285,162.0,517.0020628913388,694.556251865902,0.7443631261001973,1054.4785757974685,717.227008,83.6555223531125,68.7331557328521,575.7568294105372,751.8668688753415,749.4685633427746,158.0,531.6501615312508,722.2644294838603,0.7360879753017534,945.3380903050847,717.227008,41.82776117655625,73.92442478811195,506.82406212628126,727.1167424521811,725.0595794959514,177.0,514.1491793022097,617.7107499564835,0.8323461738984315,truth
1783335112040830000,1783335122040830000,1199.095069257143,843.79648,21.226028059744966,66.49098674960737,795.4899624819644,1145.3954004989157,1141.3769686000128,140.0,809.9168548326647,968.3108514047008,0.8364223675256159,1180.7166347801417,970.365952,59.25599500012136,65.3996428202745,712.6564012935933,1010.5615299603447,1006.9589458259227,141.0,714.5749106412121,872.0376374621235,0.8194312721648431,991.7119939047618,717.227008,83.6555223531125,70.82395833765001,512.3883698140705,672.4561661806844,670.4505108862023,168.0,475.4983151570698,641.8990256908288,0.7407680898803762,1059.0179872405063,717.227008,41.82776117655625,68.12620033054964,559.9783738503004,715.8349139767593,713.5661667980414,158.0,506.1717218830554,706.4323409520723,0.7165183309711983,945.3380903050847,717.227008,41.82776117655625,73.86643533004855,505.44531141793476,736.2498716502704,734.1665832823841,177.0,520.6072768916314,612.7266578928047,0.8496566457252307,truth
1783335113040830000,1783335123040830000,1175.6699547042253,843.79648,36.46522769238238,67.07659127962208,767.5721126194603,1097.008253364829,1093.1310522084596,142.0,775.7019749718808,936.7374867883557,0.8280889639971685,1173.5901746478871,970.365952,44.441996250091016,65.41203411364941,692.112680387143,981.7079804161327,978.2308485813822,142.0,694.1723700971978,846.8189210227713,0.8197412136927574,983.2710746352941,717.227008,40.6326822857975,70.98175799769308,499.59843738667945,648.9208148387138,647.0019834229932,170.0,458.8563086255545,627.6325687021737,0.7310906595787138,1051.296117534591,717.227008,40.6326822857975,68.46094683542384,568.1212143329288,751.304238313697,748.9229669681674,159.0,531.2523216458092,710.2175115577003,0.7480135493711332,939.2539030167599,717.227008,79.00799333349514,73.9981037017752,497.0351997035055,732.6415683037926,730.5917992751872,179.0,518.0558211267589,599.9142126895703,0.8635498379079585,truth
